SpectraSuite Data File
++++++++++++++++++++++++++++++++++++
Date: Wed Feb 01 16:27:22 EET 2017
User: optolab
Dark Spectrum Present: Yes
Reference Spectrum Present: Yes
Number of Sampled Component Spectra: 1
Spectrometers: USB4C02475
Integration Time (usec): 100000 (USB4C02475)
Spectra Averaged: 1 (USB4C02475)
Boxcar Smoothing: 0 (USB4C02475)
Correct for Electrical Dark: No (USB4C02475)
Strobe/Lamp Enabled: No (USB4C02475)
Correct for Detector Non-linearity: No (USB4C02475)
Correct for Stray Light: No (USB4C02475)
Number of Pixels in Processed Spectrum: 3648
>>>>>Begin Processed Spectral Data<<<<<
344,91	5950,000
345,13	5950,000
345,35	5950,000
345,57	0,000
345,79	600,000
346,00	-2266,667
346,22	-1714,286
346,44	341,176
346,66	-508,333
346,87	-11300,000
347,09	484,848
347,31	-522,727
347,53	-341,026
347,74	286,154
347,96	445,455
348,18	784,211
348,40	525,806
348,61	1000,000
348,83	371,429
349,05	213,725
349,27	-8100,000
349,48	723,077
349,70	-448,276
349,92	558,065
350,14	343,396
350,35	358,000
350,57	3375,000
350,79	616,000
351,01	-857,143
351,22	311,111
351,44	684,615
351,66	-376,000
351,87	-500,000
352,09	275,000
352,31	283,607
352,53	257,813
352,74	319,444
352,96	303,896
353,18	794,737
353,40	460,000
353,61	297,778
353,83	355,882
354,05	881,818
354,26	2066,667
354,48	244,000
354,70	496,970
354,92	-410,345
355,13	220,202
355,35	393,182
355,57	658,333
355,78	227,711
356,00	-3150,000
356,22	615,385
356,44	5000,000
356,65	247,727
356,87	430,769
357,09	645,833
357,30	293,333
357,52	289,655
357,74	870,000
357,95	297,436
358,17	219,672
358,39	261,290
358,60	367,568
358,82	558,333
359,04	462,963
359,26	445,714
359,47	9800,000
359,69	325,000
359,91	430,303
360,12	571,429
360,34	545,833
360,56	-140,741
360,77	2900,000
360,99	542,857
361,21	248,000
361,42	5200,000
361,64	277,551
361,86	286,154
362,07	-458,065
362,29	208,000
362,51	-658,824
362,72	624,000
362,94	370,588
363,16	320,930
363,37	-1078,571
363,59	484,615
363,81	384,091
364,02	750,000
364,24	637,500
364,46	3600,000
364,67	1327,273
364,89	2585,714
365,11	197,143
365,32	593,103
365,54	419,444
365,76	306,122
365,97	420,588
366,19	212,069
366,41	781,818
366,62	477,778
366,84	267,442
367,05	400,000
367,27	1966,667
367,49	-476,923
367,70	647,059
367,92	260,656
368,14	287,500
368,35	-12100,000
368,57	556,000
368,79	400,000
369,00	367,391
369,22	-1787,500
369,43	234,118
369,65	240,323
369,87	386,486
370,08	198,795
370,30	301,786
370,51	222,951
370,73	315,556
370,95	238,710
371,16	254,762
371,38	470,000
371,60	1687,500
371,81	214,063
372,03	1020,000
372,24	600,000
372,46	258,491
372,68	198,571
372,89	436,364
373,11	534,615
373,32	440,909
373,54	-1446,154
373,76	1069,231
373,97	773,333
374,19	600,000
374,40	317,187
374,62	-4633,333
374,84	5025,000
375,05	435,714
375,27	388,000
375,48	-9100,000
375,70	189,333
375,92	253,571
376,13	306,250
376,35	239,726
376,56	1000,000
376,78	268,056
376,99	410,714
377,21	354,167
377,43	250,000
377,64	239,130
377,86	503,448
378,07	376,923
378,29	-1225,000
378,51	609,677
378,72	320,833
378,94	-1366,667
379,15	284,848
379,37	829,412
379,58	292,308
379,80	873,333
380,01	675,000
380,23	317,647
380,45	2680,000
380,66	4433,333
380,88	372,727
381,09	207,143
381,31	203,333
381,52	288,235
381,74	1566,667
381,95	595,455
382,17	484,615
382,39	480,952
382,60	263,265
382,82	405,128
383,03	315,385
383,25	338,710
383,46	295,455
383,68	403,704
383,89	725,000
384,11	361,290
384,32	-3533,333
384,54	600,000
384,76	-3900,000
384,97	333,333
385,19	475,862
385,40	323,529
385,62	219,298
385,83	345,238
386,05	264,706
386,26	346,000
386,48	249,425
386,69	300,000
386,91	510,000
387,12	298,305
387,34	213,793
387,55	235,484
387,77	615,625
387,98	534,615
388,20	231,522
388,41	426,471
388,63	11000,000
388,84	206,557
389,06	361,905
389,27	826,316
389,49	472,222
389,70	348,980
389,92	396,667
390,13	242,857
390,35	296,078
390,56	298,148
390,78	603,704
390,99	1090,000
391,21	589,474
391,42	342,222
391,64	339,024
391,85	274,138
392,07	295,455
392,28	241,333
392,50	354,545
392,71	-1287,500
392,93	205,769
393,14	444,444
393,36	287,755
393,57	142,105
393,79	1100,000
394,00	348,936
394,22	223,288
394,43	165,060
394,65	255,814
394,86	1512,500
395,08	566,667
395,29	288,679
395,50	584,615
395,72	361,111
395,93	709,524
396,15	219,718
396,36	205,882
396,58	285,000
396,79	325,000
397,01	304,000
397,22	330,556
397,44	242,424
397,65	245,614
397,87	409,524
398,08	269,388
398,29	406,250
398,51	278,571
398,72	287,805
398,94	209,231
399,15	357,143
399,37	242,105
399,58	204,396
399,80	600,000
400,01	231,481
400,22	380,952
400,44	254,321
400,65	432,143
400,87	200,000
401,08	265,714
401,30	286,957
401,51	285,965
401,72	273,077
401,94	137,975
402,15	565,000
402,37	130,252
402,58	822,222
402,80	328,571
403,01	228,169
403,22	1136,364
403,44	236,232
403,65	292,857
403,87	172,857
404,08	438,462
404,30	131,765
404,51	-2800,000
404,72	168,571
404,94	183,333
405,15	210,000
405,37	177,215
405,58	169,412
405,79	179,268
406,01	336,585
406,22	246,552
406,44	157,447
406,65	249,123
406,86	150,000
407,08	131,646
407,29	159,223
407,51	159,756
407,72	156,481
407,93	118,478
408,15	100,855
408,36	195,349
408,58	144,330
408,79	99,167
409,00	133,333
409,22	92,063
409,43	172,152
409,64	93,168
409,86	80,503
410,07	102,308
410,29	77,612
410,50	100,709
410,71	84,821
410,93	74,522
411,14	106,202
411,35	97,619
411,57	95,395
411,78	100,781
412,00	77,070
412,21	103,871
412,42	72,487
412,64	69,957
412,85	64,948
413,06	82,317
413,28	40,541
413,49	54,028
413,70	60,870
413,92	54,545
414,13	32,780
414,34	59,004
414,56	37,063
414,77	58,228
414,98	49,664
415,20	47,059
415,41	42,776
415,63	39,801
415,84	45,000
416,05	31,593
416,27	40,310
416,48	36,236
416,69	33,850
416,91	27,568
417,12	30,481
417,33	29,263
417,55	28,169
417,76	37,782
417,97	23,444
418,19	18,489
418,40	23,830
418,61	31,852
418,83	23,273
419,04	16,719
419,25	17,290
419,46	21,203
419,68	20,952
419,89	23,398
420,10	19,864
420,32	11,208
420,53	13,181
420,74	15,502
420,96	12,625
421,17	16,975
421,38	17,410
421,60	14,238
421,81	11,276
422,02	12,435
422,23	7,418
422,45	9,108
422,66	13,819
422,87	13,688
423,09	13,106
423,30	11,294
423,51	10,945
423,73	13,878
423,94	11,345
424,15	6,871
424,36	9,001
424,58	8,687
424,79	8,807
425,00	8,050
425,22	8,494
425,43	8,018
425,64	9,731
425,85	8,107
426,07	8,139
426,28	7,308
426,49	7,943
426,71	5,818
426,92	6,062
427,13	5,407
427,34	4,272
427,56	7,285
427,77	5,919
427,98	6,718
428,19	4,956
428,41	7,085
428,62	5,950
428,83	7,119
429,04	5,767
429,26	6,030
429,47	5,703
429,68	4,640
429,89	3,851
430,11	4,672
430,32	4,405
430,53	3,558
430,74	4,111
430,96	4,074
431,17	4,282
431,38	3,737
431,59	4,152
431,81	3,591
432,02	2,831
432,23	4,158
432,44	3,742
432,66	3,550
432,87	3,103
433,08	3,434
433,29	3,840
433,51	2,054
433,72	3,055
433,93	2,718
434,14	3,129
434,35	2,851
434,57	2,051
434,78	2,837
434,99	2,569
435,20	3,278
435,42	2,436
435,63	2,500
435,84	2,408
436,05	2,802
436,26	2,506
436,48	2,566
436,69	2,173
436,90	2,372
437,11	2,344
437,32	2,678
437,54	2,766
437,75	2,090
437,96	3,096
438,17	1,960
438,38	2,424
438,60	2,041
438,81	2,036
439,02	2,324
439,23	1,945
439,44	2,421
439,66	2,055
439,87	2,401
440,08	1,882
440,29	1,974
440,50	2,265
440,72	1,906
440,93	2,217
441,14	2,408
441,35	2,536
441,56	2,053
441,77	2,159
441,99	2,119
442,20	2,193
442,41	1,940
442,62	2,197
442,83	2,668
443,04	3,047
443,26	3,793
443,47	5,074
443,68	6,168
443,89	8,388
444,10	11,183
444,31	14,609
444,53	18,718
444,74	23,405
444,95	27,900
445,16	32,730
445,37	36,070
445,58	40,195
445,80	43,750
446,01	45,639
446,22	48,397
446,43	51,108
446,64	53,685
446,85	59,143
447,06	63,248
447,28	69,287
447,49	75,007
447,70	81,274
447,91	85,794
448,12	87,870
448,33	91,214
448,54	94,319
448,76	94,128
448,97	94,140
449,18	94,657
449,39	93,326
449,60	95,010
449,81	95,498
450,02	96,568
450,23	95,937
450,45	96,281
450,66	95,034
450,87	95,857
451,08	96,193
451,29	95,728
451,50	95,883
451,71	96,789
451,92	96,199
452,13	96,238
452,35	97,561
452,56	98,156
452,77	97,440
452,98	96,780
453,19	97,806
453,40	97,366
453,61	98,491
453,82	97,648
454,03	98,718
454,25	98,448
454,46	97,559
454,67	97,066
454,88	98,349
455,09	98,395
455,30	97,385
455,51	98,557
455,72	97,344
455,93	97,314
456,14	96,575
456,35	97,680
456,56	96,043
456,78	96,372
456,99	96,805
457,20	96,647
457,41	94,743
457,62	95,185
457,83	94,562
458,04	95,301
458,25	96,379
458,46	95,762
458,67	95,616
458,88	96,415
459,09	95,969
459,30	97,275
459,51	96,687
459,73	97,198
459,94	96,879
460,15	94,087
460,36	94,850
460,57	94,737
460,78	94,179
460,99	92,997
461,20	91,858
461,41	92,644
461,62	93,146
461,83	91,748
462,04	91,433
462,25	92,104
462,46	91,318
462,67	92,365
462,88	93,540
463,09	93,123
463,30	94,216
463,51	95,419
463,72	94,831
463,93	95,472
464,15	95,239
464,36	94,688
464,57	94,873
464,78	94,512
464,99	94,701
465,20	95,176
465,41	94,214
465,62	93,651
465,83	92,792
466,04	93,902
466,25	93,245
466,46	93,494
466,67	93,758
466,88	94,499
467,09	94,049
467,30	95,175
467,51	95,241
467,72	95,343
467,93	95,346
468,14	94,558
468,35	95,221
468,56	95,783
468,77	94,680
468,98	95,448
469,19	95,258
469,40	95,292
469,61	95,898
469,82	94,471
470,03	95,192
470,24	95,091
470,45	94,386
470,66	94,465
470,87	96,062
471,08	94,558
471,29	95,883
471,50	95,893
471,71	94,565
471,92	95,088
472,13	95,695
472,34	95,691
472,55	94,464
472,76	94,937
472,97	93,594
473,18	92,187
473,39	91,140
473,60	88,564
473,81	87,133
474,01	85,336
474,22	82,497
474,43	79,077
474,64	74,598
474,85	68,887
475,06	62,666
475,27	55,917
475,48	49,575
475,69	41,188
475,90	34,754
476,11	27,855
476,32	21,191
476,53	16,113
476,74	11,878
476,95	8,632
477,16	6,205
477,37	4,657
477,58	3,227
477,79	2,584
478,00	1,909
478,21	1,486
478,41	1,527
478,62	1,046
478,83	1,314
479,04	1,263
479,25	1,026
479,46	0,959
479,67	1,202
479,88	1,306
480,09	1,009
480,30	1,151
480,51	1,134
480,72	0,990
480,93	1,034
481,14	1,001
481,34	0,779
481,55	0,962
481,76	0,669
481,97	1,088
482,18	0,891
482,39	1,008
482,60	0,825
482,81	0,897
483,02	0,589
483,23	0,819
483,44	0,804
483,65	0,771
483,85	0,714
484,06	0,877
484,27	0,781
484,48	0,920
484,69	0,717
484,90	0,983
485,11	0,668
485,32	0,772
485,53	1,072
485,73	0,901
485,94	0,781
486,15	0,827
486,36	0,649
486,57	0,866
486,78	0,825
486,99	0,857
487,20	0,691
487,41	0,815
487,61	0,703
487,82	0,916
488,03	0,663
488,24	0,719
488,45	0,685
488,66	0,986
488,87	0,677
489,08	0,921
489,28	0,672
489,49	0,843
489,70	0,666
489,91	0,715
490,12	0,889
490,33	0,711
490,54	0,672
490,74	0,687
490,95	0,850
491,16	0,731
491,37	0,853
491,58	0,669
491,79	0,773
492,00	0,593
492,20	0,619
492,41	0,678
492,62	0,607
492,83	0,759
493,04	0,461
493,25	0,757
493,45	0,653
493,66	0,773
493,87	0,638
494,08	0,514
494,29	0,428
494,50	0,685
494,70	0,795
494,91	0,826
495,12	0,788
495,33	0,783
495,54	0,824
495,75	0,704
495,95	0,704
496,16	0,774
496,37	0,647
496,58	0,657
496,79	0,647
496,99	0,645
497,20	0,634
497,41	0,729
497,62	0,697
497,83	0,817
498,04	0,722
498,24	0,707
498,45	0,843
498,66	0,760
498,87	0,670
499,08	0,633
499,28	0,743
499,49	0,809
499,70	0,731
499,91	0,891
500,12	0,656
500,32	0,623
500,53	0,653
500,74	0,712
500,95	0,788
501,15	0,759
501,36	0,733
501,57	0,673
501,78	0,753
501,99	0,696
502,19	0,627
502,40	0,794
502,61	0,933
502,82	0,828
503,02	0,810
503,23	0,849
503,44	0,798
503,65	0,907
503,86	0,665
504,06	0,833
504,27	0,880
504,48	0,800
504,69	0,897
504,89	0,818
505,10	0,946
505,31	0,775
505,52	0,744
505,72	0,785
505,93	0,857
506,14	0,992
506,35	0,793
506,55	0,890
506,76	0,829
506,97	0,760
507,18	0,828
507,38	0,853
507,59	0,984
507,80	0,942
508,01	0,733
508,21	0,795
508,42	0,933
508,63	0,899
508,84	0,728
509,04	0,906
509,25	1,022
509,46	0,846
509,67	0,844
509,87	1,003
510,08	0,985
510,29	0,997
510,49	1,032
510,70	0,962
510,91	1,022
511,12	0,974
511,32	0,845
511,53	1,081
511,74	0,974
511,94	1,096
512,15	1,026
512,36	1,006
512,57	0,996
512,77	1,003
512,98	0,925
513,19	1,004
513,39	1,043
513,60	0,925
513,81	1,029
514,01	1,143
514,22	1,392
514,43	1,407
514,64	1,186
514,84	1,289
515,05	1,037
515,26	1,219
515,46	1,199
515,67	1,192
515,88	1,266
516,08	1,339
516,29	1,541
516,50	1,363
516,70	1,361
516,91	1,495
517,12	1,512
517,32	2,010
517,53	2,153
517,74	3,082
517,95	3,872
518,15	5,397
518,36	7,312
518,57	9,910
518,77	13,665
518,98	18,259
519,19	23,961
519,39	30,319
519,60	37,671
519,80	44,742
520,01	53,860
520,22	61,362
520,42	68,155
520,63	73,818
520,84	78,725
521,04	83,258
521,25	85,886
521,46	88,112
521,66	88,280
521,87	89,496
522,08	90,515
522,28	89,797
522,49	90,781
522,70	90,103
522,90	91,599
523,11	93,135
523,31	93,834
523,52	94,799
523,73	95,698
523,93	94,614
524,14	96,331
524,35	96,257
524,55	95,803
524,76	96,923
524,97	97,292
525,17	97,589
525,38	96,717
525,58	97,022
525,79	96,909
526,00	97,530
526,20	97,135
526,41	97,145
526,61	98,060
526,82	97,300
527,03	97,231
527,23	96,414
527,44	95,893
527,64	96,968
527,85	96,635
528,06	96,452
528,26	96,246
528,47	96,307
528,68	96,918
528,88	96,612
529,09	97,401
529,29	97,145
529,50	98,557
529,70	97,545
529,91	97,466
530,12	97,241
530,32	96,887
530,53	97,923
530,73	97,200
530,94	98,572
531,15	98,407
531,35	98,451
531,56	100,028
531,76	98,458
531,97	98,935
532,17	100,197
532,38	99,459
532,59	99,535
532,79	100,540
533,00	99,878
533,20	100,666
533,41	100,896
533,61	99,947
533,82	99,724
534,03	99,059
534,23	101,114
534,44	100,944
534,64	99,996
534,85	100,211
535,05	100,479
535,26	99,836
535,46	101,040
535,67	100,802
535,88	101,129
536,08	100,573
536,29	101,174
536,49	100,380
536,70	100,747
536,90	100,302
537,11	100,821
537,31	101,178
537,52	101,752
537,72	100,832
537,93	100,170
538,13	99,680
538,34	100,236
538,55	100,139
538,75	99,272
538,96	99,080
539,16	99,133
539,37	98,186
539,57	97,059
539,78	97,564
539,98	96,847
540,19	97,023
540,39	96,437
540,60	96,784
540,80	96,752
541,01	96,541
541,21	96,836
541,42	96,200
541,62	96,052
541,83	96,806
542,03	96,572
542,24	96,393
542,44	96,904
542,65	96,220
542,85	98,288
543,06	97,174
543,26	97,394
543,47	98,222
543,67	97,540
543,88	98,693
544,08	98,286
544,29	98,340
544,49	99,258
544,70	97,825
544,90	97,849
545,11	97,983
545,31	97,087
545,52	97,740
545,72	98,254
545,93	97,890
546,13	97,259
546,34	97,903
546,54	97,654
546,75	97,601
546,95	97,833
547,15	98,383
547,36	99,146
547,56	98,871
547,77	98,892
547,97	100,020
548,18	99,873
548,38	99,220
548,59	98,764
548,79	99,321
549,00	99,558
549,20	98,439
549,41	98,558
549,61	98,298
549,81	97,315
550,02	96,778
550,22	96,735
550,43	96,083
550,63	96,024
550,84	93,791
551,04	94,883
551,25	94,546
551,45	92,876
551,65	93,172
551,86	93,025
552,06	90,588
552,27	89,423
552,47	87,032
552,68	86,123
552,88	81,418
553,08	76,775
553,29	71,496
553,49	65,589
553,70	59,416
553,90	52,307
554,11	46,131
554,31	37,830
554,51	32,170
554,72	25,744
554,92	19,948
555,13	15,642
555,33	11,783
555,53	8,966
555,74	6,511
555,94	5,003
556,15	3,546
556,35	2,768
556,56	2,493
556,76	1,866
556,96	1,684
557,17	1,485
557,37	1,462
557,58	1,402
557,78	1,152
557,98	1,058
558,19	0,929
558,39	1,216
558,59	1,076
558,80	1,132
559,00	0,797
559,21	1,002
559,41	0,828
559,61	0,867
559,82	1,022
560,02	0,871
560,23	1,156
560,43	1,038
560,63	1,035
560,84	1,021
561,04	0,922
561,24	0,998
561,45	0,963
561,65	0,981
561,85	1,017
562,06	0,851
562,26	0,786
562,47	0,957
562,67	0,715
562,87	0,910
563,08	0,749
563,28	0,785
563,48	0,990
563,69	0,959
563,89	0,862
564,09	1,004
564,30	0,815
564,50	0,983
564,70	0,947
564,91	1,020
565,11	0,721
565,31	0,875
565,52	0,829
565,72	1,048
565,92	1,050
566,13	0,775
566,33	0,910
566,53	0,776
566,74	0,862
566,94	0,681
567,14	0,686
567,35	0,732
567,55	0,733
567,75	0,946
567,96	0,838
568,16	1,022
568,36	0,725
568,57	0,985
568,77	0,569
568,97	0,683
569,18	0,845
569,38	0,663
569,58	0,632
569,79	0,838
569,99	0,852
570,19	0,631
570,39	0,684
570,60	0,713
570,80	0,714
571,00	0,908
571,21	0,609
571,41	0,712
571,61	0,933
571,82	0,667
572,02	0,763
572,22	0,797
572,42	0,683
572,63	0,821
572,83	0,787
573,03	0,676
573,24	0,733
573,44	0,654
573,64	0,734
573,84	0,865
574,05	0,892
574,25	0,846
574,45	0,717
574,66	0,597
574,86	0,779
575,06	0,708
575,26	0,656
575,47	0,840
575,67	0,818
575,87	0,740
576,07	0,694
576,28	0,816
576,48	0,836
576,68	0,563
576,88	0,544
577,09	0,659
577,29	0,452
577,49	0,751
577,69	0,765
577,90	0,829
578,10	0,733
578,30	0,497
578,50	0,700
578,71	0,765
578,91	0,559
579,11	0,790
579,31	0,732
579,52	0,579
579,72	0,690
579,92	0,729
580,12	0,681
580,33	0,774
580,53	0,717
580,73	0,821
580,93	0,791
581,13	0,682
581,34	0,641
581,54	0,785
581,74	0,695
581,94	0,965
582,15	0,608
582,35	0,491
582,55	0,641
582,75	0,749
582,95	0,730
583,16	0,605
583,36	0,853
583,56	0,717
583,76	0,765
583,96	0,818
584,17	0,675
584,37	0,771
584,57	0,720
584,77	0,744
584,97	0,737
585,18	0,699
585,38	0,784
585,58	0,733
585,78	0,729
585,98	0,768
586,19	0,748
586,39	0,653
586,59	0,758
586,79	0,678
586,99	0,495
587,20	0,657
587,40	0,741
587,60	0,619
587,80	0,851
588,00	0,758
588,20	0,563
588,41	0,983
588,61	0,763
588,81	0,644
589,01	0,682
589,21	0,773
589,41	0,874
589,62	0,692
589,82	0,649
590,02	0,605
590,22	0,903
590,42	0,703
590,62	0,685
590,83	0,696
591,03	0,820
591,23	0,582
591,43	1,028
591,63	0,790
591,83	0,696
592,03	0,813
592,24	0,933
592,44	0,779
592,64	0,709
592,84	0,832
593,04	0,865
593,24	0,693
593,44	0,716
593,65	0,831
593,85	0,879
594,05	0,521
594,25	0,771
594,45	0,757
594,65	0,832
594,85	0,822
595,06	0,773
595,26	0,818
595,46	0,608
595,66	0,746
595,86	0,989
596,06	0,724
596,26	0,667
596,46	0,760
596,66	0,903
596,87	0,733
597,07	0,869
597,27	0,716
597,47	0,834
597,67	1,047
597,87	0,889
598,07	0,807
598,27	0,944
598,47	0,963
598,67	0,849
598,88	0,792
599,08	0,962
599,28	0,618
599,48	0,888
599,68	1,020
599,88	0,848
600,08	0,898
600,28	1,000
600,48	0,883
600,68	0,942
600,88	0,892
601,09	0,834
601,29	1,003
601,49	0,897
601,69	0,967
601,89	0,751
602,09	0,854
602,29	1,017
602,49	0,909
602,69	0,915
602,89	1,052
603,09	1,035
603,29	0,910
603,49	0,966
603,69	1,094
603,90	1,092
604,10	1,062
604,30	1,253
604,50	1,442
604,70	1,484
604,90	1,392
605,10	1,818
605,30	2,131
605,50	2,660
605,70	3,177
605,90	3,912
606,10	5,016
606,30	6,541
606,50	8,446
606,70	10,704
606,90	12,854
607,10	15,929
607,30	19,968
607,50	23,849
607,70	28,788
607,90	33,978
608,10	39,503
608,30	45,306
608,50	51,468
608,70	57,483
608,90	63,435
609,11	69,500
609,31	73,474
609,51	78,485
609,71	82,198
609,91	85,206
610,11	87,269
610,31	89,521
610,51	90,282
610,71	91,823
610,91	92,970
611,11	93,938
611,31	94,135
611,51	95,019
611,71	96,137
611,91	95,289
612,11	97,213
612,31	96,688
612,51	96,280
612,71	97,149
612,91	96,499
613,11	96,845
613,31	97,582
613,51	97,626
613,71	97,065
613,91	96,742
614,11	97,547
614,31	96,771
614,50	97,728
614,70	96,695
614,90	97,620
615,10	97,180
615,30	96,836
615,50	96,436
615,70	96,523
615,90	97,634
616,10	96,290
616,30	96,790
616,50	97,567
616,70	96,335
616,90	97,098
617,10	95,896
617,30	96,659
617,50	95,860
617,70	96,441
617,90	96,456
618,10	95,326
618,30	96,066
618,50	95,069
618,70	96,650
618,90	96,310
619,10	95,527
619,30	95,710
619,49	96,536
619,69	96,769
619,89	96,051
620,09	97,792
620,29	97,471
620,49	97,430
620,69	97,859
620,89	98,186
621,09	96,939
621,29	98,172
621,49	98,487
621,69	97,628
621,89	98,577
622,09	97,883
622,29	98,622
622,48	99,673
622,68	97,986
622,88	97,502
623,08	97,891
623,28	97,117
623,48	97,531
623,68	98,231
623,88	98,462
624,08	97,204
624,28	97,978
624,48	96,935
624,67	96,851
624,87	97,362
625,07	96,255
625,27	97,083
625,47	97,475
625,67	97,497
625,87	96,117
626,07	95,704
626,27	94,864
626,47	95,962
626,66	95,335
626,86	95,373
627,06	96,719
627,26	94,623
627,46	95,391
627,66	95,004
627,86	95,089
628,06	96,077
628,25	94,565
628,45	95,185
628,65	95,221
628,85	94,974
629,05	94,901
629,25	94,247
629,45	95,074
629,65	96,438
629,84	95,810
630,04	96,112
630,24	97,227
630,44	97,254
630,64	98,323
630,84	97,800
631,04	98,305
631,23	99,437
631,43	100,343
631,63	99,750
631,83	101,406
632,03	100,489
632,23	101,471
632,42	102,213
632,62	102,145
632,82	102,816
633,02	102,205
633,22	103,354
633,42	103,579
633,62	103,264
633,81	104,087
634,01	103,268
634,21	102,985
634,41	103,847
634,61	103,710
634,80	103,892
635,00	103,930
635,20	103,857
635,40	102,095
635,60	102,703
635,80	103,662
635,99	102,895
636,19	103,026
636,39	103,070
636,59	101,818
636,79	102,334
636,98	101,740
637,18	101,155
637,38	102,504
637,58	102,365
637,78	101,005
637,97	101,431
638,17	100,845
638,37	101,301
638,57	100,768
638,77	100,308
638,96	99,868
639,16	99,274
639,36	99,006
639,56	99,506
639,76	101,494
639,95	99,982
640,15	98,613
640,35	99,860
640,55	99,479
640,75	98,657
640,94	100,241
641,14	99,906
641,34	99,247
641,54	99,063
641,73	99,257
641,93	99,462
642,13	99,585
642,33	99,961
642,53	98,264
642,72	100,268
642,92	100,700
643,12	100,193
643,32	99,392
643,51	101,925
643,71	102,060
643,91	101,383
644,11	100,415
644,30	99,843
644,50	99,861
644,70	100,991
644,90	100,551
645,09	100,732
645,29	99,577
645,49	99,426
645,69	98,203
645,88	99,044
646,08	99,327
646,28	99,317
646,48	98,939
646,67	98,240
646,87	98,104
647,07	99,664
647,26	98,152
647,46	97,585
647,66	98,325
647,86	99,424
648,05	98,317
648,25	99,196
648,45	99,007
648,65	98,343
648,84	99,527
649,04	100,008
649,24	99,335
649,43	99,002
649,63	100,323
649,83	98,820
650,03	99,478
650,22	99,325
650,42	98,871
650,62	99,416
650,81	99,321
651,01	98,085
651,21	97,217
651,40	98,263
651,60	98,597
651,80	98,620
652,00	96,258
652,19	94,787
652,39	97,839
652,59	93,999
652,78	94,952
652,98	94,800
653,18	93,354
653,37	93,685
653,57	91,852
653,77	91,372
653,96	91,836
654,16	88,606
654,36	89,280
654,55	87,383
654,75	85,858
654,95	84,791
655,14	82,243
655,34	82,076
655,54	78,179
655,73	77,499
655,93	75,891
656,13	73,531
656,32	71,335
656,52	69,276
656,72	65,811
656,91	63,300
657,11	59,944
657,31	57,480
657,50	54,577
657,70	51,480
657,90	47,977
658,09	44,354
658,29	41,388
658,49	37,467
658,68	34,420
658,88	31,528
659,07	27,224
659,27	23,871
659,47	21,671
659,66	17,686
659,86	16,286
660,06	13,933
660,25	11,061
660,45	10,537
660,64	8,785
660,84	7,631
661,04	6,305
661,23	5,612
661,43	5,324
661,63	4,834
661,82	3,814
662,02	3,681
662,21	3,596
662,41	2,959
662,61	3,015
662,80	2,574
663,00	2,385
663,19	2,194
663,39	2,311
663,59	2,378
663,78	1,847
663,98	1,988
664,17	1,998
664,37	2,047
664,57	1,755
664,76	1,860
664,96	1,481
665,15	1,237
665,35	1,338
665,55	0,855
665,74	1,530
665,94	1,328
666,13	1,925
666,33	0,904
666,53	1,563
666,72	1,329
666,92	1,422
667,11	1,524
667,31	1,182
667,50	1,399
667,70	1,235
667,90	1,486
668,09	1,053
668,29	1,251
668,48	1,262
668,68	1,198
668,87	1,395
669,07	1,423
669,26	1,112
669,46	1,214
669,66	1,305
669,85	1,609
670,05	0,951
670,24	1,242
670,44	1,345
670,63	1,069
670,83	1,314
671,02	1,380
671,22	1,576
671,42	1,151
671,61	1,203
671,81	1,110
672,00	1,402
672,20	0,914
672,39	0,903
672,59	0,859
672,78	1,126
672,98	0,958
673,17	1,149
673,37	0,890
673,56	1,229
673,76	0,970
673,95	0,933
674,15	0,794
674,34	1,234
674,54	1,043
674,73	1,009
674,93	1,136
675,13	0,827
675,32	0,868
675,52	1,282
675,71	0,908
675,91	0,883
676,10	0,907
676,30	0,755
676,49	0,923
676,69	0,914
676,88	0,972
677,08	0,910
677,27	0,583
677,47	0,856
677,66	1,052
677,86	0,846
678,05	1,100
678,24	0,661
678,44	0,880
678,63	0,825
678,83	0,908
679,02	0,808
679,22	0,573
679,41	0,816
679,61	0,566
679,80	0,817
680,00	0,865
680,19	0,754
680,39	0,694
680,58	0,640
680,78	0,739
680,97	0,635
681,17	0,674
681,36	0,742
681,56	0,751
681,75	0,670
681,94	0,657
682,14	0,831
682,33	0,764
682,53	1,097
682,72	0,743
682,92	0,723
683,11	0,988
683,31	0,530
683,50	0,577
683,69	0,569
683,89	0,458
684,08	0,764
684,28	0,538
684,47	0,738
684,67	0,596
684,86	0,166
685,06	0,556
685,25	0,484
685,44	0,410
685,64	0,447
685,83	0,545
686,03	0,257
686,22	0,451
686,42	0,434
686,61	0,706
686,80	0,554
687,00	0,611
687,19	0,819
687,39	0,396
687,58	0,387
687,77	0,446
687,97	0,493
688,16	0,287
688,36	0,516
688,55	0,358
688,74	0,518
688,94	0,483
689,13	0,632
689,33	0,516
689,52	0,510
689,71	0,510
689,91	0,377
690,10	0,470
690,30	0,447
690,49	0,431
690,68	0,663
690,88	0,645
691,07	0,286
691,27	0,516
691,46	0,393
691,65	0,532
691,85	0,580
692,04	0,335
692,23	0,464
692,43	0,457
692,62	0,582
692,82	0,554
693,01	0,462
693,20	0,635
693,40	0,365
693,59	0,513
693,78	0,556
693,98	0,465
694,17	0,441
694,36	0,617
694,56	0,561
694,75	0,287
694,94	0,657
695,14	0,578
695,33	0,422
695,53	0,428
695,72	0,422
695,91	0,581
696,11	0,654
696,30	0,532
696,49	0,472
696,69	0,682
696,88	0,397
697,07	0,410
697,27	0,614
697,46	0,573
697,65	0,315
697,85	0,617
698,04	0,672
698,23	0,687
698,43	0,551
698,62	0,589
698,81	0,438
699,01	1,202
699,20	0,770
699,39	0,879
699,58	1,198
699,78	1,207
699,97	1,004
700,16	1,319
700,36	0,384
700,55	0,965
700,74	0,975
700,94	1,172
701,13	1,084
701,32	1,707
701,52	1,809
701,71	1,000
701,90	1,338
702,09	1,577
702,29	1,452
702,48	1,568
702,67	1,186
702,87	1,144
703,06	1,781
703,25	1,228
703,44	1,600
703,64	2,086
703,83	2,017
704,02	1,638
704,22	1,004
704,41	2,135
704,60	2,020
704,79	1,861
704,99	2,354
705,18	1,581
705,37	1,992
705,56	1,685
705,76	2,390
705,95	2,559
706,14	2,644
706,33	2,433
706,53	1,903
706,72	2,366
706,91	3,274
707,11	2,420
707,30	3,100
707,49	3,571
707,68	1,963
707,88	2,456
708,07	2,645
708,26	3,139
708,45	3,370
708,64	3,080
708,84	4,100
709,03	3,111
709,22	1,835
709,41	3,462
709,61	3,699
709,80	3,817
709,99	3,258
710,18	4,587
710,38	3,153
710,57	1,750
710,76	3,390
710,95	2,816
711,14	6,484
711,34	4,086
711,53	4,832
711,72	4,309
711,91	3,458
712,11	5,646
712,30	5,069
712,49	4,555
712,68	5,678
712,87	4,617
713,07	6,394
713,26	5,365
713,45	6,615
713,64	5,746
713,83	4,828
714,03	6,786
714,22	6,816
714,41	4,784
714,60	4,820
714,79	2,655
714,99	5,561
715,18	3,848
715,37	5,519
715,56	5,527
715,75	5,492
715,94	6,106
716,14	4,419
716,33	5,119
716,52	4,517
716,71	5,866
716,90	6,799
717,10	5,856
717,29	6,629
717,48	10,539
717,67	5,125
717,86	6,180
718,05	4,736
718,24	8,808
718,44	7,902
718,63	6,311
718,82	8,060
719,01	5,802
719,20	6,238
719,39	5,571
719,59	4,727
719,78	6,901
719,97	6,834
720,16	8,088
720,35	7,584
720,54	6,841
720,73	7,219
720,93	8,459
721,12	3,395
721,31	9,411
721,50	8,309
721,69	5,720
721,88	9,955
722,07	9,557
722,27	7,724
722,46	7,345
722,65	4,988
722,84	8,634
723,03	5,308
723,22	9,010
723,41	9,014
723,60	11,696
723,79	9,629
723,99	8,849
724,18	10,474
724,37	7,730
724,56	9,634
724,75	10,160
724,94	13,601
725,13	13,581
725,32	9,316
725,51	11,863
725,71	8,333
725,90	13,052
726,09	15,364
726,28	12,022
726,47	10,254
726,66	10,326
726,85	10,041
727,04	10,280
727,23	10,537
727,42	13,463
727,61	8,783
727,81	14,077
728,00	13,503
728,19	10,183
728,38	8,747
728,57	16,247
728,76	16,910
728,95	15,290
729,14	4,757
729,33	15,697
729,52	14,736
729,71	12,744
729,90	7,348
730,09	8,995
730,28	16,166
730,48	12,993
730,67	12,334
730,86	9,080
731,05	12,734
731,24	12,852
731,43	13,208
731,62	15,539
731,81	10,038
732,00	13,469
732,19	12,771
732,38	6,937
732,57	14,986
732,76	19,405
732,95	10,267
733,14	8,713
733,33	9,341
733,52	18,160
733,71	12,261
733,90	17,995
734,09	10,737
734,28	20,966
734,47	8,421
734,66	17,775
734,85	17,305
735,04	14,169
735,23	17,196
735,42	18,012
735,61	20,267
735,81	17,241
736,00	15,964
736,19	16,568
736,38	14,815
736,57	22,841
736,76	9,767
736,95	13,939
737,14	25,988
737,33	22,151
737,52	15,234
737,71	12,179
737,90	16,641
738,09	17,791
738,28	15,311
738,47	12,418
738,66	16,875
738,85	15,636
739,04	21,732
739,22	19,764
739,41	25,484
739,60	12,207
739,79	15,411
739,98	10,163
740,17	20,918
740,36	20,536
740,55	23,986
740,74	19,130
740,93	16,667
741,12	24,632
741,31	17,463
741,50	20,339
741,69	10,000
741,88	10,000
742,07	23,285
742,26	13,670
742,45	12,451
742,64	30,576
742,83	12,766
743,02	19,820
743,21	24,145
743,40	21,305
743,59	18,852
743,78	33,188
743,97	29,511
744,16	23,282
744,34	22,835
744,53	22,951
744,72	26,403
744,91	15,368
745,10	27,484
745,29	19,149
745,48	11,937
745,67	23,014
745,86	18,310
746,05	24,429
746,24	31,808
746,43	29,078
746,62	16,129
746,81	23,516
747,00	22,756
747,18	40,220
747,37	19,616
747,56	19,775
747,75	22,976
747,94	33,698
748,13	32,192
748,32	28,846
748,51	30,248
748,70	28,058
748,89	31,159
749,08	19,143
749,26	23,866
749,45	33,882
749,64	15,136
749,83	20,356
750,02	23,481
750,21	22,581
750,40	25,781
750,59	29,481
750,78	30,178
750,96	27,374
751,15	27,596
751,34	33,770
751,53	31,527
751,72	32,884
751,91	33,973
752,10	29,012
752,29	32,203
752,47	26,966
752,66	32,113
752,85	23,839
753,04	30,599
753,23	14,238
753,42	32,219
753,61	25,817
753,80	32,520
753,98	36,140
754,17	34,969
754,36	29,379
754,55	28,213
754,74	37,283
754,93	26,225
755,12	38,933
755,30	37,119
755,49	37,920
755,68	36,888
755,87	34,835
756,06	40,503
756,25	27,937
756,43	22,414
756,62	37,092
756,81	29,703
757,00	43,478
757,19	43,151
757,38	34,385
757,56	39,677
757,75	40,196
757,94	35,647
758,13	19,481
758,32	35,985
758,51	38,603
758,69	26,800
758,88	42,943
759,07	25,090
759,26	34,419
759,45	35,371
759,63	48,327
759,82	35,354
760,01	41,137
760,20	34,630
760,39	46,642
760,57	35,124
760,76	37,387
760,95	34,722
761,14	37,143
761,33	34,688
761,51	35,125
761,70	42,759
761,89	43,443
762,08	51,163
762,27	48,718
762,45	43,580
762,64	28,938
762,83	46,903
763,02	38,605
763,21	31,466
763,39	42,857
763,58	35,472
763,77	35,135
763,96	54,618
764,14	47,083
764,33	46,520
764,52	54,077
764,71	38,117
764,89	44,118
765,08	32,759
765,27	53,532
765,46	22,826
765,65	39,301
765,83	51,948
766,02	50,638
766,21	54,144
766,40	34,762
766,58	68,699
766,77	51,244
766,96	53,636
767,15	55,072
767,33	29,825
767,52	78,049
767,71	75,217
767,90	46,067
768,08	47,471
768,27	37,000
768,46	65,234
768,64	62,176
768,83	38,542
769,02	65,500
769,21	54,585
769,39	56,977
769,58	47,977
769,77	72,031
769,96	73,298
770,14	48,299
770,33	52,336
770,52	47,090
770,70	48,667
770,89	57,718
771,08	53,814
771,27	91,753
771,45	59,211
771,64	59,375
771,83	68,692
772,01	58,434
772,20	70,352
772,39	67,333
772,57	61,240
772,76	71,852
772,95	63,830
773,14	74,194
773,32	50,968
773,51	66,667
773,70	71,250
773,88	79,781
774,07	46,597
774,26	35,461
774,44	34,756
774,63	73,604
774,82	69,512
775,00	81,333
775,19	52,000
775,38	27,168
775,56	54,687
775,75	60,241
775,94	60,127
776,12	37,017
776,31	58,824
776,50	67,045
776,68	78,421
776,87	55,114
777,06	66,207
777,24	92,222
777,43	77,564
777,62	75,735
777,80	91,216
777,99	71,429
778,18	68,317
778,36	99,200
778,55	61,983
778,74	75,694
778,92	72,781
779,11	82,500
779,29	42,138
779,48	69,388
779,67	48,837
779,85	76,423
780,04	69,730
780,23	67,626
780,41	48,438
780,60	39,474
780,79	95,480
780,97	76,974
781,16	59,394
781,34	97,938
781,53	82,051
781,72	89,051
781,90	95,313
782,09	72,258
782,28	80,292
782,46	37,037
782,65	76,429
782,83	135,955
783,02	151,250
783,21	97,333
783,39	104,348
783,58	63,905
783,76	70,950
783,95	67,273
784,14	71,523
784,32	83,893
784,51	75,862
784,69	105,085
784,88	121,622
785,06	72,269
785,25	105,732
785,44	97,122
785,62	101,429
785,81	116,901
785,99	134,532
786,18	113,514
786,37	59,259
786,55	50,459
786,74	55,263
786,92	84,375
787,11	81,667
787,29	53,731
787,48	74,667
787,67	106,024
787,85	112,069
788,04	65,347
788,22	93,443
788,41	121,176
788,59	121,101
788,78	90,909
788,96	114,151
789,15	128,421
789,34	111,818
789,52	84,071
789,71	81,395
789,89	163,830
790,08	82,192
790,26	101,429
790,45	91,667
790,63	101,852
790,82	76,364
791,00	70,833
791,19	103,226
791,38	87,500
791,56	108,772
791,75	94,495
791,93	104,598
792,12	76,331
792,30	104,000
792,49	89,916
792,67	82,836
792,86	82,946
793,04	116,822
793,23	98,333
793,41	122,785
793,60	127,273
793,78	147,368
793,97	166,667
794,15	98,182
794,34	142,857
794,52	120,779
794,71	158,025
794,89	98,889
795,08	92,233
795,26	86,111
795,45	150,746
795,63	124,242
795,82	143,925
796,00	102,752
796,19	88,333
796,37	143,066
796,56	152,688
796,74	112,389
796,93	113,483
797,11	130,380
797,30	90,000
797,48	116,552
797,67	109,167
797,85	85,714
798,04	120,833
798,22	118,254
798,41	120,588
798,59	106,316
798,77	141,538
798,96	95,699
799,14	111,207
799,33	112,977
799,51	80,000
799,70	104,027
799,88	154,545
800,07	99,342
800,25	79,310
800,44	123,232
800,62	138,824
800,80	115,942
800,99	149,206
801,17	70,690
801,36	85,517
801,54	158,333
801,73	98,990
801,91	109,016
802,10	125,000
802,28	135,514
802,46	130,864
802,65	127,586
802,83	168,539
803,02	82,105
803,20	91,406
803,39	36,207
803,57	126,506
803,75	69,595
803,94	90,756
804,12	78,333
804,31	84,956
804,49	105,769
804,67	112,000
804,86	88,393
805,04	105,405
805,23	104,138
805,41	78,689
805,59	75,410
805,78	91,667
805,96	102,564
806,15	104,687
806,33	121,849
806,51	100,885
806,70	190,000
806,88	72,358
807,07	65,079
807,25	76,730
807,43	80,132
807,62	94,309
807,80	141,935
807,99	107,937
808,17	93,617
808,35	83,333
808,54	126,882
808,72	60,800
808,90	96,053
809,09	101,667
809,27	115,315
809,46	139,286
809,64	83,333
809,82	86,207
810,01	100,758
810,19	104,000
810,37	83,077
810,56	124,390
810,74	68,874
810,92	100,000
811,11	172,549
811,29	101,418
811,48	93,939
811,66	114,729
811,84	122,936
812,03	74,545
812,21	91,026
812,39	113,559
812,58	107,843
812,76	105,607
812,94	116,000
813,13	81,746
813,31	92,500
813,49	141,304
813,68	105,217
813,86	134,694
814,04	121,359
814,23	153,535
814,41	114,706
814,59	114,689
814,78	77,941
814,96	84,685
815,14	91,111
815,33	100,725
815,51	100,741
815,69	96,296
815,87	90,435
816,06	104,375
816,24	80,795
816,42	58,333
816,61	96,610
816,79	118,072
816,97	89,189
817,16	76,774
817,34	70,345
817,52	90,345
817,70	132,540
817,89	95,868
818,07	80,172
818,25	90,090
818,44	77,326
818,62	131,034
818,80	102,797
818,98	134,286
819,17	106,923
819,35	85,882
819,53	126,733
819,72	57,558
819,90	86,826
820,08	77,273
820,26	120,175
820,45	76,506
820,63	88,542
820,81	75,168
820,99	93,985
821,18	64,444
821,36	91,905
821,54	77,907
821,73	89,730
821,91	74,468
822,09	83,529
822,27	64,467
822,46	68,750
822,64	101,325
822,82	77,561
823,00	77,477
823,19	94,697
823,37	106,429
823,55	83,529
823,73	77,333
823,91	56,354
824,10	79,330
824,28	80,741
824,46	62,209
824,64	72,059
824,83	64,228
825,01	71,739
825,19	80,000
825,37	84,896
825,56	78,125
825,74	69,048
825,92	71,348
826,10	73,292
826,28	89,262
826,47	29,268
826,65	78,378
826,83	55,914
827,01	57,576
827,19	93,038
827,38	69,948
827,56	87,500
827,74	63,415
827,92	77,561
828,10	65,217
828,29	67,619
828,47	65,351
828,65	47,568
828,83	69,697
829,01	85,333
829,20	83,544
829,38	56,846
829,56	74,899
829,74	93,939
829,92	60,825
830,10	67,568
830,29	74,054
830,47	77,083
830,65	46,875
830,83	76,000
831,01	38,750
831,20	50,495
831,38	54,634
831,56	56,680
831,74	73,143
831,92	55,114
832,10	61,818
832,29	58,294
832,47	42,478
832,65	70,213
832,83	44,186
833,01	54,545
833,19	62,896
833,37	54,444
833,56	63,380
833,74	62,348
833,92	53,540
834,10	62,437
834,28	50,000
834,46	63,668
834,64	60,938
834,83	51,877
835,01	67,704
835,19	52,607
835,37	49,402
835,55	51,625
835,73	49,632
835,91	60,618
836,09	39,834
836,28	51,908
836,46	47,018
836,64	52,049
836,82	34,701
837,00	59,524
837,18	53,755
837,36	40,107
837,54	31,439
837,72	48,606
837,91	32,932
838,09	47,200
838,27	50,549
838,45	36,570
838,63	37,288
838,81	63,158
838,99	48,432
839,17	48,544
839,35	35,185
839,53	45,973
839,72	39,831
839,90	24,316
840,08	44,872
840,26	37,539
840,44	22,531
840,62	30,640
840,80	39,198
840,98	47,130
841,16	21,352
841,34	32,174
841,52	38,019
841,70	25,589
841,89	35,806
842,07	34,054
842,25	34,740
842,43	34,839
842,61	36,997
842,79	32,317
842,97	25,915
843,15	50,430
843,33	33,729
843,51	39,141
843,69	26,944
843,87	31,536
844,05	33,423
844,23	35,946
844,41	27,889
844,59	28,125
844,77	20,461
844,95	35,680
845,13	31,694
845,31	30,726
845,50	29,897
845,68	38,083
845,86	35,849
846,04	28,148
846,22	29,117
846,40	26,509
846,58	18,499
846,76	35,910
846,94	22,837
847,12	26,777
847,30	33,641
847,48	27,578
847,66	18,049
847,84	23,096
848,02	28,690
848,20	34,879
848,38	22,479
848,56	26,667
848,74	32,645
848,92	22,129
849,10	35,938
849,28	25,490
849,46	28,738
849,64	23,571
849,82	18,269
850,00	18,891
850,18	29,561
850,36	25,000
850,54	24,888
850,72	32,017
850,90	30,900
851,08	15,432
851,26	36,437
851,44	28,514
851,62	23,620
851,80	18,887
851,98	25,720
852,16	30,247
852,34	32,827
852,52	21,670
852,70	17,470
852,87	23,048
853,05	25,651
853,23	25,294
853,41	21,677
853,59	18,679
853,77	28,373
853,95	20,127
854,13	21,553
854,31	27,051
854,49	16,032
854,67	27,820
854,85	25,565
855,03	20,690
855,21	24,704
855,39	19,966
855,57	25,362
855,75	21,585
855,93	18,021
856,11	21,850
856,28	22,222
856,46	16,503
856,64	22,977
856,82	17,103
857,00	26,644
857,18	22,066
857,36	26,891
857,54	24,493
857,72	24,207
857,90	15,157
858,08	14,506
858,26	19,113
858,44	17,547
858,61	17,678
858,79	27,907
858,97	20,344
859,15	15,068
859,33	14,417
859,51	16,134
859,69	17,262
859,87	21,376
860,05	18,689
860,23	16,061
860,40	19,969
860,58	16,236
860,76	20,339
860,94	16,336
861,12	16,856
861,30	19,973
861,48	19,263
861,66	15,453
861,84	21,788
862,01	18,048
862,19	20,054
862,37	10,787
862,55	12,953
862,73	19,022
862,91	16,401
863,09	8,843
863,27	9,889
863,44	18,013
863,62	14,165
863,80	15,080
863,98	11,750
864,16	16,769
864,34	13,117
864,52	17,312
864,69	21,566
864,87	15,495
865,05	11,840
865,23	14,614
865,41	16,687
865,59	16,316
865,76	13,307
865,94	18,822
866,12	11,212
866,30	15,337
866,48	16,584
866,66	17,462
866,83	15,864
867,01	14,371
867,19	13,326
867,37	9,484
867,55	16,795
867,73	14,351
867,90	14,976
868,08	18,519
868,26	11,060
868,44	9,979
868,62	14,734
868,79	11,472
868,97	15,032
869,15	13,376
869,33	11,246
869,51	10,297
869,69	7,821
869,86	15,795
870,04	13,016
870,22	11,030
870,40	12,525
870,57	19,000
870,75	12,548
870,93	9,261
871,11	11,495
871,29	10,264
871,46	11,178
871,64	12,166
871,82	9,073
872,00	13,254
872,18	15,828
872,35	15,152
872,53	11,342
872,71	6,737
872,89	7,414
873,06	11,162
873,24	11,765
873,42	6,900
873,60	5,693
873,77	10,498
873,95	8,258
874,13	10,733
874,31	12,834
874,49	12,816
874,66	7,818
874,84	7,726
875,02	10,496
875,20	9,752
875,37	7,070
875,55	8,467
875,73	8,973
875,91	8,359
876,08	5,175
876,26	7,327
876,44	9,984
876,61	10,534
876,79	8,879
876,97	10,919
877,15	11,450
877,32	7,402
877,50	7,945
877,68	11,138
877,86	8,301
878,03	10,744
878,21	7,596
878,39	7,926
878,56	9,071
878,74	4,989
878,92	10,089
879,10	6,953
879,27	9,223
879,45	9,578
879,63	6,091
879,80	8,022
879,98	6,904
880,16	10,061
880,34	5,469
880,51	9,701
880,69	7,560
880,87	6,598
881,04	5,932
881,22	6,851
881,40	5,788
881,57	5,571
881,75	7,589
881,93	6,261
882,10	9,353
882,28	8,214
882,46	6,304
882,63	8,291
882,81	7,644
882,99	6,355
883,16	8,076
883,34	5,764
883,52	6,552
883,69	8,156
883,87	10,206
884,05	3,723
884,22	5,737
884,40	6,635
884,58	5,084
884,75	6,468
884,93	6,859
885,11	4,951
885,28	7,334
885,46	6,637
885,64	6,649
885,81	6,642
885,99	6,510
886,17	5,818
886,34	7,813
886,52	4,868
886,70	5,969
886,87	5,800
887,05	4,624
887,22	4,716
887,40	7,248
887,58	6,915
887,75	6,830
887,93	7,113
888,11	3,559
888,28	4,505
888,46	2,966
888,63	6,751
888,81	5,090
888,99	2,417
889,16	4,565
889,34	6,481
889,51	5,908
889,69	4,184
889,87	4,934
890,04	2,870
890,22	5,703
890,39	3,052
890,57	6,502
890,75	7,183
890,92	5,261
891,10	5,380
891,27	5,589
891,45	5,250
891,63	5,941
891,80	4,528
891,98	6,227
892,15	5,118
892,33	4,486
892,51	4,493
892,68	5,153
892,86	5,441
893,03	5,106
893,21	3,819
893,38	5,010
893,56	5,035
893,74	4,699
893,91	5,321
894,09	4,771
894,26	5,251
894,44	4,877
894,61	5,356
894,79	4,048
894,96	4,071
895,14	4,903
895,32	5,168
895,49	4,690
895,67	4,438
895,84	5,091
896,02	5,275
896,19	4,333
896,37	5,425
896,54	3,940
896,72	3,906
896,89	5,570
897,07	3,708
897,25	5,368
897,42	4,018
897,60	5,903
897,77	5,948
897,95	5,701
898,12	4,069
898,30	3,902
898,47	3,989
898,65	2,744
898,82	3,638
899,00	3,489
899,17	4,019
899,35	3,643
899,52	4,193
899,70	3,596
899,87	3,767
900,05	4,527
900,22	3,230
900,40	3,405
900,57	4,016
900,75	2,112
900,92	3,905
901,10	5,587
901,27	3,342
901,45	5,946
901,62	4,706
901,80	2,932
901,97	3,340
902,15	5,781
902,32	3,780
902,50	4,786
902,67	3,183
902,85	3,880
903,02	4,805
903,20	4,583
903,37	4,107
903,54	5,496
903,72	3,554
903,89	4,647
904,07	4,532
904,24	3,639
904,42	3,328
904,59	3,295
904,77	3,376
904,94	3,505
905,12	3,132
905,29	4,789
905,47	4,299
905,64	4,945
905,81	4,228
905,99	3,611
906,16	4,352
906,34	3,683
906,51	4,787
906,69	2,515
906,86	4,925
907,03	4,888
907,21	3,115
907,38	4,023
907,56	3,405
907,73	5,161
907,91	4,608
908,08	3,082
908,25	2,682
908,43	3,135
908,60	3,183
908,78	4,314
908,95	4,076
909,13	4,326
909,30	1,763
909,47	4,583
909,65	4,342
909,82	3,822
910,00	4,695
910,17	3,081
910,34	3,867
910,52	2,981
910,69	4,220
910,87	4,376
911,04	3,389
911,21	4,048
911,39	3,485
911,56	3,641
911,73	3,817
911,91	4,302
912,08	3,955
912,26	3,210
912,43	3,584
912,60	4,075
912,78	3,580
912,95	3,979
913,13	3,346
913,30	3,086
913,47	3,793
913,65	1,999
913,82	3,346
913,99	2,206
914,17	3,344
914,34	4,044
914,51	3,985
914,69	3,313
914,86	4,239
915,03	3,142
915,21	2,557
915,38	2,597
915,56	3,228
915,73	2,595
915,90	3,101
916,08	2,927
916,25	2,067
916,42	2,896
916,60	2,909
916,77	2,529
916,94	2,172
917,12	3,283
917,29	3,621
917,46	2,961
917,64	2,930
917,81	3,385
917,98	2,355
918,16	2,659
918,33	3,202
918,50	2,456
918,67	2,596
918,85	2,557
919,02	2,991
919,19	2,908
919,37	3,045
919,54	3,041
919,71	2,806
919,89	2,404
920,06	2,887
920,23	2,972
920,41	2,951
920,58	2,716
920,75	3,711
920,92	1,704
921,10	2,442
921,27	1,645
921,44	3,244
921,62	1,379
921,79	2,996
921,96	2,566
922,13	3,306
922,31	2,023
922,48	3,255
922,65	1,771
922,82	2,465
923,00	3,177
923,17	2,522
923,34	1,762
923,52	1,761
923,69	2,732
923,86	1,832
924,03	2,486
924,21	2,348
924,38	2,934
924,55	3,275
924,72	3,724
924,90	2,526
925,07	3,414
925,24	2,819
925,41	2,452
925,59	3,153
925,76	2,482
925,93	3,011
926,10	2,450
926,28	3,102
926,45	2,287
926,62	3,174
926,79	2,927
926,96	2,683
927,14	2,410
927,31	2,197
927,48	2,368
927,65	2,308
927,83	1,912
928,00	2,425
928,17	2,192
928,34	2,740
928,51	1,897
928,69	2,341
928,86	1,789
929,03	3,649
929,20	2,452
929,37	2,964
929,55	2,306
929,72	2,017
929,89	1,917
930,06	2,617
930,23	1,968
930,41	2,086
930,58	2,654
930,75	2,447
930,92	1,886
931,09	1,777
931,27	2,777
931,44	1,774
931,61	2,075
931,78	1,671
931,95	2,394
932,12	1,810
932,30	1,649
932,47	2,717
932,64	2,554
932,81	2,695
932,98	2,274
933,16	2,315
933,33	2,347
933,50	1,964
933,67	2,817
933,84	1,120
934,01	1,816
934,18	2,383
934,36	1,837
934,53	1,166
934,70	2,391
934,87	2,353
935,04	2,704
935,21	1,883
935,38	1,838
935,56	1,531
935,73	2,126
935,90	0,313
936,07	2,122
936,24	2,711
936,41	1,937
936,58	1,029
936,76	2,303
936,93	1,049
937,10	1,695
937,27	2,015
937,44	2,354
937,61	2,810
937,78	1,581
937,95	1,435
938,13	1,683
938,30	2,017
938,47	2,521
938,64	2,151
938,81	1,964
938,98	1,511
939,15	2,055
939,32	1,691
939,49	2,929
939,66	2,635
939,84	2,871
940,01	2,398
940,18	2,533
940,35	1,130
940,52	1,097
940,69	3,355
940,86	1,491
941,03	1,745
941,20	2,036
941,37	2,823
941,54	1,462
941,71	0,871
941,89	1,806
942,06	1,390
942,23	2,701
942,40	2,042
942,57	1,869
942,74	2,012
942,91	1,757
943,08	2,705
943,25	1,473
943,42	2,859
943,59	2,048
943,76	3,122
943,93	1,932
944,10	1,652
944,27	2,122
944,44	2,187
944,61	1,639
944,79	1,701
944,96	3,227
945,13	2,400
945,30	1,301
945,47	2,548
945,64	2,745
945,81	3,503
945,98	3,094
946,15	3,069
946,32	2,614
946,49	3,145
946,66	1,946
946,83	3,374
947,00	2,120
947,17	2,159
947,34	3,112
947,51	2,314
947,68	3,613
947,85	3,329
948,02	3,212
948,19	4,482
948,36	3,219
948,53	3,673
948,70	3,301
948,87	3,910
949,04	3,388
949,21	2,660
949,38	3,715
949,55	2,483
949,72	2,460
949,89	3,555
950,06	2,652
950,23	3,494
950,40	3,594
950,57	1,457
950,74	4,456
950,91	2,991
951,08	2,912
951,25	3,937
951,42	4,989
951,59	3,097
951,76	3,864
951,93	4,745
952,10	2,105
952,27	3,428
952,44	3,079
952,61	4,702
952,77	4,815
952,94	4,348
953,11	4,367
953,28	5,212
953,45	6,773
953,62	5,639
953,79	3,443
953,96	5,845
954,13	5,329
954,30	5,651
954,47	6,213
954,64	4,045
954,81	5,056
954,98	7,701
955,15	4,919
955,32	6,671
955,49	7,161
955,65	7,428
955,82	5,729
955,99	7,487
956,16	9,593
956,33	5,718
956,50	7,478
956,67	9,034
956,84	8,741
957,01	6,474
957,18	11,738
957,35	9,006
957,52	8,305
957,68	9,833
957,85	11,149
958,02	6,115
958,19	12,707
958,36	12,677
958,53	10,323
958,70	8,326
958,87	9,883
959,04	14,781
959,21	12,929
959,37	12,662
959,54	15,987
959,71	9,947
959,88	12,075
960,05	13,576
960,22	8,047
960,39	9,333
960,56	11,392
960,72	14,555
960,89	17,237
961,06	13,248
961,23	14,410
961,40	11,544
961,57	15,835
961,74	12,184
961,90	16,875
962,07	15,373
962,24	21,626
962,41	14,070
962,58	23,064
962,75	19,292
962,92	19,626
963,08	20,000
963,25	21,982
963,42	20,290
963,59	20,248
963,76	30,562
963,93	19,680
964,10	21,199
964,26	28,289
964,43	30,749
964,60	26,166
964,77	25,060
964,94	25,852
965,10	28,571
965,27	30,809
965,44	37,403
965,61	31,129
965,78	33,546
965,95	42,216
966,11	39,938
966,28	25,279
966,45	32,710
966,62	49,231
966,79	51,020
966,95	28,955
967,12	38,801
967,29	34,375
967,46	32,576
967,63	27,547
967,79	73,423
967,96	56,277
968,13	43,500
968,30	50,806
968,47	40,550
968,63	64,414
968,80	55,505
968,97	57,692
969,14	47,674
969,31	35,556
969,47	62,353
969,64	68,687
969,81	50,259
969,98	80,220
970,14	84,049
970,31	67,925
970,48	49,167
970,65	63,905
970,81	80,822
970,98	108,029
971,15	109,184
971,32	59,375
971,48	93,197
971,65	63,846
971,82	127,451
971,99	86,207
972,15	100,704
972,32	109,009
972,49	108,392
972,66	143,636
972,82	129,070
972,99	120,325
973,16	152,874
973,33	120,536
973,49	92,632
973,66	132,258
973,83	100,971
974,00	116,279
974,16	103,922
974,33	130,702
974,50	100,000
974,67	149,474
974,83	109,524
975,00	122,105
975,17	138,462
975,33	161,798
975,50	164,179
975,67	222,449
975,84	200,000
976,00	119,101
976,17	157,377
976,34	75,000
976,50	153,933
976,67	122,330
976,84	1800,000
977,00	204,082
977,17	226,667
977,34	157,143
977,50	131,343
977,67	285,714
977,84	219,355
978,01	163,830
978,17	611,111
978,34	288,889
978,51	402,941
978,67	173,684
978,84	107,812
979,01	435,135
979,17	228,205
979,34	131,507
979,51	230,612
979,67	167,901
979,84	238,776
980,01	217,778
980,17	238,028
980,34	481,481
980,51	230,435
980,67	110,588
980,84	450,000
981,01	480,000
981,17	648,000
981,34	1033,333
981,50	225,000
981,67	228,814
981,84	6600,000
982,00	433,333
982,17	245,238
982,34	155,556
982,50	866,667
982,67	171,875
982,84	2360,000
983,00	1700,000
983,17	217,910
983,33	222,414
983,50	1420,000
983,67	-310,345
983,83	381,818
984,00	-1471,429
984,17	688,889
984,33	-5700,000
984,50	431,429
984,66	245,652
984,83	212,987
985,00	-441,667
985,16	410,345
985,33	958,824
985,49	616,667
985,66	408,824
985,83	395,652
985,99	456,410
986,16	-2350,000
986,32	921,429
986,49	6100,000
986,66	433,333
986,82	850,000
986,99	366,038
987,15	-463,158
987,32	-507,143
987,49	286,000
987,65	7700,000
987,82	391,667
987,98	261,224
988,15	516,667
988,31	850,000
988,48	-1866,667
988,65	371,429
988,81	372,222
988,98	321,951
989,14	335,714
989,31	680,952
989,47	317,647
989,64	-969,231
989,80	725,000
989,97	291,892
990,14	-263,043
990,30	-450,000
990,47	375,510
990,63	405,556
990,80	286,000
990,96	-570,000
991,13	421,875
991,29	568,966
991,46	0,000
991,62	-853,846
991,79	1008,333
991,95	12000,000
992,12	-1510,000
992,29	-931,250
992,45	176,471
992,62	283,721
992,78	313,636
992,95	-753,333
993,11	582,143
993,28	1210,000
993,44	-1280,000
993,61	-837,500
993,77	-2900,000
993,94	-4966,667
994,10	-140,000
994,27	1068,421
994,43	400,000
994,60	0,000
994,76	3650,000
994,93	575,000
995,09	-594,118
995,26	966,667
995,42	258,824
995,59	700,000
995,75	930,769
995,92	1814,286
996,08	433,333
996,25	-1250,000
996,41	-6950,000
996,58	840,000
996,74	318,182
996,91	568,966
997,07	0,000
997,23	13500,000
997,40	-15400,000
997,56	-1023,077
997,73	-1662,500
997,89	434,211
998,06	992,308
998,22	-583,333
998,39	660,000
998,55	1333,333
998,72	-1837,500
998,88	-323,333
999,05	-187,179
999,21	295,238
999,37	-873,333
999,54	-1175,000
999,70	-323,333
999,87	943,750
1000,03	315,385
1000,20	275,000
1000,36	0,000
1000,52	466,667
1000,69	-566,667
1000,85	-1530,000
1001,02	-529,167
1001,18	2400,000
1001,35	623,077
1001,51	729,412
1001,67	-815,385
1001,84	-2580,000
1002,00	335,135
1002,17	1254,545
1002,33	-3075,000
1002,50	552,381
1002,66	-938,462
1002,82	337,500
1002,99	800,000
1003,15	-1485,714
1003,32	-1045,455
1003,48	328,571
1003,64	933,333
1003,81	581,481
1003,97	-4150,000
1004,14	936,364
1004,30	336,667
1004,46	-726,667
1004,63	1064,286
1004,79	400,000
1004,95	1033,333
1005,12	4850,000
1005,28	575,862
1005,45	427,027
1005,61	500,000
1005,77	-279,167
1005,94	-576,190
1006,10	-4400,000
1006,26	1000,000
1006,43	-226,923
1006,59	-1309,091
1006,76	992,857
1006,92	1955,556
1007,08	10700,000
1007,25	-300,000
1007,41	455,172
1007,57	4850,000
1007,74	1120,000
1007,90	-558,621
1008,06	215,217
1008,23	1011,765
1008,39	-550,000
1008,55	-446,154
1008,72	-1157,143
1008,88	0,000
1009,04	370,732
1009,21	-231,579
1009,37	-941,667
1009,53	238,095
1009,70	2833,333
1009,86	-771,429
1010,02	3733,333
1010,19	936,364
1010,35	276,471
1010,51	-5000,000
1010,68	-1850,000
1010,84	-197,727
1011,00	806,250
1011,17	-363,636
1011,33	0,000
1011,49	-1000,000
1011,66	735,714
1011,82	551,613
1011,98	700,000
1012,14	-763,636
1012,31	443,590
1012,47	0,000
1012,63	2400,000
1012,80	757,143
1012,96	-981,250
1013,12	-2250,000
1013,29	488,889
1013,45	412,195
1013,61	4766,667
1013,77	-155,357
1013,94	3400,000
1014,10	213,559
1014,26	-3150,000
1014,43	-460,000
1014,59	540,000
1014,75	-505,556
1014,91	-733,333
1015,08	461,111
1015,24	9800,000
1015,40	776,471
1015,56	-12100,000
1015,73	319,048
1015,89	990,909
1016,05	3450,000
1016,21	-1125,000
1016,38	878,947
1016,54	1330,769
1016,70	-3566,667
1016,86	415,625
1017,03	656,250
1017,19	-792,308
1017,35	-705,882
1017,51	-2020,000
1017,68	-930,000
1017,84	-1785,714
1018,00	247,619
1018,16	357,692
1018,33	-1128,571
1018,49	-775,000
1018,65	-227,027
1018,81	315,385
1018,97	-1342,857
1019,14	-3033,333
1019,30	-320,513
1019,46	0,000
1019,62	-729,412
1019,79	-3933,333
1019,95	1400,000
1020,11	5550,000
1020,27	-433,333
1020,43	-434,615
1020,60	2383,333
1020,76	944,444
1020,92	646,667
1021,08	620,000
1021,24	1320,000
1021,41	1222,222
1021,57	1637,500
1021,73	1100,000
1021,89	2900,000
1022,05	-378,571
1022,21	745,000
1022,38	-908,333
1022,54	-1900,000
1022,70	357,778
1022,86	-1525,000
1023,02	604,167
1023,19	2220,000
1023,35	4366,667
1023,51	558,333
1023,67	466,667
1023,83	-768,750
1023,99	384,211
1024,16	-300,000
1024,32	-1655,556
1024,48	-1220,000
1024,64	442,857
1024,80	539,130
1024,96	384,615
1025,12	609,524
1025,29	438,095
1025,45	244,737
1025,61	777,778
1025,77	-2940,000
1025,93	-6900,000
1026,09	-1685,714
1026,26	925,000
1026,42	531,250
1026,58	475,758
1026,74	1750,000
1026,90	528,000
1027,06	364,286
1027,22	1264,286
1027,38	319,231
1027,55	3400,000
1027,71	1433,333
1027,87	-356,000
1028,03	1260,000
1028,19	378,125
1028,35	515,000
1028,51	1760,000
1028,67	1166,667
1028,83	-3475,000
1029,00	-357,143
1029,16	1550,000
1029,32	-307,143
1029,48	257,778
1029,64	400,000
1029,80	4500,000
1029,96	1146,667
1030,12	708,696
1030,28	-2533,333
1030,44	-823,077
1030,61	-533,333
1030,77	-282,857
1030,93	-966,667
1031,09	1316,667
1031,25	-10100,000
1031,41	-396,667
1031,57	457,692
1031,73	750,000
1031,89	-1009,091
1032,05	-381,481
1032,21	1072,727
1032,37	-194,444
1032,53	-892,857
1032,69	-437,500
1032,86	429,630
1033,02	-262,500
1033,18	-750,000
1033,34	621,053
1033,50	-5100,000
1033,66	-307,317
1033,82	669,565
1033,98	-492,593
1034,14	210,256
1034,30	435,484
1034,46	-3633,333
1034,62	515,000
1034,78	-542,857
1034,94	284,211
1035,10	-823,077
1035,26	-262,791
1035,42	-303,448
1035,58	-577,778
1035,74	991,667
1035,90	-1084,615
1036,06	-983,333
1036,22	1833,333
1036,38	-770,588
1036,54	-420,833
1036,70	-224,242
1036,86	9700,000
1037,02	633,333
1037,18	694,737
1037,34	153,333
1037,50	-126,829
1037,66	-364,706
1037,82	2760,000
1037,98	-481,481
1038,14	-324,000
1038,30	-1375,000
1038,46	-735,714
1038,62	560,870
1038,78	-3366,667
1038,94	-515,789
1039,10	559,091
1039,26	407,407
1039,42	-683,333
1039,58	1357,143
1039,74	-610,526
1039,90	418,750
1040,06	-334,615
>>>>>End Processed Spectral Data<<<<<
