SpectraSuite Data File
++++++++++++++++++++++++++++++++++++
Date: Wed Feb 01 16:29:01 EET 2017
User: optolab
Dark Spectrum Present: Yes
Reference Spectrum Present: Yes
Number of Sampled Component Spectra: 1
Spectrometers: USB4C02475
Integration Time (usec): 100000 (USB4C02475)
Spectra Averaged: 1 (USB4C02475)
Boxcar Smoothing: 0 (USB4C02475)
Correct for Electrical Dark: No (USB4C02475)
Strobe/Lamp Enabled: No (USB4C02475)
Correct for Detector Non-linearity: No (USB4C02475)
Correct for Stray Light: No (USB4C02475)
Number of Pixels in Processed Spectrum: 3648
>>>>>Begin Processed Spectral Data<<<<<
344,91	4750,000
345,13	4750,000
345,35	4750,000
345,57	0,000
345,79	315,789
346,00	-1322,222
346,22	-2057,143
346,44	411,765
346,66	-662,500
346,87	-14500,000
347,09	493,939
347,31	-327,273
347,53	-328,205
347,74	278,462
347,96	539,394
348,18	794,737
348,40	348,387
348,61	847,059
348,83	419,048
349,05	323,529
349,27	-4950,000
349,48	684,615
349,70	-362,069
349,92	432,258
350,14	318,868
350,35	312,000
350,57	2525,000
350,79	488,000
351,01	-852,381
351,22	301,852
351,44	907,692
351,66	-440,000
351,87	-709,524
352,09	294,231
352,31	277,049
352,53	276,563
352,74	500,000
352,96	254,545
353,18	784,211
353,40	528,000
353,61	311,111
353,83	455,882
354,05	854,545
354,26	2266,667
354,48	306,000
354,70	400,000
354,92	-289,655
355,13	237,374
355,35	334,091
355,57	658,333
355,78	234,940
356,00	-4050,000
356,22	423,077
356,44	7800,000
356,65	354,545
356,87	638,462
357,09	775,000
357,30	315,556
357,52	298,276
357,74	760,000
357,95	312,821
358,17	214,754
358,39	246,774
358,60	427,027
358,82	404,167
359,04	507,407
359,26	482,857
359,47	9000,000
359,69	392,500
359,91	469,697
360,12	538,095
360,34	754,167
360,56	-129,630
360,77	2975,000
360,99	571,429
361,21	340,000
361,42	4750,000
361,64	293,878
361,86	238,462
362,07	-722,581
362,29	220,000
362,51	-623,529
362,72	716,000
362,94	388,235
363,16	272,093
363,37	-764,286
363,59	523,077
363,81	377,273
364,02	783,333
364,24	645,833
364,46	3500,000
364,67	790,909
364,89	2171,429
365,11	190,000
365,32	531,034
365,54	294,444
365,76	351,020
365,97	423,529
366,19	246,552
366,41	677,273
366,62	537,037
366,84	295,349
367,05	324,490
367,27	1783,333
367,49	-900,000
367,70	682,353
367,92	181,967
368,14	356,250
368,35	-10600,000
368,57	668,000
368,79	534,483
369,00	397,826
369,22	-1625,000
369,43	229,412
369,65	306,452
369,87	500,000
370,08	179,518
370,30	273,214
370,51	263,934
370,73	280,000
370,95	288,710
371,16	211,905
371,38	406,667
371,60	1362,500
371,81	182,812
372,03	1026,667
372,24	556,667
372,46	243,396
372,68	172,857
372,89	475,758
373,11	450,000
373,32	390,909
373,54	-1053,846
373,76	1215,385
373,97	800,000
374,19	786,364
374,40	309,375
374,62	-3066,667
374,84	4800,000
375,05	553,571
375,27	354,000
375,48	-12400,000
375,70	152,000
375,92	241,071
376,13	468,750
376,35	234,247
376,56	1200,000
376,78	269,444
376,99	489,286
377,21	300,000
377,43	231,818
377,64	189,855
377,86	389,655
378,07	412,821
378,29	-1662,500
378,51	567,742
378,72	304,167
378,94	-1511,111
379,15	369,697
379,37	817,647
379,58	340,000
379,80	633,333
380,01	868,750
380,23	262,745
380,45	2140,000
380,66	4366,667
380,88	288,636
381,09	275,714
381,31	144,444
381,52	305,882
381,74	1466,667
381,95	804,545
382,17	550,000
382,39	747,619
382,60	289,796
382,82	412,821
383,03	384,615
383,25	454,839
383,46	300,000
383,68	511,111
383,89	560,000
384,11	283,871
384,32	-3766,667
384,54	450,000
384,76	-4033,333
384,97	372,727
385,19	537,931
385,40	278,431
385,62	243,860
385,83	364,286
386,05	307,843
386,26	374,000
386,48	189,655
386,69	220,833
386,91	520,000
387,12	269,492
387,34	227,586
387,55	254,839
387,77	421,875
387,98	496,154
388,20	241,304
388,41	441,176
388,63	12300,000
388,84	229,508
389,06	369,048
389,27	894,737
389,49	394,444
389,70	367,347
389,92	253,333
390,13	246,939
390,35	274,510
390,56	259,259
390,78	574,074
390,99	1070,000
391,21	652,632
391,42	388,889
391,64	419,512
391,85	262,069
392,07	222,727
392,28	132,000
392,50	333,333
392,71	-1362,500
392,93	244,231
393,14	419,444
393,36	336,735
393,57	135,338
393,79	1011,111
394,00	227,660
394,22	206,849
394,43	181,928
394,65	330,233
394,86	1662,500
395,08	700,000
395,29	201,887
395,50	615,385
395,72	822,222
395,93	1019,048
396,15	201,408
396,36	191,176
396,58	265,000
396,79	267,500
397,01	284,000
397,22	322,222
397,44	234,848
397,65	303,509
397,87	319,048
398,08	351,020
398,29	403,125
398,51	294,643
398,72	248,780
398,94	223,077
399,15	357,143
399,37	170,175
399,58	150,549
399,80	704,545
400,01	209,259
400,22	471,429
400,44	241,975
400,65	464,286
400,87	238,235
401,08	161,429
401,30	300,000
401,51	284,211
401,72	238,462
401,94	184,810
402,15	680,000
402,37	173,109
402,58	672,222
402,80	251,429
403,01	225,352
403,22	1300,000
403,44	266,667
403,65	151,786
403,87	185,714
404,08	515,385
404,30	162,353
404,51	-2300,000
404,72	208,571
404,94	164,706
405,15	192,000
405,37	178,481
405,58	180,000
405,79	189,024
406,01	375,610
406,22	251,724
406,44	251,064
406,65	224,561
406,86	137,500
407,08	115,190
407,29	138,835
407,51	174,390
407,72	170,370
407,93	178,261
408,15	100,855
408,36	258,140
408,58	152,577
408,79	82,500
409,00	228,125
409,22	188,889
409,43	194,937
409,64	66,460
409,86	88,679
410,07	93,846
410,29	80,597
410,50	92,908
410,71	108,929
410,93	79,618
411,14	151,938
411,35	89,881
411,57	92,105
411,78	97,656
412,00	82,803
412,21	100,000
412,42	61,376
412,64	46,781
412,85	67,526
413,06	81,098
413,28	45,045
413,49	74,882
413,70	67,754
413,92	74,308
414,13	26,971
414,34	50,192
414,56	50,350
414,77	54,852
414,98	41,946
415,20	49,827
415,41	39,943
415,63	35,572
415,84	45,556
416,05	30,220
416,27	35,659
416,48	35,674
416,69	43,363
416,91	25,135
417,12	37,166
417,33	31,158
417,55	25,956
417,76	40,041
417,97	16,390
418,19	19,483
418,40	25,106
418,61	26,111
418,83	20,000
419,04	23,817
419,25	17,757
419,46	18,647
419,68	23,968
419,89	17,288
420,10	21,769
420,32	17,186
420,53	19,772
420,74	20,966
420,96	9,375
421,17	14,896
421,38	15,778
421,60	11,810
421,81	10,706
422,02	13,271
422,23	10,047
422,45	12,052
422,66	13,317
422,87	13,165
423,09	13,423
423,30	11,707
423,51	13,307
423,73	10,653
423,94	11,275
424,15	8,571
424,36	11,322
424,58	10,063
424,79	11,743
425,00	9,164
425,22	7,470
425,43	5,234
425,64	7,903
425,85	7,291
426,07	8,139
426,28	6,330
426,49	8,189
426,71	5,039
426,92	4,646
427,13	5,451
427,34	2,919
427,56	5,040
427,77	5,493
427,98	7,606
428,19	4,654
428,41	6,684
428,62	5,987
428,83	5,492
429,04	6,071
429,26	6,126
429,47	5,545
429,68	3,681
429,89	3,693
430,11	5,790
430,32	4,723
430,53	4,481
430,74	4,139
430,96	4,809
431,17	4,333
431,38	5,262
431,59	3,067
431,81	4,190
432,02	4,153
432,23	4,180
432,44	4,326
432,66	4,592
432,87	3,980
433,08	3,657
433,29	4,331
433,51	3,148
433,72	4,403
433,93	2,536
434,14	4,891
434,35	4,597
434,57	4,884
434,78	4,739
434,99	7,498
435,20	8,833
435,42	9,687
435,63	12,240
435,84	14,235
436,05	17,786
436,26	20,667
436,48	23,850
436,69	27,237
436,90	29,886
437,11	32,865
437,32	35,383
437,54	39,323
437,75	41,336
437,96	42,402
438,17	43,124
438,38	45,613
438,60	46,074
438,81	46,646
439,02	47,392
439,23	47,143
439,44	46,698
439,66	48,320
439,87	47,617
440,08	47,100
440,29	47,022
440,50	47,125
440,72	47,298
440,93	46,303
441,14	47,971
441,35	47,927
441,56	47,991
441,77	48,889
441,99	50,405
442,20	52,775
442,41	54,510
442,62	60,306
442,83	63,627
443,04	69,521
443,26	73,284
443,47	78,460
443,68	80,558
443,89	82,726
444,10	84,101
444,31	86,045
444,53	86,435
444,74	86,309
444,95	86,557
445,16	88,599
445,37	87,161
445,58	87,751
445,80	89,151
446,01	88,740
446,22	91,534
446,43	90,335
446,64	91,155
446,85	93,150
447,06	93,071
447,28	92,643
447,49	94,090
447,70	93,654
447,91	94,755
448,12	94,505
448,33	94,336
448,54	95,299
448,76	93,887
448,97	93,802
449,18	93,095
449,39	92,878
449,60	92,337
449,81	91,754
450,02	92,952
450,23	91,990
450,45	92,476
450,66	92,722
450,87	92,934
451,08	93,872
451,29	93,487
451,50	94,532
451,71	94,632
451,92	95,730
452,13	94,459
452,35	95,389
452,56	95,781
452,77	95,805
452,98	94,649
453,19	94,963
453,40	93,855
453,61	95,271
453,82	94,664
454,03	93,414
454,25	93,654
454,46	93,410
454,67	92,323
454,88	91,026
455,09	91,601
455,30	91,667
455,51	92,596
455,72	91,784
455,93	92,480
456,14	90,520
456,35	91,559
456,56	89,658
456,78	91,290
456,99	91,877
457,20	89,857
457,41	90,626
457,62	90,253
457,83	89,455
458,04	89,486
458,25	90,749
458,46	89,601
458,67	89,574
458,88	91,116
459,09	89,090
459,30	90,430
459,51	90,425
459,73	91,614
459,94	91,172
460,15	90,274
460,36	90,763
460,57	91,022
460,78	91,006
460,99	90,811
461,20	91,485
461,41	92,211
461,62	90,580
461,83	91,579
462,04	90,876
462,25	91,440
462,46	89,587
462,67	89,924
462,88	90,282
463,09	89,852
463,30	89,252
463,51	90,492
463,72	88,043
463,93	88,585
464,15	87,657
464,36	87,871
464,57	87,742
464,78	86,083
464,99	84,788
465,20	84,273
465,41	83,611
465,62	80,487
465,83	78,995
466,04	76,485
466,25	75,260
466,46	73,718
466,67	70,545
466,88	67,868
467,09	64,515
467,30	61,406
467,51	58,970
467,72	54,623
467,93	51,131
468,14	46,677
468,35	42,991
468,56	38,845
468,77	35,747
468,98	32,410
469,19	28,446
469,40	25,445
469,61	22,338
469,82	19,072
470,03	16,141
470,24	13,448
470,45	11,373
470,66	8,745
470,87	6,545
471,08	5,426
471,29	4,120
471,50	3,088
471,71	2,244
471,92	2,007
472,13	1,554
472,34	1,192
472,55	1,232
472,76	1,182
472,97	1,097
473,18	0,901
473,39	1,020
473,60	1,045
473,81	0,810
474,01	0,983
474,22	0,863
474,43	0,989
474,64	0,828
474,85	0,592
475,06	0,854
475,27	0,799
475,48	0,730
475,69	0,726
475,90	0,897
476,11	0,991
476,32	0,884
476,53	0,855
476,74	0,979
476,95	0,898
477,16	0,654
477,37	0,790
477,58	0,851
477,79	1,214
478,00	0,755
478,21	0,586
478,41	0,885
478,62	0,609
478,83	1,085
479,04	1,039
479,25	0,647
479,46	0,725
479,67	0,980
479,88	0,890
480,09	0,915
480,30	1,014
480,51	0,828
480,72	0,765
480,93	0,858
481,14	0,683
481,34	0,792
481,55	0,687
481,76	0,762
481,97	0,765
482,18	0,804
482,39	0,704
482,60	0,743
482,81	0,862
483,02	0,559
483,23	0,746
483,44	0,675
483,65	0,694
483,85	0,549
484,06	0,782
484,27	0,567
484,48	0,723
484,69	0,751
484,90	1,058
485,11	0,521
485,32	0,722
485,53	0,756
485,73	0,842
485,94	0,735
486,15	0,736
486,36	0,661
486,57	0,784
486,78	0,924
486,99	0,906
487,20	0,715
487,41	0,605
487,61	0,691
487,82	0,653
488,03	0,557
488,24	0,776
488,45	0,668
488,66	0,665
488,87	0,657
489,08	0,661
489,28	0,732
489,49	0,831
489,70	0,586
489,91	0,723
490,12	0,750
490,33	0,683
490,54	0,625
490,74	0,710
490,95	0,695
491,16	0,615
491,37	0,760
491,58	0,539
491,79	0,440
492,00	0,739
492,20	0,729
492,41	0,747
492,62	0,509
492,83	0,643
493,04	0,734
493,25	0,745
493,45	0,630
493,66	0,821
493,87	0,698
494,08	0,543
494,29	0,528
494,50	0,589
494,70	0,832
494,91	0,469
495,12	0,814
495,33	0,646
495,54	0,632
495,75	0,700
495,95	0,668
496,16	0,726
496,37	0,712
496,58	0,672
496,79	0,683
496,99	0,627
497,20	0,641
497,41	0,721
497,62	0,777
497,83	0,961
498,04	0,729
498,24	0,784
498,45	0,650
498,66	0,884
498,87	0,692
499,08	0,513
499,28	0,739
499,49	0,616
499,70	0,705
499,91	0,570
500,12	0,688
500,32	0,616
500,53	0,784
500,74	0,770
500,95	0,777
501,15	0,924
501,36	0,788
501,57	0,724
501,78	0,862
501,99	0,826
502,19	0,473
502,40	0,892
502,61	0,915
502,82	0,769
503,02	0,667
503,23	0,849
503,44	0,731
503,65	0,777
503,86	0,680
504,06	0,863
504,27	1,011
504,48	0,939
504,69	0,859
504,89	0,875
505,10	0,984
505,31	0,934
505,52	1,020
505,72	0,971
505,93	1,048
506,14	0,977
506,35	0,974
506,55	1,050
506,76	0,891
506,97	1,159
507,18	1,102
507,38	1,129
507,59	1,141
507,80	1,208
508,01	1,331
508,21	1,325
508,42	1,809
508,63	2,196
508,84	2,626
509,04	3,207
509,25	4,260
509,46	5,537
509,67	6,806
509,87	8,625
510,08	10,830
510,29	13,304
510,49	16,546
510,70	19,995
510,91	23,591
511,12	27,619
511,32	31,745
511,53	35,756
511,74	40,339
511,94	45,523
512,15	49,603
512,36	54,430
512,57	58,588
512,77	62,936
512,98	65,677
513,19	70,760
513,39	73,707
513,60	76,411
513,81	79,220
514,01	81,788
514,22	83,717
514,43	85,545
514,64	86,178
514,84	88,149
515,05	89,685
515,26	90,116
515,46	91,454
515,67	90,999
515,88	92,150
516,08	92,014
516,29	93,027
516,50	92,889
516,70	92,729
516,91	93,144
517,12	93,166
517,32	93,093
517,53	93,498
517,74	93,307
517,95	92,404
518,15	92,448
518,36	92,215
518,57	90,589
518,77	91,246
518,98	91,199
519,19	90,514
519,39	90,296
519,60	90,228
519,80	90,940
520,01	90,804
520,22	90,893
520,42	91,376
520,63	90,782
520,84	90,490
521,04	90,883
521,25	90,834
521,46	90,247
521,66	91,402
521,87	90,472
522,08	91,661
522,28	90,848
522,49	90,857
522,70	91,097
522,90	91,341
523,11	93,095
523,31	92,590
523,52	92,609
523,73	92,467
523,93	91,704
524,14	92,372
524,35	92,719
524,55	93,421
524,76	92,633
524,97	92,307
525,17	93,423
525,38	92,397
525,58	92,286
525,79	92,412
526,00	92,378
526,20	93,500
526,41	93,937
526,61	95,516
526,82	93,762
527,03	93,357
527,23	94,086
527,44	93,242
527,64	94,751
527,85	94,743
528,06	94,191
528,26	93,502
528,47	93,412
528,68	92,524
528,88	92,451
529,09	91,923
529,29	90,978
529,50	91,439
529,70	91,928
529,91	89,201
530,12	88,608
530,32	87,715
530,53	87,419
530,73	86,598
530,94	86,704
531,15	85,420
531,35	85,807
531,56	85,987
531,76	86,226
531,97	86,204
532,17	86,490
532,38	85,815
532,59	87,397
532,79	87,883
533,00	87,779
533,20	88,941
533,41	89,667
533,61	90,050
533,82	90,502
534,03	90,906
534,23	92,975
534,44	94,064
534,64	92,678
534,85	93,988
535,05	94,923
535,26	95,455
535,46	95,916
535,67	96,487
535,88	97,438
536,08	97,109
536,29	99,007
536,49	97,947
536,70	98,494
536,90	98,423
537,11	99,032
537,31	99,289
537,52	99,087
537,72	99,531
537,93	98,747
538,13	98,266
538,34	99,686
538,55	99,102
538,75	99,091
538,96	98,668
539,16	97,874
539,37	97,348
539,57	98,642
539,78	96,597
539,98	96,463
540,19	95,427
540,39	95,040
540,60	94,939
540,80	94,717
541,01	92,536
541,21	92,816
541,42	90,793
541,62	89,682
541,83	87,922
542,03	86,573
542,24	85,447
542,44	82,946
542,65	80,961
542,85	78,173
543,06	76,479
543,26	73,827
543,47	72,618
543,67	68,549
543,88	65,551
544,08	62,496
544,29	58,652
544,49	55,496
544,70	51,229
544,90	47,931
545,11	44,648
545,31	40,246
545,52	36,065
545,72	33,102
545,93	28,990
546,13	25,553
546,34	22,319
546,54	18,889
546,75	16,181
546,95	13,438
547,15	11,330
547,36	9,262
547,56	7,426
547,77	5,863
547,97	4,923
548,18	3,752
548,38	2,927
548,59	2,339
548,79	1,832
549,00	1,470
549,20	1,434
549,41	1,454
549,61	0,994
549,81	0,971
550,02	1,278
550,22	1,038
550,43	1,055
550,63	1,046
550,84	0,820
551,04	0,915
551,25	0,892
551,45	1,037
551,65	0,968
551,86	1,029
552,06	0,961
552,27	0,815
552,47	0,923
552,68	1,006
552,88	0,848
553,08	0,757
553,29	0,838
553,49	0,843
553,70	0,966
553,90	0,669
554,11	0,923
554,31	0,815
554,51	0,922
554,72	0,839
554,92	1,021
555,13	1,027
555,33	1,045
555,53	0,986
555,74	0,759
555,94	0,842
556,15	0,903
556,35	0,714
556,56	0,864
556,76	1,030
556,96	0,905
557,17	0,843
557,37	0,913
557,58	0,835
557,78	0,734
557,98	0,720
558,19	0,698
558,39	0,766
558,59	0,806
558,80	0,924
559,00	0,968
559,21	0,756
559,41	0,616
559,61	0,822
559,82	0,854
560,02	0,654
560,23	0,909
560,43	0,695
560,63	0,655
560,84	0,618
561,04	0,567
561,24	0,685
561,45	0,732
561,65	0,727
561,85	0,818
562,06	0,743
562,26	0,519
562,47	0,787
562,67	0,689
562,87	0,782
563,08	0,577
563,28	0,661
563,48	0,908
563,69	0,650
563,89	0,832
564,09	0,848
564,30	0,774
564,50	0,754
564,70	0,815
564,91	0,713
565,11	0,747
565,31	0,699
565,52	0,537
565,72	0,724
565,92	0,852
566,13	0,616
566,33	0,633
566,53	0,679
566,74	0,698
566,94	0,573
567,14	0,675
567,35	0,554
567,55	0,655
567,75	0,886
567,96	0,619
568,16	0,454
568,36	0,751
568,57	0,692
568,77	0,577
568,97	0,766
569,18	0,759
569,38	0,734
569,58	0,761
569,79	0,771
569,99	0,704
570,19	0,650
570,39	0,733
570,60	0,578
570,80	0,629
571,00	0,698
571,21	0,642
571,41	0,649
571,61	0,535
571,82	0,667
572,02	0,626
572,22	0,588
572,42	0,701
572,63	0,769
572,83	0,706
573,03	0,612
573,24	0,781
573,44	0,591
573,64	0,723
573,84	0,799
574,05	0,638
574,25	0,694
574,45	0,577
574,66	0,711
574,86	0,724
575,06	0,576
575,26	0,550
575,47	0,664
575,67	0,738
575,87	0,651
576,07	0,602
576,28	0,738
576,48	0,623
576,68	0,628
576,88	0,460
577,09	0,739
577,29	0,517
577,49	0,740
577,69	0,652
577,90	0,771
578,10	0,671
578,30	0,494
578,50	0,514
578,71	0,747
578,91	0,416
579,11	0,786
579,31	0,764
579,52	0,645
579,72	0,571
579,92	0,582
580,12	0,623
580,33	0,741
580,53	0,620
580,73	0,806
580,93	0,640
581,13	0,679
581,34	0,623
581,54	0,622
581,74	0,589
581,94	0,961
582,15	0,568
582,35	0,462
582,55	0,815
582,75	0,850
582,95	0,708
583,16	0,511
583,36	0,780
583,56	0,611
583,76	0,552
583,96	0,731
584,17	0,551
584,37	0,786
584,57	0,691
584,77	0,693
584,97	0,831
585,18	0,655
585,38	0,744
585,58	0,701
585,78	0,776
585,98	0,801
586,19	0,770
586,39	0,696
586,59	0,653
586,79	0,638
586,99	0,676
587,20	0,736
587,40	0,777
587,60	0,673
587,80	0,873
588,00	0,700
588,20	0,581
588,41	0,824
588,61	0,694
588,81	0,760
589,01	0,813
589,21	0,795
589,41	0,960
589,62	0,645
589,82	0,646
590,02	0,551
590,22	0,830
590,42	0,615
590,62	0,659
590,83	0,696
591,03	0,733
591,23	0,673
591,43	0,851
591,63	0,877
591,83	0,789
592,03	0,706
592,24	0,904
592,44	0,927
592,64	0,816
592,84	0,832
593,04	1,004
593,24	1,057
593,44	1,115
593,65	1,169
593,85	1,278
594,05	1,117
594,25	1,648
594,45	1,941
594,65	2,129
594,85	2,603
595,06	2,961
595,26	3,470
595,46	4,161
595,66	5,120
595,86	6,337
596,06	7,460
596,26	8,779
596,46	10,707
596,66	12,709
596,87	14,694
597,07	16,560
597,27	19,771
597,47	22,381
597,67	25,199
597,87	27,394
598,07	29,817
598,27	32,738
598,47	35,818
598,67	38,381
598,88	41,501
599,08	43,813
599,28	47,311
599,48	49,094
599,68	52,102
599,88	55,019
600,08	58,073
600,28	60,779
600,48	64,627
600,68	66,573
600,88	71,981
601,09	74,278
601,29	76,510
601,49	80,852
601,69	82,531
601,89	84,860
602,09	87,787
602,29	89,829
602,49	90,934
602,69	92,934
602,89	92,919
603,09	94,842
603,29	94,983
603,49	95,235
603,69	96,013
603,90	95,685
604,10	96,616
604,30	96,414
604,50	97,224
604,70	96,331
604,90	97,330
605,10	97,186
605,30	97,280
605,50	96,732
605,70	97,889
605,90	98,336
606,10	97,015
606,30	97,396
606,50	97,898
606,70	99,109
606,90	98,462
607,10	97,966
607,30	98,604
607,50	97,635
607,70	99,312
607,90	98,147
608,10	97,858
608,30	97,869
608,50	97,868
608,70	97,641
608,90	98,846
609,11	98,764
609,31	97,451
609,51	98,546
609,71	98,503
609,91	97,954
610,11	97,510
610,31	98,439
610,51	97,635
610,71	98,516
610,91	98,057
611,11	98,542
611,31	98,850
611,51	98,118
611,71	98,129
611,91	99,090
612,11	98,920
612,31	99,156
612,51	98,585
612,71	99,137
612,91	98,447
613,11	97,685
613,31	98,294
613,51	98,416
613,71	97,569
613,91	98,107
614,11	99,068
614,31	98,125
614,50	98,122
614,70	98,305
614,90	97,477
615,10	97,849
615,30	97,084
615,50	96,479
615,70	96,316
615,90	97,328
616,10	96,567
616,30	96,626
616,50	95,582
616,70	95,695
616,90	96,473
617,10	95,537
617,30	96,356
617,50	96,722
617,70	96,213
617,90	96,093
618,10	94,962
618,30	96,886
618,50	95,774
618,70	96,870
618,90	97,034
619,10	97,202
619,30	96,201
619,49	96,508
619,69	96,607
619,89	96,315
620,09	98,034
620,29	98,497
620,49	97,150
620,69	97,363
620,89	98,000
621,09	98,363
621,29	98,326
621,49	98,270
621,69	97,204
621,89	98,838
622,09	97,567
622,29	97,556
622,48	98,598
622,68	97,666
622,88	97,939
623,08	97,548
623,28	97,814
623,48	98,152
623,68	98,145
623,88	98,293
624,08	98,236
624,28	98,720
624,48	98,060
624,67	97,175
624,87	98,055
625,07	96,814
625,27	96,697
625,47	97,688
625,67	97,481
625,87	97,053
626,07	96,975
626,27	96,255
626,47	97,569
626,66	96,894
626,86	96,416
627,06	96,046
627,26	95,839
627,46	95,218
627,66	96,245
627,86	95,299
628,06	95,557
628,25	94,419
628,45	94,997
628,65	94,760
628,85	93,848
629,05	94,380
629,25	93,254
629,45	93,334
629,65	94,006
629,84	92,973
630,04	93,351
630,24	95,560
630,44	94,264
630,64	94,725
630,84	95,370
631,04	95,385
631,23	96,900
631,43	97,373
631,63	96,724
631,83	97,686
632,03	97,291
632,23	98,726
632,42	100,008
632,62	99,656
632,82	100,133
633,02	100,443
633,22	101,487
633,42	101,202
633,62	101,258
633,81	102,535
634,01	101,094
634,21	101,177
634,41	101,123
634,61	100,452
634,80	100,626
635,00	100,463
635,20	100,918
635,40	99,053
635,60	98,389
635,80	98,812
635,99	99,449
636,19	97,758
636,39	97,581
636,59	97,376
636,79	96,504
636,98	95,599
637,18	96,022
637,38	95,099
637,58	95,526
637,78	94,246
637,97	95,291
638,17	94,754
638,37	94,663
638,57	93,219
638,77	93,926
638,96	91,910
639,16	92,830
639,36	91,813
639,56	91,670
639,76	90,990
639,95	90,474
640,15	88,949
640,35	88,050
640,55	86,702
640,75	86,047
640,94	84,149
641,14	82,895
641,34	81,332
641,54	78,590
641,73	75,778
641,93	76,090
642,13	73,954
642,33	71,888
642,53	68,981
642,72	67,853
642,92	65,494
643,12	63,749
643,32	62,792
643,51	61,484
643,71	58,697
643,91	57,580
644,11	56,723
644,30	54,497
644,50	54,174
644,70	53,385
644,90	52,433
645,09	51,866
645,29	50,444
645,49	49,433
645,69	48,612
645,88	48,472
646,08	47,361
646,28	47,904
646,48	46,145
646,67	44,686
646,87	43,454
647,07	43,443
647,26	42,264
647,46	40,402
647,66	39,618
647,86	38,456
648,05	36,350
648,25	35,672
648,45	33,723
648,65	31,841
648,84	30,054
649,04	28,106
649,24	26,220
649,43	24,093
649,63	22,321
649,83	19,626
650,03	18,516
650,22	16,652
650,42	14,693
650,62	13,412
650,81	11,730
651,01	11,048
651,21	9,418
651,40	8,645
651,60	8,347
651,80	6,951
652,00	6,506
652,19	5,430
652,39	5,223
652,59	4,784
652,78	4,163
652,98	3,805
653,18	3,215
653,37	3,317
653,57	3,035
653,77	2,525
653,96	2,178
654,16	2,523
654,36	2,230
654,55	2,480
654,75	1,923
654,95	2,101
655,14	1,652
655,34	1,849
655,54	1,547
655,73	0,890
655,93	1,537
656,13	1,122
656,32	1,362
656,52	0,952
656,72	1,348
656,91	1,434
657,11	1,352
657,31	1,073
657,50	1,267
657,70	0,952
657,90	1,128
658,09	0,885
658,29	1,639
658,49	1,274
658,68	1,656
658,88	1,313
659,07	1,121
659,27	1,047
659,47	1,581
659,66	0,844
659,86	1,020
660,06	1,256
660,25	0,961
660,45	1,190
660,64	1,281
660,84	1,413
661,04	1,373
661,23	1,242
661,43	1,484
661,63	1,106
661,82	0,752
662,02	1,095
662,21	1,222
662,41	1,010
662,61	1,516
662,80	0,917
663,00	1,153
663,19	1,378
663,39	1,599
663,59	1,428
663,78	1,208
663,98	1,107
664,17	1,210
664,37	1,339
664,57	1,208
664,76	1,277
664,96	1,160
665,15	0,868
665,35	1,025
665,55	0,829
665,74	0,948
665,94	0,957
666,13	1,056
666,33	0,672
666,53	1,107
666,72	0,741
666,92	1,430
667,11	1,238
667,31	0,983
667,50	0,982
667,70	1,399
667,90	1,322
668,09	0,928
668,29	0,986
668,48	0,932
668,68	0,807
668,87	0,954
669,07	1,089
669,26	1,160
669,46	0,852
669,66	1,136
669,85	1,205
670,05	0,879
670,24	1,147
670,44	0,812
670,63	0,911
670,83	0,955
671,02	1,231
671,22	1,271
671,42	0,942
671,61	1,086
671,81	1,102
672,00	0,792
672,20	1,152
672,39	0,721
672,59	0,829
672,78	1,111
672,98	0,613
673,17	0,897
673,37	0,845
673,56	0,743
673,76	0,811
673,95	0,853
674,15	0,678
674,34	0,722
674,54	1,115
674,73	0,973
674,93	1,014
675,13	0,565
675,32	0,707
675,52	0,873
675,71	0,764
675,91	0,883
676,10	0,555
676,30	0,533
676,49	0,733
676,69	0,788
676,88	0,913
677,08	0,831
677,27	0,861
677,47	0,791
677,66	0,890
677,86	0,936
678,05	0,858
678,24	0,456
678,44	1,000
678,63	0,681
678,83	0,914
679,02	0,802
679,22	0,642
679,41	0,822
679,61	0,621
679,80	0,769
680,00	0,583
680,19	0,537
680,39	0,963
680,58	0,400
680,78	0,575
680,97	0,570
681,17	0,837
681,36	0,683
681,56	0,751
681,75	0,800
681,94	0,730
682,14	0,633
682,33	0,546
682,53	0,953
682,72	0,732
682,92	0,843
683,11	0,714
683,31	0,384
683,50	0,748
683,69	0,644
683,89	0,548
684,08	0,648
684,28	0,407
684,47	0,589
684,67	0,467
684,86	0,342
685,06	0,531
685,25	0,519
685,44	0,435
685,64	0,491
685,83	0,686
686,03	0,364
686,22	0,321
686,42	0,396
686,61	0,551
686,80	0,474
687,00	0,574
687,19	0,878
687,39	0,401
687,58	0,419
687,77	0,500
687,97	0,493
688,16	0,207
688,36	0,357
688,55	0,353
688,74	0,631
688,94	0,382
689,13	0,519
689,33	0,307
689,52	0,518
689,71	0,434
689,91	0,402
690,10	0,572
690,30	0,509
690,49	0,456
690,68	0,469
690,88	0,463
691,07	0,366
691,27	0,334
691,46	0,478
691,65	0,536
691,85	0,390
692,04	0,452
692,23	0,412
692,43	0,253
692,62	0,553
692,82	0,538
693,01	0,336
693,20	0,394
693,40	0,290
693,59	0,521
693,78	0,547
693,98	0,385
694,17	0,454
694,36	0,553
694,56	0,565
694,75	0,296
694,94	0,532
695,14	0,569
695,33	0,297
695,53	0,456
695,72	0,451
695,91	0,620
696,11	0,421
696,30	0,235
696,49	0,472
696,69	0,501
696,88	0,413
697,07	0,249
697,27	0,541
697,46	0,550
697,65	0,564
697,85	0,330
698,04	0,634
698,23	0,615
698,43	0,840
698,62	0,547
698,81	0,654
699,01	1,173
699,20	0,702
699,39	1,027
699,58	0,745
699,78	1,107
699,97	1,169
700,16	1,256
700,36	0,877
700,55	1,349
700,74	1,130
700,94	1,112
701,13	1,063
701,32	1,222
701,52	1,636
701,71	1,101
701,90	1,501
702,09	0,909
702,29	1,113
702,48	1,619
702,67	1,313
702,87	1,319
703,06	1,822
703,25	1,314
703,44	1,272
703,64	2,086
703,83	2,296
704,02	1,797
704,22	1,169
704,41	1,451
704,60	2,322
704,79	1,405
704,99	2,425
705,18	1,544
705,37	2,106
705,56	1,782
705,76	1,936
705,95	2,277
706,14	1,103
706,33	3,074
706,53	1,406
706,72	1,621
706,91	2,175
707,11	2,256
707,30	3,773
707,49	3,474
707,68	1,485
707,88	3,326
708,07	2,436
708,26	3,458
708,45	3,180
708,64	2,915
708,84	4,016
709,03	3,054
709,22	4,061
709,41	2,751
709,61	3,607
709,80	4,358
709,99	4,386
710,18	4,141
710,38	4,248
710,57	2,677
710,76	3,069
710,95	4,312
711,14	5,736
711,34	3,907
711,53	5,124
711,72	4,833
711,91	3,574
712,11	5,646
712,30	5,228
712,49	5,925
712,68	4,676
712,87	6,396
713,07	6,003
713,26	5,794
713,45	7,047
713,64	4,543
713,83	4,202
714,03	5,640
714,22	5,529
714,41	7,552
714,60	6,378
714,79	4,277
714,99	3,888
715,18	3,130
715,37	6,481
715,56	5,527
715,75	4,236
715,94	6,576
716,14	6,312
716,33	6,627
716,52	6,804
716,71	5,978
716,90	7,195
717,10	7,391
717,29	5,886
717,48	7,904
717,67	6,101
717,86	5,624
718,05	4,257
718,24	7,789
718,44	5,376
718,63	5,595
718,82	8,375
719,01	7,361
719,20	8,339
719,39	7,405
719,59	2,498
719,78	7,375
719,97	9,902
720,16	8,636
720,35	8,216
720,54	10,296
720,73	7,863
720,93	8,459
721,12	5,092
721,31	11,494
721,50	9,718
721,69	5,069
721,88	11,312
722,07	11,391
722,27	8,943
722,46	9,040
722,65	7,277
722,84	7,614
723,03	5,394
723,22	9,815
723,41	8,172
723,60	12,865
723,79	11,129
723,99	8,162
724,18	9,490
724,37	8,388
724,56	11,240
724,75	10,250
724,94	10,113
725,13	11,938
725,32	12,072
725,51	12,039
725,71	8,144
725,90	10,423
726,09	10,512
726,28	10,904
726,47	10,059
726,66	12,651
726,85	9,324
727,04	10,280
727,23	10,537
727,42	14,537
727,61	4,868
727,81	9,385
728,00	15,431
728,19	10,183
728,38	10,043
728,57	12,893
728,76	16,910
728,95	14,174
729,14	7,588
729,33	17,453
729,52	15,861
729,71	12,629
729,90	11,711
730,09	10,748
730,28	13,395
730,48	9,629
730,67	14,631
730,86	12,438
731,05	13,201
731,24	10,526
731,43	12,704
731,62	15,414
731,81	6,480
732,00	9,784
732,19	9,323
732,38	10,209
732,57	11,989
732,76	15,119
732,95	9,067
733,14	11,443
733,33	15,934
733,52	15,133
733,71	11,877
733,90	16,452
734,09	11,735
734,28	14,483
734,47	14,868
734,66	16,147
734,85	17,589
735,04	18,256
735,23	18,122
735,42	17,579
735,61	20,533
735,81	17,517
736,00	23,193
736,19	15,237
736,38	17,333
736,57	16,295
736,76	9,457
736,95	14,697
737,14	17,173
737,33	17,014
737,52	20,814
737,71	11,218
737,90	19,667
738,09	26,380
738,28	15,152
738,47	12,745
738,66	18,437
738,85	17,698
739,04	17,827
739,22	16,554
739,41	20,161
739,60	8,863
739,79	14,041
739,98	5,263
740,17	20,748
740,36	23,036
740,55	22,751
740,74	20,000
740,93	17,886
741,12	20,956
741,31	23,346
741,50	8,663
741,69	15,000
741,88	19,600
742,07	21,480
742,26	16,292
742,45	16,403
742,64	29,856
742,83	18,723
743,02	19,820
743,21	25,956
743,40	23,417
743,59	21,721
743,78	18,559
743,97	24,812
744,16	18,182
744,34	24,803
744,53	17,213
744,72	29,522
744,91	22,947
745,10	23,256
745,29	24,113
745,48	24,462
745,67	21,385
745,86	18,779
746,05	20,320
746,24	23,529
746,43	24,586
746,62	23,502
746,81	25,799
747,00	24,008
747,18	29,451
747,37	16,418
747,56	17,528
747,75	30,853
747,94	25,821
748,13	25,799
748,32	24,145
748,51	29,797
748,70	32,374
748,89	32,609
749,08	12,857
749,26	24,821
749,45	30,588
749,64	18,114
749,83	24,936
750,02	36,188
750,21	22,581
750,40	28,385
750,59	31,840
750,78	32,544
750,96	16,480
751,15	15,847
751,34	28,272
751,53	39,655
751,72	26,146
751,91	29,589
752,10	16,975
752,29	30,226
752,47	27,809
752,66	36,901
752,85	15,480
753,04	34,700
753,23	12,252
753,42	33,435
753,61	19,281
753,80	23,848
753,98	23,158
754,17	36,196
754,36	42,373
754,55	23,511
754,74	43,642
754,93	31,412
755,12	32,533
755,30	27,147
755,49	42,202
755,68	43,516
755,87	20,120
756,06	32,682
756,25	49,841
756,43	29,310
756,62	35,905
756,81	30,033
757,00	42,319
757,19	32,877
757,38	41,325
757,56	35,484
757,75	36,275
757,94	31,546
758,13	39,610
758,32	35,606
758,51	36,397
758,69	38,400
758,88	44,144
759,07	47,670
759,26	37,674
759,45	29,258
759,63	44,238
759,82	29,966
760,01	28,763
760,20	45,525
760,39	47,015
760,57	37,603
760,76	28,829
760,95	27,315
761,14	53,469
761,33	37,187
761,51	38,710
761,70	51,379
761,89	32,377
762,08	26,977
762,27	40,293
762,45	44,358
762,64	23,810
762,83	42,035
763,02	40,930
763,21	43,103
763,39	55,102
763,58	38,491
763,77	46,718
763,96	58,233
764,14	49,167
764,33	38,095
764,52	76,395
764,71	49,776
764,89	34,804
765,08	60,776
765,27	46,468
765,46	59,783
765,65	43,231
765,83	66,667
766,02	32,340
766,21	45,856
766,40	42,381
766,58	59,756
766,77	38,308
766,96	48,636
767,15	70,531
767,33	49,708
767,52	60,976
767,71	60,000
767,90	52,247
768,08	55,253
768,27	55,000
768,46	54,687
768,64	59,067
768,83	50,000
769,02	66,500
769,21	54,585
769,39	52,326
769,58	51,445
769,77	62,835
769,96	61,257
770,14	57,143
770,33	63,084
770,52	40,741
770,70	52,000
770,89	73,154
771,08	52,119
771,27	68,041
771,45	50,877
771,64	78,125
771,83	65,888
772,01	75,904
772,20	86,935
772,39	44,667
772,57	55,039
772,76	45,185
772,95	65,957
773,14	67,204
773,32	63,226
773,51	50,746
773,70	90,000
773,88	125,683
774,07	50,785
774,26	68,085
774,44	67,073
774,63	75,635
774,82	72,561
775,00	50,667
775,19	46,400
775,38	81,503
775,56	64,062
775,75	72,892
775,94	91,139
776,12	38,674
776,31	56,471
776,50	71,591
776,68	53,684
776,87	49,432
777,06	51,034
777,24	85,000
777,43	67,308
777,62	103,676
777,80	96,622
777,99	88,000
778,18	73,762
778,36	64,000
778,55	67,769
778,74	64,583
778,92	68,047
779,11	65,000
779,29	71,069
779,48	80,272
779,67	77,519
779,85	73,171
780,04	68,649
780,23	82,734
780,41	64,844
780,60	48,421
780,79	70,056
780,97	81,579
781,16	82,424
781,34	151,546
781,53	84,615
781,72	49,635
781,90	66,406
782,09	75,484
782,28	104,380
782,46	60,741
782,65	62,143
782,83	111,236
783,02	113,750
783,21	98,000
783,39	113,913
783,58	79,290
783,76	87,709
783,95	69,091
784,14	96,689
784,32	77,181
784,51	87,931
784,69	122,034
784,88	97,297
785,06	88,235
785,25	89,809
785,44	94,245
785,62	65,714
785,81	154,930
785,99	117,986
786,18	80,405
786,37	82,963
786,55	79,817
786,74	69,737
786,92	82,031
787,11	72,500
787,29	70,149
787,48	78,667
787,67	110,843
787,85	119,828
788,04	79,208
788,22	84,426
788,41	108,235
788,59	119,266
788,78	87,273
788,96	125,472
789,15	172,632
789,34	95,455
789,52	104,425
789,71	97,674
789,89	178,723
790,08	82,192
790,26	102,857
790,45	95,455
790,63	100,926
790,82	76,970
791,00	61,111
791,19	84,946
791,38	100,694
791,56	68,421
791,75	126,606
791,93	133,333
792,12	91,124
792,30	124,000
792,49	69,748
792,67	110,448
792,86	98,450
793,04	118,692
793,23	76,667
793,41	158,228
793,60	115,152
793,78	114,035
793,97	141,026
794,15	80,909
794,34	128,571
794,52	142,857
794,71	114,815
794,89	121,111
795,08	100,971
795,26	89,444
795,45	143,284
795,63	128,030
795,82	104,673
796,00	81,651
796,19	91,667
796,37	89,051
796,56	98,925
796,74	114,159
796,93	160,674
797,11	118,987
797,30	85,000
797,48	89,655
797,67	105,000
797,85	102,041
798,04	160,417
798,22	96,032
798,41	150,980
798,59	95,789
798,77	112,308
798,96	97,849
799,14	114,655
799,33	116,794
799,51	80,769
799,70	102,013
799,88	136,364
800,07	100,000
800,25	71,724
800,44	88,889
800,62	138,824
800,80	124,638
800,99	131,746
801,17	93,103
801,36	106,207
801,54	97,917
801,73	84,848
801,91	103,279
802,10	121,429
802,28	126,168
802,46	108,642
802,65	140,230
802,83	156,180
803,02	126,316
803,20	114,844
803,39	82,759
803,57	110,843
803,75	75,676
803,94	119,328
804,12	61,667
804,31	71,681
804,49	106,731
804,67	95,200
804,86	95,536
805,04	108,108
805,23	102,069
805,41	119,672
805,59	83,607
805,78	60,606
805,96	81,410
806,15	106,250
806,33	110,924
806,51	114,159
806,70	210,000
806,88	95,122
807,07	88,889
807,25	71,069
807,43	78,146
807,62	85,366
807,80	100,000
807,99	94,444
808,17	99,291
808,35	124,561
808,54	124,731
808,72	75,200
808,90	155,263
809,09	93,333
809,27	131,532
809,46	117,857
809,64	86,275
809,82	75,862
810,01	125,758
810,19	90,000
810,37	100,769
810,56	148,780
810,74	47,682
810,92	98,485
811,11	174,510
811,29	80,851
811,48	97,980
811,66	100,775
811,84	67,890
812,03	94,545
812,21	128,205
812,39	130,508
812,58	75,490
812,76	108,411
812,94	113,333
813,13	89,683
813,31	91,667
813,49	143,478
813,68	98,261
813,86	113,265
814,04	133,981
814,23	174,747
814,41	55,882
814,59	88,136
814,78	102,206
814,96	81,982
815,14	141,111
815,33	86,232
815,51	48,148
815,69	116,049
815,87	95,652
816,06	100,625
816,24	84,768
816,42	77,564
816,61	87,288
816,79	149,398
816,97	81,982
817,16	78,710
817,34	102,069
817,52	84,138
817,70	128,571
817,89	75,207
818,07	97,414
818,25	108,108
818,44	79,651
818,62	93,966
818,80	93,007
818,98	64,762
819,17	100,000
819,35	81,765
819,53	103,960
819,72	94,767
819,90	74,251
820,08	57,143
820,26	117,544
820,45	101,205
820,63	107,812
820,81	83,221
820,99	102,256
821,18	68,889
821,36	74,286
821,54	78,488
821,73	82,703
821,91	72,872
822,09	62,353
822,27	75,635
822,46	63,750
822,64	73,510
822,82	71,707
823,00	63,063
823,19	74,242
823,37	105,000
823,55	72,353
823,73	86,000
823,91	58,011
824,10	71,508
824,28	77,037
824,46	52,907
824,64	73,529
824,83	46,341
825,01	94,928
825,19	82,286
825,37	61,979
825,56	90,000
825,74	73,810
825,92	78,652
826,10	75,155
826,28	74,497
826,47	44,715
826,65	93,243
826,83	65,054
827,01	88,636
827,19	93,038
827,38	69,948
827,56	74,519
827,74	67,480
827,92	80,000
828,10	55,435
828,29	70,000
828,47	74,123
828,65	69,730
828,83	80,808
829,01	47,333
829,20	64,557
829,38	63,900
829,56	69,636
829,74	96,212
829,92	70,619
830,10	68,468
830,29	71,351
830,47	72,917
830,65	45,089
830,83	84,000
831,01	50,417
831,20	53,465
831,38	62,927
831,56	63,158
831,74	61,143
831,92	64,773
832,10	51,364
832,29	54,028
832,47	38,053
832,65	62,979
832,83	73,023
833,01	46,640
833,19	57,014
833,37	49,259
833,56	46,479
833,74	53,441
833,92	50,885
834,10	84,264
834,28	35,769
834,46	47,751
834,64	42,578
834,83	44,027
835,01	50,195
835,19	54,502
835,37	53,386
835,55	45,126
835,73	51,103
835,91	40,927
836,09	48,133
836,28	56,489
836,46	54,386
836,64	63,934
836,82	29,851
837,00	52,041
837,18	36,759
837,36	52,406
837,54	62,121
837,72	41,833
837,91	44,578
838,09	34,400
838,27	58,242
838,45	46,602
838,63	46,780
838,81	37,500
838,99	45,645
839,17	54,693
839,35	36,296
839,53	48,993
839,72	36,864
839,90	24,316
840,08	40,705
840,26	55,836
840,44	33,951
840,62	33,333
840,80	30,864
840,98	34,441
841,16	22,776
841,34	27,826
841,52	34,185
841,70	34,007
841,89	46,774
842,07	38,108
842,25	35,065
842,43	36,452
842,61	42,091
842,79	44,207
842,97	18,902
843,15	47,564
843,33	44,418
843,51	37,470
843,69	30,278
843,87	37,197
844,05	32,075
844,23	36,757
844,41	29,146
844,59	30,114
844,77	23,631
844,95	35,194
845,13	36,612
845,31	28,212
845,50	32,216
845,68	35,233
845,86	34,434
846,04	31,111
846,22	30,788
846,40	22,047
846,58	33,512
846,76	28,429
846,94	33,894
847,12	24,171
847,30	35,484
847,48	35,012
847,66	26,098
847,84	27,411
848,02	36,383
848,20	33,113
848,38	25,630
848,56	30,968
848,74	22,314
848,92	17,537
849,10	27,679
849,28	25,490
849,46	20,093
849,64	23,810
849,82	24,760
850,00	20,123
850,18	34,411
850,36	28,509
850,54	30,717
850,72	28,898
850,90	33,333
851,08	22,016
851,26	30,162
851,44	29,116
851,62	21,854
851,80	28,429
851,98	36,008
852,16	36,626
852,34	30,550
852,52	24,851
852,70	19,277
852,87	22,286
853,05	33,267
853,23	16,275
853,41	22,904
853,59	31,887
853,77	29,167
853,95	19,915
854,13	20,194
854,31	29,843
854,49	17,635
854,67	32,331
854,85	23,304
855,03	19,157
855,21	20,812
855,39	21,309
855,57	27,174
855,75	22,260
855,93	20,318
856,11	31,579
856,28	22,396
856,46	18,137
856,64	16,181
856,82	15,009
857,00	16,436
857,18	19,249
857,36	20,504
857,54	22,804
857,72	16,194
857,90	20,923
858,08	17,901
858,26	13,456
858,44	16,615
858,61	20,797
858,79	23,411
858,97	18,481
859,15	19,178
859,33	14,110
859,51	13,738
859,69	12,351
859,87	18,155
860,05	19,665
860,23	13,636
860,40	16,897
860,58	19,253
860,76	16,667
860,94	10,687
861,12	16,997
861,30	20,246
861,48	20,822
861,66	24,368
861,84	20,670
862,01	24,465
862,19	18,970
862,37	15,452
862,55	12,256
862,73	14,946
862,91	13,219
863,09	17,555
863,27	11,003
863,44	11,523
863,62	15,428
863,80	12,237
863,98	16,603
864,16	13,440
864,34	16,494
864,52	18,451
864,69	16,747
864,87	15,137
865,05	10,682
865,23	14,372
865,41	15,256
865,59	16,564
865,76	16,796
865,94	11,085
866,12	16,648
866,30	16,564
866,48	12,968
866,66	15,944
866,83	13,020
867,01	12,934
867,19	13,886
867,37	12,005
867,55	17,453
867,73	14,351
867,90	12,440
868,08	16,449
868,26	9,350
868,44	10,944
868,62	11,599
868,79	10,065
868,97	9,915
869,15	13,694
869,33	9,372
869,51	15,499
869,69	13,660
869,86	7,590
870,04	15,979
870,22	11,655
870,40	10,505
870,57	14,700
870,75	13,793
870,93	13,528
871,11	14,547
871,29	10,264
871,46	5,136
871,64	13,551
871,82	10,146
872,00	13,947
872,18	11,619
872,35	13,725
872,53	13,800
872,71	10,491
872,89	7,878
873,06	12,731
873,24	14,982
873,42	7,796
873,60	8,632
873,77	10,231
873,95	7,514
874,13	11,360
874,31	11,408
874,49	12,729
874,66	8,419
874,84	7,638
875,02	11,229
875,20	8,099
875,37	8,603
875,55	5,843
875,73	8,801
875,91	9,297
876,08	10,271
876,26	9,575
876,44	7,109
876,61	8,550
876,79	13,318
876,97	7,934
877,15	10,916
877,32	8,504
877,50	8,251
877,68	7,944
877,86	5,304
878,03	7,521
878,21	5,900
878,39	7,926
878,56	9,808
878,74	4,845
878,92	8,012
879,10	7,618
879,27	10,472
879,45	11,386
879,63	6,158
879,80	7,478
879,98	4,057
880,16	7,478
880,34	3,849
880,51	10,033
880,69	8,704
880,87	3,986
881,04	6,705
881,22	7,708
881,40	6,137
881,57	8,492
881,75	7,844
881,93	9,011
882,10	8,520
882,28	8,027
882,46	7,772
882,63	8,857
882,81	6,839
882,99	5,670
883,16	8,551
883,34	8,300
883,52	5,122
883,69	9,220
883,87	8,716
884,05	4,905
884,22	7,172
884,40	6,314
884,58	5,810
884,75	5,362
884,93	7,749
885,11	3,428
885,28	6,842
885,46	4,462
885,64	6,963
885,81	6,115
885,99	7,511
886,17	7,161
886,34	5,926
886,52	4,143
886,70	4,350
886,87	5,800
887,05	6,148
887,22	5,177
887,40	6,792
887,58	7,164
887,75	6,730
887,93	7,165
888,11	2,175
888,28	4,836
888,46	4,844
888,63	6,188
888,81	4,805
888,99	2,607
889,16	4,042
889,34	4,630
889,51	4,859
889,69	4,795
889,87	2,961
890,04	3,587
890,22	4,717
890,39	3,450
890,57	5,332
890,75	6,199
890,92	4,102
891,10	7,472
891,27	3,423
891,45	4,375
891,63	6,982
891,80	5,007
891,98	7,430
892,15	4,865
892,33	3,983
892,51	5,200
892,68	5,029
892,86	5,163
893,03	5,729
893,21	5,887
893,38	5,749
893,56	5,649
893,74	5,655
893,91	5,991
894,09	3,168
894,26	5,133
894,44	4,760
894,61	5,593
894,79	3,973
894,96	3,955
895,14	3,915
895,32	4,828
895,49	3,411
895,67	4,866
895,84	5,686
896,02	5,161
896,19	2,407
896,37	5,649
896,54	3,829
896,72	3,390
896,89	3,910
897,07	3,374
897,25	5,593
897,42	4,386
897,60	5,832
897,77	6,018
897,95	4,016
898,12	3,786
898,30	2,460
898,47	3,126
898,65	4,029
898,82	5,525
899,00	4,676
899,17	4,638
899,35	5,009
899,52	3,569
899,70	3,285
899,87	3,941
900,05	5,487
900,22	4,124
900,40	3,984
900,57	4,425
900,75	2,805
900,92	2,638
901,10	4,215
901,27	3,984
901,45	3,700
901,62	3,933
901,80	4,584
901,97	2,307
902,15	5,911
902,32	3,714
902,50	3,236
902,67	4,288
902,85	3,306
903,02	4,460
903,20	4,316
903,37	5,175
903,54	5,663
903,72	3,356
903,89	2,999
904,07	3,456
904,24	3,769
904,42	3,170
904,59	2,943
904,77	4,057
904,94	4,609
905,12	1,121
905,29	3,736
905,47	3,754
905,64	3,962
905,81	3,108
905,99	3,422
906,16	4,289
906,34	4,000
906,51	3,836
906,69	2,018
906,86	3,273
907,03	3,391
907,21	2,596
907,38	2,303
907,56	3,826
907,73	4,068
907,91	3,992
908,08	4,394
908,25	2,225
908,43	4,413
908,60	3,243
908,78	4,255
908,95	4,735
909,13	3,729
909,30	2,280
909,47	2,673
909,65	3,878
909,82	3,793
910,00	3,791
910,17	2,374
910,34	4,012
910,52	1,563
910,69	5,494
910,87	4,233
911,04	3,558
911,21	4,214
911,39	3,568
911,56	3,333
911,73	2,336
911,91	3,858
912,08	3,175
912,26	2,484
912,43	3,092
912,60	3,667
912,78	2,378
912,95	4,062
913,13	2,891
913,30	3,139
913,47	3,143
913,65	1,946
913,82	3,346
913,99	3,494
914,17	3,752
914,34	3,555
914,51	4,087
914,69	2,421
914,86	3,777
915,03	3,580
915,21	3,114
915,38	3,106
915,56	3,026
915,73	2,951
915,90	3,126
916,08	3,423
916,25	2,966
916,42	2,621
916,60	4,256
916,77	2,629
916,94	2,319
917,12	3,503
917,29	2,912
917,46	2,154
917,64	2,692
917,81	3,673
917,98	2,213
918,16	3,812
918,33	3,012
918,50	3,058
918,67	2,573
918,85	2,628
919,02	1,828
919,19	3,886
919,37	2,879
919,54	3,018
919,71	3,220
919,89	2,587
920,06	1,819
920,23	2,201
920,41	2,746
920,58	2,218
920,75	3,756
920,92	1,681
921,10	1,815
921,27	1,257
921,44	3,398
921,62	1,468
921,79	2,230
921,96	2,323
922,13	2,960
922,31	1,979
922,48	3,645
922,65	2,116
922,82	2,186
923,00	3,220
923,17	1,625
923,34	2,441
923,52	2,642
923,69	2,690
923,86	2,885
924,03	1,650
924,21	2,157
924,38	3,605
924,55	3,296
924,72	2,809
924,90	2,463
925,07	3,062
925,24	1,977
925,41	2,348
925,59	1,474
925,76	2,906
925,93	2,181
926,10	2,285
926,28	2,122
926,45	2,940
926,62	2,539
926,79	2,805
926,96	2,459
927,14	2,805
927,31	2,315
927,48	2,207
927,65	2,187
927,83	2,415
928,00	2,210
928,17	2,308
928,34	2,124
928,51	3,260
928,69	1,327
928,86	2,703
929,03	2,946
929,20	2,433
929,37	2,128
929,55	1,700
929,72	2,554
929,89	2,032
930,06	1,604
930,23	2,185
930,41	2,469
930,58	3,017
930,75	2,370
930,92	2,602
931,09	2,465
931,27	2,532
931,44	2,189
931,61	2,817
931,78	2,516
931,95	1,743
932,12	2,426
932,30	2,559
932,47	3,401
932,64	2,329
932,81	2,488
932,98	1,966
933,16	1,456
933,33	2,174
933,50	2,226
933,67	2,836
933,84	1,269
934,01	2,036
934,18	2,476
934,36	1,911
934,53	0,941
934,70	2,523
934,87	2,988
935,04	2,297
935,21	1,495
935,38	2,517
935,56	1,679
935,73	1,199
935,90	0,589
936,07	2,159
936,24	2,399
936,41	1,789
936,58	1,654
936,76	2,653
936,93	1,086
937,10	1,400
937,27	1,630
937,44	1,752
937,61	2,755
937,78	1,872
937,95	1,342
938,13	1,833
938,30	1,632
938,47	2,576
938,64	1,984
938,81	1,760
938,98	1,622
939,15	2,376
939,32	1,900
939,49	1,772
939,66	2,993
939,84	2,645
940,01	2,436
940,18	1,817
940,35	2,088
940,52	1,308
940,69	3,185
940,86	1,917
941,03	2,133
941,20	2,535
941,37	2,327
941,54	0,731
941,71	1,148
941,89	2,120
942,06	1,787
942,23	1,840
942,40	2,769
942,57	2,853
942,74	2,334
942,91	1,943
943,08	2,396
943,25	1,764
943,42	2,102
943,59	2,958
943,76	2,952
943,93	1,722
944,10	2,202
944,27	2,143
944,44	2,061
944,61	2,351
944,79	2,103
944,96	3,138
945,13	1,458
945,30	1,324
945,47	2,617
945,64	2,099
945,81	3,729
945,98	2,791
946,15	3,306
946,32	2,804
946,49	3,529
946,66	2,340
946,83	2,654
947,00	3,584
947,17	3,199
947,34	2,598
947,51	2,982
947,68	3,241
947,85	2,282
948,02	2,450
948,19	3,834
948,36	3,718
948,53	3,589
948,70	5,079
948,87	4,680
949,04	1,974
949,21	2,002
949,38	3,925
949,55	1,847
949,72	3,229
949,89	4,004
950,06	2,652
950,23	3,588
950,40	4,574
950,57	2,236
950,74	5,596
950,91	2,819
951,08	4,223
951,25	4,832
951,42	4,475
951,59	2,644
951,76	3,036
951,93	4,353
952,10	4,130
952,27	3,747
952,44	2,193
952,61	4,578
952,77	4,942
952,94	6,744
953,11	5,853
953,28	2,932
953,45	4,610
953,62	6,651
953,79	4,878
953,96	6,827
954,13	3,673
954,30	5,954
954,47	4,981
954,64	4,311
954,81	6,180
954,98	6,250
955,15	5,366
955,32	4,646
955,49	4,899
955,65	7,548
955,82	6,476
955,99	7,888
956,16	8,147
956,33	5,439
956,50	7,478
956,67	6,583
956,84	8,963
957,01	8,814
957,18	9,064
957,35	10,792
957,52	9,564
957,68	11,333
957,85	6,553
958,02	8,872
958,19	10,705
958,36	10,195
958,53	6,728
958,70	11,765
958,87	10,861
959,04	11,405
959,21	13,939
959,37	14,069
959,54	14,553
959,71	9,519
959,88	10,538
960,05	16,115
960,22	8,402
960,39	13,600
960,56	15,696
960,72	14,806
960,89	17,237
961,06	13,376
961,23	17,904
961,40	15,296
961,57	15,977
961,74	16,139
961,90	18,125
962,07	15,525
962,24	15,772
962,41	16,080
962,58	17,900
962,75	16,814
962,92	19,065
963,08	11,818
963,25	18,559
963,42	14,493
963,59	25,207
963,76	26,292
963,93	30,206
964,10	20,128
964,26	26,096
964,43	29,457
964,60	33,420
964,77	29,639
964,94	24,716
965,10	36,607
965,27	35,248
965,44	28,312
965,61	28,375
965,78	41,214
965,95	39,820
966,11	44,892
966,28	31,227
966,45	39,252
966,62	49,538
966,79	57,551
966,95	40,597
967,12	35,331
967,29	41,667
967,46	48,864
967,63	37,358
967,79	46,847
967,96	42,424
968,13	49,000
968,30	51,210
968,47	53,265
968,63	56,757
968,80	53,670
968,97	65,385
969,14	62,791
969,31	56,111
969,47	72,941
969,64	83,333
969,81	52,850
969,98	64,286
970,14	44,785
970,31	76,730
970,48	61,667
970,65	69,822
970,81	69,863
970,98	102,920
971,15	105,102
971,32	68,750
971,48	78,231
971,65	54,615
971,82	106,863
971,99	134,483
972,15	111,972
972,32	125,225
972,49	102,797
972,66	142,727
972,82	100,000
972,99	93,496
973,16	151,724
973,33	100,000
973,49	95,789
973,66	121,505
973,83	133,981
974,00	148,837
974,16	118,627
974,33	157,018
974,50	77,895
974,67	148,421
974,83	122,619
975,00	134,737
975,17	98,901
975,33	105,618
975,50	144,776
975,67	228,571
975,84	156,716
976,00	138,202
976,17	160,656
976,34	70,000
976,50	124,719
976,67	152,427
976,84	3066,667
977,00	179,592
977,17	184,444
977,34	219,780
977,50	156,716
977,67	208,929
977,84	280,645
978,01	187,234
978,17	455,556
978,34	238,889
978,51	208,824
978,67	193,421
978,84	103,125
979,01	405,405
979,17	166,667
979,34	134,247
979,51	240,816
979,67	158,025
979,84	269,388
980,01	273,333
980,17	238,028
980,34	429,630
980,51	166,667
980,67	187,059
980,84	453,333
981,01	555,000
981,17	568,000
981,34	811,111
981,50	207,353
981,67	218,644
981,84	5900,000
982,00	480,000
982,17	259,524
982,34	176,667
982,50	593,333
982,67	170,833
982,84	2860,000
983,00	1950,000
983,17	234,328
983,33	175,862
983,50	1840,000
983,67	-372,414
983,83	396,970
984,00	-1557,143
984,17	588,889
984,33	-5950,000
984,50	477,143
984,66	282,609
984,83	194,805
985,00	-650,000
985,16	451,724
985,33	747,059
985,49	677,778
985,66	391,176
985,83	273,913
985,99	356,410
986,16	-3425,000
986,32	950,000
986,49	6600,000
986,66	454,545
986,82	908,333
986,99	262,264
987,15	-552,632
987,32	-328,571
987,49	340,000
987,65	5700,000
987,82	600,000
987,98	263,265
988,15	443,333
988,31	1080,000
988,48	-1850,000
988,65	330,952
988,81	347,222
988,98	300,000
989,14	414,286
989,31	604,762
989,47	300,000
989,64	-1030,769
989,80	950,000
989,97	351,351
990,14	-297,826
990,30	-513,636
990,47	261,224
990,63	350,000
990,80	278,000
990,96	-725,000
991,13	387,500
991,29	441,379
991,46	0,000
991,62	-830,769
991,79	1108,333
991,95	12800,000
992,12	-1430,000
992,29	-656,250
992,45	182,353
992,62	306,977
992,78	406,818
992,95	-533,333
993,11	457,143
993,28	1090,000
993,44	-1360,000
993,61	-937,500
993,77	-3100,000
993,94	-3800,000
994,10	-109,333
994,27	842,105
994,43	302,326
994,60	0,000
994,76	3200,000
994,93	645,000
995,09	-805,882
995,26	1622,222
995,42	284,314
995,59	785,714
995,75	753,846
995,92	2714,286
996,08	383,333
996,25	-1187,500
996,41	-5450,000
996,58	1100,000
996,74	347,727
996,91	479,310
997,07	0,000
997,23	13500,000
997,40	-18700,000
997,56	-1007,692
997,73	-1925,000
997,89	368,421
998,06	1207,692
998,22	-733,333
998,39	512,000
998,55	1422,222
998,72	-1475,000
998,88	-400,000
999,05	-134,615
999,21	433,333
999,37	-646,667
999,54	-1091,667
999,70	-336,667
999,87	881,250
1000,03	379,487
1000,20	362,500
1000,36	0,000
1000,52	475,000
1000,69	-528,571
1000,85	-720,000
1001,02	-541,667
1001,18	2625,000
1001,35	730,769
1001,51	752,941
1001,67	-923,077
1001,84	-2620,000
1002,00	397,297
1002,17	963,636
1002,33	-2725,000
1002,50	457,143
1002,66	-961,538
1002,82	317,500
1002,99	1000,000
1003,15	-2271,429
1003,32	-936,364
1003,48	417,857
1003,64	933,333
1003,81	622,222
1003,97	-5400,000
1004,14	963,636
1004,30	306,667
1004,46	-780,000
1004,63	1114,286
1004,79	366,667
1004,95	986,667
1005,12	6800,000
1005,28	524,138
1005,45	410,811
1005,61	413,793
1005,77	-245,833
1005,94	-476,190
1006,10	-4350,000
1006,26	1146,154
1006,43	-369,231
1006,59	-881,818
1006,76	800,000
1006,92	1177,778
1007,08	11400,000
1007,25	-351,852
1007,41	465,517
1007,57	5300,000
1007,74	1100,000
1007,90	-424,138
1008,06	334,783
1008,23	852,941
1008,39	-906,250
1008,55	-519,231
1008,72	-1285,714
1008,88	0,000
1009,04	358,537
1009,21	-331,579
1009,37	-1033,333
1009,53	271,429
1009,70	2366,667
1009,86	-692,857
1010,02	3500,000
1010,19	1181,818
1010,35	283,824
1010,51	-5900,000
1010,68	-1862,500
1010,84	-190,909
1011,00	681,250
1011,17	-381,818
1011,33	0,000
1011,49	-880,000
1011,66	800,000
1011,82	496,774
1011,98	685,714
1012,14	-636,364
1012,31	479,487
1012,47	0,000
1012,63	1983,333
1012,80	614,286
1012,96	-787,500
1013,12	-1500,000
1013,29	666,667
1013,45	378,049
1013,61	4533,333
1013,77	-126,786
1013,94	2900,000
1014,10	218,644
1014,26	-3900,000
1014,43	-404,000
1014,59	520,000
1014,75	-516,667
1014,91	-553,333
1015,08	386,111
1015,24	12600,000
1015,40	635,294
1015,56	-15900,000
1015,73	288,095
1015,89	754,545
1016,05	3525,000
1016,21	-1175,000
1016,38	647,368
1016,54	1415,385
1016,70	-3433,333
1016,86	465,625
1017,03	856,250
1017,19	-353,846
1017,35	-805,882
1017,51	-1840,000
1017,68	-920,000
1017,84	-1957,143
1018,00	290,476
1018,16	423,077
1018,33	-1642,857
1018,49	-1150,000
1018,65	-229,730
1018,81	320,513
1018,97	-1785,714
1019,14	-4633,333
1019,30	-284,615
1019,46	0,000
1019,62	-500,000
1019,79	-4033,333
1019,95	1483,333
1020,11	6450,000
1020,27	-377,778
1020,43	-450,000
1020,60	2083,333
1020,76	783,333
1020,92	1020,000
1021,08	655,000
1021,24	1270,000
1021,41	1088,889
1021,57	1537,500
1021,73	1084,615
1021,89	2540,000
1022,05	-425,000
1022,21	610,000
1022,38	-741,667
1022,54	-2350,000
1022,70	406,667
1022,86	-1725,000
1023,02	554,167
1023,19	2960,000
1023,35	3966,667
1023,51	445,833
1023,67	396,296
1023,83	-775,000
1023,99	363,158
1024,16	-384,615
1024,32	-1455,556
1024,48	-920,000
1024,64	354,762
1024,80	552,174
1024,96	405,128
1025,12	423,810
1025,29	600,000
1025,45	305,263
1025,61	688,889
1025,77	-3040,000
1025,93	-10300,000
1026,09	-1900,000
1026,26	1158,333
1026,42	681,250
1026,58	345,455
1026,74	1533,333
1026,90	476,000
1027,06	432,143
1027,22	1121,429
1027,38	301,923
1027,55	4266,667
1027,71	2000,000
1027,87	-400,000
1028,03	1090,000
1028,19	534,375
1028,35	675,000
1028,51	2120,000
1028,67	900,000
1028,83	-2725,000
1029,00	-300,000
1029,16	1600,000
1029,32	-335,714
1029,48	244,444
1029,64	313,889
1029,80	4600,000
1029,96	993,333
1030,12	504,348
1030,28	-3933,333
1030,44	-615,385
1030,61	-425,000
1030,77	-285,714
1030,93	-1000,000
1031,09	2250,000
1031,25	-10800,000
1031,41	-336,667
1031,57	438,462
1031,73	856,250
1031,89	-990,909
1032,05	-340,741
1032,21	1090,909
1032,37	-181,481
1032,53	-871,429
1032,69	-416,667
1032,86	551,852
1033,02	-250,000
1033,18	-731,250
1033,34	378,947
1033,50	-6400,000
1033,66	-343,902
1033,82	582,609
1033,98	-455,556
1034,14	189,744
1034,30	448,387
1034,46	-3933,333
1034,62	705,000
1034,78	-509,524
1034,94	300,000
1035,10	-715,385
1035,26	-174,419
1035,42	-379,310
1035,58	-588,889
1035,74	900,000
1035,90	-700,000
1036,06	-1366,667
1036,22	1266,667
1036,38	-835,294
1036,54	-458,333
1036,70	-169,697
1036,86	11800,000
1037,02	516,667
1037,18	878,947
1037,34	196,190
1037,50	-182,927
1037,66	-523,529
1037,82	2920,000
1037,98	-496,296
1038,14	-240,000
1038,30	-1650,000
1038,46	-528,571
1038,62	486,957
1038,78	-3866,667
1038,94	-452,632
1039,10	640,909
1039,26	455,556
1039,42	-725,000
1039,58	2014,286
1039,74	-763,158
1039,90	409,375
1040,06	-396,154
>>>>>End Processed Spectral Data<<<<<
