SpectraSuite Data File
++++++++++++++++++++++++++++++++++++
Date: Wed Feb 01 16:29:48 EET 2017
User: optolab
Dark Spectrum Present: Yes
Reference Spectrum Present: Yes
Number of Sampled Component Spectra: 1
Spectrometers: USB4C02475
Integration Time (usec): 100000 (USB4C02475)
Spectra Averaged: 1 (USB4C02475)
Boxcar Smoothing: 0 (USB4C02475)
Correct for Electrical Dark: No (USB4C02475)
Strobe/Lamp Enabled: No (USB4C02475)
Correct for Detector Non-linearity: No (USB4C02475)
Correct for Stray Light: No (USB4C02475)
Number of Pixels in Processed Spectrum: 3648
>>>>>Begin Processed Spectral Data<<<<<
344,91	3550,000
345,13	3550,000
345,35	3550,000
345,57	0,000
345,79	478,947
346,00	-1788,889
346,22	-2000,000
346,44	441,176
346,66	-575,000
346,87	-10600,000
347,09	403,030
347,31	-495,455
347,53	-320,513
347,74	284,615
347,96	457,576
348,18	589,474
348,40	429,032
348,61	1094,118
348,83	300,000
349,05	317,647
349,27	-6700,000
349,48	734,615
349,70	-344,828
349,92	467,742
350,14	281,132
350,35	342,000
350,57	2200,000
350,79	632,000
351,01	-819,048
351,22	307,407
351,44	1030,769
351,66	-416,000
351,87	-633,333
352,09	336,538
352,31	224,590
352,53	246,875
352,74	391,667
352,96	255,844
353,18	463,158
353,40	504,000
353,61	342,222
353,83	367,647
354,05	936,364
354,26	2350,000
354,48	262,000
354,70	300,000
354,92	-348,276
355,13	193,939
355,35	372,727
355,57	679,167
355,78	210,843
356,00	-4225,000
356,22	519,231
356,44	5650,000
356,65	361,364
356,87	553,846
357,09	533,333
357,30	262,222
357,52	255,172
357,74	895,000
357,95	402,564
358,17	208,197
358,39	232,258
358,60	432,432
358,82	512,500
359,04	477,778
359,26	488,571
359,47	7500,000
359,69	377,500
359,91	475,758
360,12	471,429
360,34	695,833
360,56	-140,741
360,77	3325,000
360,99	623,810
361,21	362,000
361,42	7100,000
361,64	259,184
361,86	269,231
362,07	-519,355
362,29	245,333
362,51	-582,353
362,72	644,000
362,94	385,294
363,16	267,442
363,37	-971,429
363,59	546,154
363,81	393,182
364,02	877,778
364,24	650,000
364,46	4133,333
364,67	1136,364
364,89	2428,571
365,11	232,857
365,32	610,345
365,54	294,444
365,76	318,367
365,97	302,941
366,19	225,862
366,41	504,545
366,62	477,778
366,84	344,186
367,05	377,551
367,27	2700,000
367,49	-653,846
367,70	670,588
367,92	285,246
368,14	260,417
368,35	-15000,000
368,57	536,000
368,79	568,966
369,00	304,348
369,22	-1825,000
369,43	209,412
369,65	238,710
369,87	548,649
370,08	161,446
370,30	246,429
370,51	219,672
370,73	266,667
370,95	272,581
371,16	250,000
371,38	476,667
371,60	1087,500
371,81	212,500
372,03	1026,667
372,24	550,000
372,46	220,755
372,68	187,143
372,89	403,030
373,11	453,846
373,32	400,000
373,54	-1130,769
373,76	969,231
373,97	1053,333
374,19	654,545
374,40	309,375
374,62	-4100,000
374,84	4300,000
375,05	425,000
375,27	384,000
375,48	-11300,000
375,70	194,667
375,92	207,143
376,13	406,250
376,35	236,986
376,56	1106,250
376,78	261,111
376,99	517,857
377,21	237,500
377,43	224,242
377,64	208,696
377,86	462,069
378,07	358,974
378,29	-2225,000
378,51	554,839
378,72	289,583
378,94	-1666,667
379,15	321,212
379,37	752,941
379,58	244,615
379,80	813,333
380,01	675,000
380,23	311,765
380,45	2040,000
380,66	4433,333
380,88	345,455
381,09	220,000
381,31	145,556
381,52	258,824
381,74	1466,667
381,95	563,636
382,17	365,385
382,39	552,381
382,60	155,102
382,82	351,282
383,03	276,923
383,25	312,903
383,46	322,727
383,68	570,370
383,89	625,000
384,11	354,839
384,32	-3800,000
384,54	783,333
384,76	-3666,667
384,97	430,303
385,19	551,724
385,40	301,961
385,62	271,930
385,83	297,619
386,05	252,941
386,26	294,000
386,48	240,230
386,69	287,500
386,91	555,000
387,12	205,085
387,34	236,207
387,55	270,968
387,77	375,000
387,98	573,077
388,20	198,913
388,41	405,882
388,63	11500,000
388,84	160,656
389,06	309,524
389,27	584,211
389,49	297,222
389,70	253,061
389,92	286,667
390,13	257,143
390,35	384,314
390,56	292,593
390,78	551,852
390,99	1170,000
391,21	536,842
391,42	380,000
391,64	370,732
391,85	189,655
392,07	338,636
392,28	240,000
392,50	342,424
392,71	-1487,500
392,93	273,077
393,14	480,556
393,36	261,224
393,57	97,744
393,79	1166,667
394,00	202,128
394,22	178,082
394,43	155,422
394,65	153,488
394,86	1400,000
395,08	480,952
395,29	258,491
395,50	661,538
395,72	761,111
395,93	909,524
396,15	183,099
396,36	207,353
396,58	276,667
396,79	257,500
397,01	222,000
397,22	372,222
397,44	193,939
397,65	212,281
397,87	314,286
398,08	234,694
398,29	453,125
398,51	233,929
398,72	285,366
398,94	180,000
399,15	414,286
399,37	242,105
399,58	159,341
399,80	472,727
400,01	238,889
400,22	514,286
400,44	223,457
400,65	610,714
400,87	236,765
401,08	237,143
401,30	195,652
401,51	212,281
401,72	338,462
401,94	181,013
402,15	420,000
402,37	152,941
402,58	822,222
402,80	254,286
403,01	226,761
403,22	927,273
403,44	244,928
403,65	201,786
403,87	221,429
404,08	466,667
404,30	191,765
404,51	-3833,333
404,72	194,286
404,94	128,431
405,15	198,000
405,37	162,025
405,58	171,765
405,79	189,024
406,01	290,244
406,22	175,862
406,44	242,553
406,65	240,351
406,86	181,250
407,08	145,570
407,29	151,456
407,51	136,585
407,72	137,963
407,93	165,217
408,15	90,598
408,36	244,186
408,58	156,701
408,79	70,000
409,00	169,792
409,22	206,349
409,43	182,278
409,64	94,410
409,86	91,195
410,07	105,385
410,29	105,970
410,50	111,348
410,71	79,464
410,93	75,796
411,14	118,605
411,35	83,929
411,57	82,895
411,78	73,438
412,00	77,707
412,21	89,677
412,42	96,825
412,64	64,378
412,85	52,062
413,06	56,707
413,28	45,946
413,49	53,081
413,70	65,217
413,92	70,751
414,13	31,950
414,34	62,835
414,56	38,462
414,77	66,667
414,98	48,993
415,20	36,678
415,41	49,292
415,63	45,025
415,84	28,056
416,05	40,659
416,27	32,558
416,48	42,978
416,69	41,150
416,91	29,189
417,12	29,679
417,33	33,684
417,55	22,736
417,76	34,086
417,97	22,199
418,19	22,863
418,40	22,979
418,61	23,889
418,83	24,364
419,04	18,612
419,25	18,847
419,46	24,361
419,68	15,238
419,89	20,268
420,10	16,735
420,32	10,087
420,53	18,885
420,74	19,060
420,96	16,250
421,17	17,783
421,38	12,731
421,60	10,927
421,81	7,745
422,02	11,912
422,23	10,892
422,45	12,052
422,66	12,647
422,87	13,601
423,09	14,535
423,30	7,749
423,51	13,150
423,73	11,253
423,94	10,644
424,15	9,932
424,36	11,181
424,58	12,625
424,79	10,618
425,00	6,811
425,22	11,205
425,43	9,967
425,64	8,548
425,85	7,780
426,07	9,850
426,28	6,794
426,49	7,400
426,71	6,871
426,92	4,027
427,13	5,978
427,34	5,245
427,56	6,989
427,77	6,112
427,98	6,448
428,19	5,448
428,41	8,254
428,62	6,948
428,83	7,153
429,04	7,049
429,26	9,173
429,47	9,125
429,68	8,970
429,89	12,121
430,11	13,929
430,32	14,344
430,53	16,947
430,74	19,827
430,96	21,498
431,17	23,154
431,38	26,970
431,59	29,016
431,81	33,301
432,02	33,666
432,23	35,988
432,44	38,503
432,66	40,646
432,87	42,521
433,08	42,788
433,29	44,922
433,51	42,073
433,72	46,172
433,93	44,061
434,14	46,768
434,35	47,762
434,57	46,524
434,78	49,606
434,99	48,389
435,20	48,492
435,42	49,473
435,63	48,671
435,84	48,333
436,05	48,502
436,26	47,567
436,48	47,219
436,69	47,852
436,90	48,382
437,11	46,668
437,32	47,328
437,54	47,655
437,75	46,865
437,96	47,249
438,17	45,943
438,38	46,732
438,60	46,738
438,81	46,184
439,02	48,578
439,23	48,743
439,44	49,893
439,66	53,485
439,87	56,220
440,08	60,070
440,29	63,454
440,50	67,228
440,72	71,747
440,93	73,257
441,14	76,847
441,35	78,918
441,56	79,765
441,77	82,196
441,99	83,473
442,20	84,725
442,41	84,202
442,62	86,634
442,83	87,290
443,04	87,616
443,26	87,710
443,47	88,451
443,68	88,756
443,89	87,776
444,10	89,075
444,31	88,197
444,53	87,012
444,74	87,548
444,95	86,442
445,16	87,819
445,37	85,560
445,58	85,483
445,80	86,454
446,01	86,298
446,22	86,854
446,43	86,663
446,64	87,336
446,85	87,910
447,06	87,644
447,28	88,165
447,49	88,658
447,70	89,283
447,91	90,920
448,12	90,937
448,33	90,972
448,54	92,212
448,76	90,827
448,97	90,510
449,18	90,632
449,39	88,946
449,60	89,713
449,81	88,149
450,02	89,317
450,23	87,068
450,45	86,925
450,66	86,994
450,87	86,242
451,08	85,922
451,29	86,836
451,50	85,892
451,71	85,121
451,92	85,218
452,13	84,057
452,35	84,765
452,56	84,204
452,77	84,289
452,98	83,053
453,19	84,032
453,40	82,849
453,61	83,305
453,82	82,748
454,03	82,668
454,25	82,573
454,46	83,185
454,67	83,218
454,88	84,027
455,09	83,783
455,30	84,603
455,51	85,714
455,72	85,607
455,93	86,399
456,14	85,829
456,35	85,638
456,56	86,516
456,78	86,433
456,99	87,393
457,20	86,812
457,41	85,726
457,62	86,308
457,83	84,827
458,04	85,100
458,25	86,471
458,46	84,825
458,67	83,688
458,88	83,106
459,09	81,702
459,30	81,038
459,51	79,830
459,73	79,341
459,94	77,123
460,15	74,382
460,36	72,991
460,57	71,850
460,78	69,655
460,99	67,920
461,20	64,961
461,41	63,150
461,62	60,839
461,83	58,844
462,04	56,913
462,25	54,668
462,46	50,895
462,67	49,567
462,88	47,325
463,09	43,744
463,30	41,668
463,51	38,960
463,72	35,579
463,93	33,070
464,15	30,720
464,36	28,487
464,57	26,222
464,78	23,456
464,99	21,125
465,20	19,088
465,41	17,082
465,62	14,891
465,83	12,546
466,04	10,679
466,25	9,069
466,46	7,497
466,67	6,076
466,88	5,100
467,09	4,171
467,30	3,383
467,51	2,650
467,72	2,033
467,93	1,580
468,14	1,366
468,35	1,201
468,56	1,002
468,77	0,896
468,98	0,845
469,19	0,605
469,40	0,743
469,61	0,657
469,82	0,598
470,03	0,757
470,24	0,841
470,45	0,754
470,66	0,602
470,87	0,703
471,08	0,750
471,29	0,658
471,50	0,883
471,71	0,729
471,92	0,749
472,13	0,600
472,34	0,622
472,55	0,669
472,76	0,748
472,97	0,781
473,18	0,762
473,39	0,667
473,60	0,756
473,81	0,594
474,01	0,762
474,22	0,735
474,43	0,902
474,64	0,586
474,85	0,579
475,06	0,526
475,27	0,672
475,48	0,735
475,69	0,594
475,90	0,666
476,11	0,684
476,32	0,560
476,53	0,820
476,74	0,839
476,95	0,756
477,16	0,519
477,37	0,786
477,58	0,693
477,79	0,942
478,00	0,738
478,21	0,621
478,41	0,845
478,62	0,631
478,83	0,807
479,04	0,807
479,25	0,665
479,46	0,641
479,67	0,770
479,88	0,841
480,09	0,665
480,30	0,837
480,51	0,801
480,72	0,937
480,93	0,814
481,14	0,569
481,34	0,752
481,55	0,448
481,76	0,590
481,97	0,809
482,18	0,739
482,39	0,660
482,60	0,695
482,81	0,745
483,02	0,602
483,23	0,733
483,44	0,769
483,65	0,720
483,85	0,666
484,06	0,799
484,27	0,655
484,48	0,582
484,69	0,944
484,90	0,854
485,11	0,647
485,32	0,701
485,53	0,823
485,73	0,893
485,94	0,714
486,15	0,703
486,36	0,570
486,57	0,649
486,78	0,664
486,99	0,922
487,20	0,544
487,41	0,683
487,61	0,642
487,82	0,734
488,03	0,532
488,24	0,670
488,45	0,620
488,66	0,854
488,87	0,609
489,08	0,649
489,28	0,648
489,49	0,871
489,70	0,745
489,91	0,806
490,12	0,691
490,33	0,691
490,54	0,660
490,74	0,718
490,95	0,684
491,16	0,735
491,37	0,818
491,58	0,532
491,79	0,750
492,00	0,658
492,20	0,775
492,41	0,675
492,62	0,483
492,83	0,722
493,04	0,514
493,25	0,655
493,45	0,562
493,66	0,836
493,87	0,676
494,08	0,628
494,29	0,498
494,50	0,519
494,70	0,747
494,91	0,863
495,12	0,763
495,33	0,757
495,54	0,726
495,75	0,832
495,95	0,614
496,16	0,785
496,37	0,734
496,58	0,962
496,79	0,694
496,99	0,826
497,20	0,745
497,41	0,754
497,62	0,693
497,83	0,725
498,04	0,795
498,24	0,678
498,45	0,843
498,66	0,829
498,87	0,782
499,08	0,637
499,28	0,787
499,49	0,816
499,70	0,873
499,91	0,854
500,12	0,688
500,32	0,783
500,53	0,842
500,74	0,873
500,95	1,012
501,15	0,924
501,36	1,011
501,57	0,927
501,78	1,066
501,99	1,155
502,19	1,016
502,40	1,306
502,61	1,692
502,82	1,866
503,02	2,508
503,23	2,810
503,44	3,510
503,65	4,802
503,86	5,643
504,06	7,183
504,27	8,834
504,48	10,507
504,69	12,253
504,89	14,489
505,10	16,996
505,31	19,974
505,52	22,539
505,72	25,281
505,93	27,982
506,14	31,658
506,35	34,878
506,55	38,392
506,76	41,554
506,97	45,078
507,18	48,954
507,38	52,494
507,59	54,995
507,80	59,026
508,01	62,012
508,21	64,845
508,42	69,120
508,63	72,258
508,84	74,607
509,04	76,887
509,25	79,364
509,46	80,720
509,67	82,847
509,87	85,283
510,08	86,976
510,29	87,827
510,49	88,259
510,70	89,760
510,91	90,226
511,12	90,937
511,32	89,858
511,53	89,925
511,74	90,244
511,94	89,660
512,15	89,672
512,36	89,263
512,57	88,352
512,77	89,899
512,98	87,381
513,19	87,947
513,39	87,735
513,60	86,247
513,81	87,019
514,01	85,870
514,22	85,812
514,43	85,341
514,64	85,310
514,84	84,969
515,05	84,744
515,26	83,471
515,46	84,035
515,67	84,281
515,88	83,082
516,08	83,210
516,29	82,561
516,50	82,022
516,70	81,826
516,91	82,212
517,12	81,692
517,32	81,911
517,53	82,132
517,74	82,875
517,95	81,278
518,15	81,718
518,36	81,729
518,57	81,519
518,77	81,472
518,98	82,837
519,19	82,924
519,39	82,336
519,60	83,119
519,80	83,207
520,01	83,250
520,22	83,816
520,42	84,233
520,63	84,177
520,84	84,044
521,04	84,593
521,25	84,123
521,46	83,546
521,66	84,288
521,87	84,504
522,08	84,036
522,28	83,779
522,49	83,265
522,70	83,138
522,90	83,017
523,11	83,817
523,31	82,619
523,52	81,840
523,73	82,194
523,93	79,570
524,14	79,524
524,35	79,138
524,55	77,928
524,76	77,039
524,97	77,025
525,17	76,751
525,38	75,494
525,58	75,020
525,79	75,396
526,00	75,754
526,20	75,277
526,41	76,013
526,61	77,637
526,82	78,019
527,03	77,998
527,23	78,998
527,44	79,390
527,64	80,788
527,85	81,499
528,06	83,090
528,26	83,660
528,47	84,485
528,68	84,780
528,88	86,884
529,09	87,242
529,29	88,709
529,50	90,173
529,70	90,923
529,91	90,557
530,12	91,104
530,32	91,776
530,53	92,707
530,73	92,899
530,94	94,806
531,15	94,025
531,35	93,916
531,56	95,301
531,76	94,906
531,97	95,623
532,17	96,276
532,38	94,992
532,59	96,116
532,79	95,168
533,00	95,024
533,20	94,846
533,41	94,540
533,61	92,940
533,82	92,543
534,03	91,430
534,23	91,163
534,44	90,115
534,64	88,128
534,85	87,151
535,05	86,092
535,26	85,357
535,46	83,347
535,67	82,012
535,88	80,423
536,08	77,589
536,29	75,323
536,49	72,738
536,70	71,639
536,90	69,002
537,11	66,205
537,31	63,129
537,52	60,677
537,72	57,447
537,93	54,550
538,13	51,518
538,34	48,670
538,55	46,299
538,75	42,770
538,96	40,568
539,16	37,429
539,37	34,856
539,57	32,509
539,78	29,898
539,98	27,777
540,19	25,680
540,39	22,881
540,60	20,986
540,80	19,109
541,01	16,627
541,21	15,129
541,42	12,955
541,62	10,963
541,83	9,374
542,03	7,796
542,24	6,115
542,44	5,242
542,65	4,142
542,85	3,565
543,06	3,033
543,26	2,330
543,47	1,914
543,67	1,849
543,88	1,662
544,08	1,343
544,29	1,290
544,49	1,107
544,70	0,996
544,90	0,981
545,11	0,840
545,31	0,904
545,52	0,751
545,72	0,940
545,93	0,595
546,13	0,804
546,34	0,579
546,54	0,807
546,75	0,697
546,95	0,701
547,15	0,636
547,36	0,731
547,56	1,039
547,77	0,782
547,97	0,730
548,18	0,725
548,38	0,709
548,59	0,880
548,79	0,640
549,00	0,595
549,20	0,737
549,41	0,814
549,61	0,660
549,81	0,679
550,02	0,916
550,22	0,525
550,43	0,677
550,63	0,807
550,84	0,808
551,04	0,719
551,25	0,853
551,45	0,820
551,65	0,800
551,86	0,735
552,06	0,693
552,27	0,517
552,47	0,814
552,68	0,803
552,88	0,574
553,08	0,598
553,29	0,670
553,49	0,496
553,70	0,734
553,90	0,611
554,11	0,636
554,31	0,611
554,51	0,783
554,72	0,581
554,92	0,741
555,13	0,613
555,33	0,873
555,53	0,812
555,74	0,694
555,94	0,704
556,15	0,592
556,35	0,630
556,56	0,799
556,76	0,851
556,96	0,616
557,17	0,687
557,37	0,727
557,58	0,751
557,78	0,513
557,98	0,621
558,19	0,668
558,39	0,728
558,59	0,768
558,80	0,735
559,00	0,680
559,21	0,591
559,41	0,465
559,61	0,680
559,82	0,774
560,02	0,521
560,23	0,799
560,43	0,631
560,63	0,580
560,84	0,543
561,04	0,476
561,24	0,730
561,45	0,623
561,65	0,481
561,85	0,859
562,06	0,698
562,26	0,504
562,47	0,741
562,67	0,618
562,87	0,609
563,08	0,528
563,28	0,537
563,48	0,711
563,69	0,478
563,89	0,525
564,09	0,657
564,30	0,666
564,50	0,675
564,70	0,721
564,91	0,814
565,11	0,572
565,31	0,628
565,52	0,644
565,72	0,598
565,92	0,743
566,13	0,471
566,33	0,618
566,53	0,525
566,74	0,605
566,94	0,518
567,14	0,552
567,35	0,665
567,55	0,591
567,75	0,758
567,96	0,567
568,16	0,610
568,36	0,536
568,57	0,621
568,77	0,658
568,97	0,635
569,18	0,636
569,38	0,806
569,58	0,543
569,79	0,753
569,99	0,573
570,19	0,657
570,39	0,819
570,60	0,623
570,80	0,477
571,00	0,574
571,21	0,568
571,41	0,600
571,61	0,699
571,82	0,565
572,02	0,633
572,22	0,719
572,42	0,686
572,63	0,835
572,83	0,635
573,03	0,560
573,24	0,722
573,44	0,520
573,64	0,689
573,84	0,703
574,05	0,605
574,25	0,635
574,45	0,544
574,66	0,527
574,86	0,868
575,06	0,697
575,26	0,535
575,47	0,694
575,67	0,749
575,87	0,510
576,07	0,481
576,28	0,705
576,48	0,652
576,68	0,471
576,88	0,343
577,09	0,688
577,29	0,553
577,49	0,573
577,69	0,645
577,90	0,756
578,10	0,541
578,30	0,595
578,50	0,561
578,71	0,779
578,91	0,628
579,11	0,790
579,31	0,670
579,52	0,513
579,72	0,701
579,92	0,679
580,12	0,634
580,33	0,712
580,53	0,555
580,73	0,675
580,93	0,849
581,13	0,628
581,34	0,754
581,54	0,800
581,74	0,589
581,94	0,873
582,15	0,611
582,35	0,528
582,55	0,818
582,75	0,861
582,95	0,769
583,16	0,714
583,36	0,853
583,56	0,648
583,76	0,642
583,96	0,814
584,17	0,602
584,37	0,804
584,57	0,673
584,77	0,892
584,97	0,798
585,18	0,822
585,38	0,813
585,58	0,918
585,78	0,845
585,98	0,884
586,19	1,055
586,39	1,037
586,59	1,028
586,79	1,175
586,99	1,208
587,20	1,504
587,40	1,716
587,60	1,961
587,80	2,488
588,00	2,568
588,20	3,114
588,41	3,858
588,61	4,371
588,81	5,343
589,01	6,299
589,21	7,430
589,41	8,778
589,62	10,246
589,82	11,698
590,02	13,815
590,22	15,941
590,42	18,191
590,62	20,405
590,83	22,354
591,03	24,953
591,23	27,295
591,43	29,413
591,63	31,582
591,83	34,304
592,03	35,527
592,24	37,847
592,44	39,665
592,64	41,746
592,84	43,442
593,04	44,824
593,24	46,046
593,44	47,711
593,65	49,468
593,85	50,416
594,05	51,379
594,25	53,029
594,45	54,306
594,65	56,026
594,85	57,756
595,06	59,212
595,26	61,707
595,46	64,484
595,66	65,903
595,86	68,654
596,06	70,980
596,26	73,524
596,46	76,082
596,66	78,465
596,87	80,227
597,07	82,924
597,27	85,765
597,47	87,983
597,67	88,320
597,87	88,936
598,07	89,443
598,27	92,077
598,47	91,394
598,67	93,066
598,88	94,323
599,08	93,300
599,28	94,522
599,48	94,050
599,68	94,120
599,88	93,957
600,08	94,024
600,28	94,393
600,48	95,270
600,68	94,314
600,88	94,614
601,09	95,712
601,29	94,025
601,49	95,735
601,69	96,112
601,89	95,331
602,09	96,762
602,29	95,893
602,49	96,723
602,69	96,933
602,89	96,265
603,09	97,678
603,29	97,211
603,49	97,994
603,69	97,306
603,90	97,843
604,10	98,528
604,30	98,426
604,50	97,876
604,70	98,194
604,90	98,964
605,10	99,905
605,30	99,523
605,50	99,289
605,70	99,615
605,90	100,424
606,10	99,494
606,30	99,611
606,50	100,142
606,70	100,763
606,90	99,225
607,10	100,112
607,30	100,537
607,50	99,195
607,70	99,787
607,90	98,787
608,10	99,823
608,30	98,692
608,50	98,477
608,70	98,225
608,90	99,010
609,11	98,515
609,31	97,762
609,51	98,624
609,71	98,015
609,91	97,298
610,11	97,292
610,31	96,948
610,51	96,675
610,71	96,557
610,91	96,456
611,11	95,760
611,31	96,257
611,51	95,875
611,71	96,771
611,91	96,289
612,11	96,399
612,31	96,699
612,51	95,518
612,71	96,855
612,91	96,456
613,11	96,308
613,31	97,299
613,51	96,812
613,71	96,675
613,91	97,581
614,11	97,567
614,31	96,919
614,50	98,249
614,70	96,543
614,90	97,956
615,10	97,454
615,30	97,511
615,50	97,360
615,70	97,131
615,90	97,407
616,10	96,450
616,30	96,607
616,50	97,193
616,70	96,272
616,90	97,012
617,10	96,369
617,30	96,832
617,50	96,903
617,70	96,827
617,90	97,223
618,10	96,149
618,30	97,146
618,50	96,787
618,70	97,012
618,90	98,457
619,10	97,127
619,30	96,426
619,49	97,118
619,69	96,445
619,89	97,541
620,09	96,884
620,29	96,982
620,49	96,104
620,69	95,464
620,89	96,388
621,09	95,479
621,29	95,374
621,49	94,435
621,69	93,338
621,89	93,426
622,09	92,189
622,29	93,262
622,48	93,008
622,68	92,257
622,88	91,855
623,08	91,487
623,28	91,702
623,48	91,886
623,68	92,681
623,88	92,367
624,08	91,617
624,28	92,399
624,48	92,268
624,67	92,032
624,87	92,062
625,07	92,131
625,27	92,071
625,47	93,249
625,67	94,089
625,87	93,207
626,07	93,053
626,27	92,949
626,47	93,943
626,66	93,028
626,86	92,757
627,06	93,374
627,26	92,712
627,46	92,880
627,66	92,275
627,86	92,455
628,06	91,697
628,25	89,742
628,45	90,255
628,65	90,110
628,85	87,857
629,05	87,109
629,25	86,309
629,45	85,731
629,65	85,728
629,84	84,736
630,04	83,613
630,24	82,846
630,44	81,018
630,64	81,664
630,84	80,055
631,04	79,013
631,23	78,493
631,43	77,671
631,63	76,329
631,83	75,908
632,03	74,194
632,23	72,628
632,42	71,835
632,62	70,714
632,82	69,245
633,02	68,491
633,22	67,638
633,42	66,471
633,62	65,222
633,81	64,138
634,01	62,253
634,21	60,876
634,41	59,930
634,61	58,916
634,80	57,373
635,00	57,369
635,20	56,030
635,40	54,332
635,60	53,502
635,80	52,695
635,99	52,604
636,19	50,843
636,39	50,568
636,59	49,748
636,79	49,951
636,98	48,289
637,18	48,247
637,38	47,870
637,58	48,097
637,78	46,583
637,97	47,088
638,17	47,118
638,37	45,619
638,57	45,434
638,77	44,969
638,96	44,633
639,16	43,853
639,36	43,248
639,56	42,892
639,76	41,417
639,95	42,083
640,15	40,414
640,35	40,277
640,55	38,858
640,75	37,929
640,94	37,467
641,14	36,148
641,34	35,560
641,54	33,806
641,73	32,577
641,93	31,898
642,13	30,991
642,33	29,276
642,53	27,639
642,72	26,754
642,92	25,238
643,12	23,676
643,32	23,152
643,51	21,030
643,71	19,489
643,91	17,886
644,11	17,348
644,30	15,016
644,50	14,019
644,70	13,338
644,90	11,768
645,09	11,326
645,29	9,402
645,49	8,833
645,69	7,653
645,88	7,077
646,08	6,356
646,28	6,094
646,48	4,930
646,67	4,306
646,87	3,785
647,07	3,232
647,26	3,097
647,46	2,662
647,66	2,384
647,86	2,177
648,05	1,881
648,25	1,777
648,45	1,504
648,65	1,634
648,84	1,280
649,04	1,658
649,24	1,702
649,43	1,147
649,63	1,630
649,83	1,516
650,03	1,251
650,22	1,326
650,42	1,271
650,62	0,752
650,81	1,446
651,01	1,290
651,21	1,273
651,40	0,897
651,60	1,161
651,80	1,364
652,00	1,099
652,19	1,128
652,39	1,678
652,59	1,322
652,78	1,008
652,98	0,964
653,18	0,912
653,37	1,039
653,57	1,106
653,77	0,811
653,96	0,874
654,16	1,154
654,36	1,183
654,55	1,622
654,75	1,096
654,95	1,667
655,14	0,898
655,34	1,132
655,54	1,343
655,73	0,505
655,93	1,631
656,13	0,676
656,32	0,896
656,52	0,681
656,72	1,158
656,91	1,218
657,11	1,080
657,31	1,116
657,50	1,138
657,70	1,210
657,90	0,904
658,09	1,169
658,29	1,543
658,49	0,930
658,68	1,225
658,88	1,139
659,07	0,853
659,27	1,099
659,47	1,459
659,66	0,688
659,86	1,386
660,06	1,204
660,25	0,812
660,45	1,199
660,64	1,411
660,84	0,861
661,04	1,242
661,23	1,086
661,43	1,320
661,63	1,185
661,82	0,986
662,02	1,333
662,21	1,023
662,41	0,869
662,61	1,776
662,80	0,829
663,00	1,267
663,19	1,185
663,39	1,160
663,59	1,367
663,78	0,893
663,98	0,898
664,17	1,052
664,37	1,120
664,57	1,208
664,76	1,434
664,96	1,005
665,15	0,670
665,35	1,008
665,55	0,761
665,74	1,111
665,94	0,664
666,13	1,343
666,33	0,603
666,53	1,377
666,72	0,928
666,92	1,364
667,11	1,129
667,31	0,924
667,50	1,249
667,70	1,276
667,90	0,870
668,09	0,903
668,29	1,019
668,48	0,916
668,68	1,019
668,87	0,954
669,07	1,130
669,26	1,192
669,46	1,214
669,66	1,152
669,85	1,011
670,05	0,623
670,24	0,759
670,44	1,019
670,63	1,038
670,83	0,860
671,02	1,372
671,22	1,357
671,42	0,873
671,61	0,753
671,81	0,902
672,00	0,967
672,20	0,990
672,39	0,721
672,59	0,717
672,78	0,901
672,98	0,830
673,17	0,593
673,37	0,516
673,56	0,589
673,76	0,854
673,95	0,627
674,15	0,534
674,34	0,902
674,54	0,928
674,73	0,632
674,93	0,778
675,13	0,601
675,32	0,763
675,52	0,991
675,71	0,819
675,91	0,678
676,10	0,338
676,30	0,661
676,49	0,659
676,69	0,754
676,88	1,118
677,08	0,825
677,27	0,815
677,47	0,765
677,66	0,695
677,86	1,013
678,05	0,712
678,24	0,437
678,44	0,740
678,63	0,656
678,83	0,883
679,02	0,833
679,22	0,536
679,41	0,699
679,61	0,406
679,80	0,567
680,00	0,709
680,19	0,482
680,39	0,682
680,58	0,663
680,78	0,481
680,97	0,511
681,17	0,546
681,36	0,607
681,56	0,580
681,75	0,693
681,94	0,566
682,14	0,667
682,33	0,697
682,53	0,726
682,72	0,644
682,92	0,778
683,11	0,891
683,31	0,346
683,50	0,486
683,69	0,708
683,89	0,406
684,08	0,538
684,28	0,376
684,47	0,748
684,67	0,591
684,86	0,236
685,06	0,334
685,25	0,419
685,44	0,420
685,64	0,413
685,83	0,555
686,03	0,403
686,22	0,451
686,42	0,301
686,61	0,551
686,80	0,512
687,00	0,327
687,19	0,777
687,39	0,373
687,58	0,382
687,77	0,300
687,97	0,657
688,16	0,373
688,36	0,410
688,55	0,433
688,74	0,622
688,94	0,404
689,13	0,424
689,33	0,397
689,52	0,548
689,71	0,515
689,91	0,274
690,10	0,432
690,30	0,455
690,49	0,526
690,68	0,433
690,88	0,698
691,07	0,354
691,27	0,443
691,46	0,356
691,65	0,472
691,85	0,423
692,04	0,331
692,23	0,492
692,43	0,347
692,62	0,493
692,82	0,514
693,01	0,349
693,20	0,531
693,40	0,419
693,59	0,509
693,78	0,376
693,98	0,351
694,17	0,334
694,36	0,622
694,56	0,535
694,75	0,252
694,94	0,478
695,14	0,537
695,33	0,311
695,53	0,475
695,72	0,489
695,91	0,421
696,11	0,421
696,30	0,430
696,49	0,358
696,69	0,597
696,88	0,576
697,07	0,294
697,27	0,248
697,46	0,468
697,65	0,388
697,85	0,495
698,04	0,452
698,23	0,497
698,43	0,665
698,62	0,631
698,81	0,575
699,01	1,018
699,20	0,694
699,39	0,669
699,58	0,858
699,78	1,023
699,97	0,779
700,16	1,166
700,36	0,585
700,55	0,946
700,74	0,850
700,94	0,993
701,13	1,301
701,32	1,149
701,52	1,206
701,71	0,989
701,90	1,350
702,09	1,381
702,29	1,186
702,48	1,556
702,67	1,147
702,87	0,767
703,06	1,452
703,25	1,643
703,44	0,743
703,64	1,481
703,83	1,970
704,02	1,081
704,22	1,317
704,41	1,334
704,60	2,137
704,79	1,282
704,99	2,104
705,18	1,967
705,37	2,470
705,56	2,188
705,76	1,896
705,95	2,398
706,14	1,728
706,33	2,561
706,53	2,552
706,72	1,731
706,91	2,473
707,11	3,430
707,30	3,509
707,49	4,574
707,68	2,416
707,88	2,200
708,07	2,357
708,26	2,235
708,45	2,473
708,64	3,328
708,84	2,387
709,03	2,910
709,22	3,189
709,41	2,308
709,61	2,996
709,80	4,198
709,99	3,477
710,18	4,173
710,38	3,319
710,57	2,814
710,76	2,177
710,95	2,990
711,14	4,774
711,34	5,341
711,53	4,758
711,72	3,222
711,91	2,448
712,11	5,800
712,30	5,743
712,49	6,247
712,68	3,466
712,87	5,083
713,07	5,394
713,26	4,807
713,45	6,442
713,64	4,944
713,83	4,113
714,03	6,098
714,22	6,292
714,41	6,191
714,60	5,355
714,79	4,228
714,99	5,659
715,18	5,439
715,37	6,987
715,56	5,527
715,75	4,812
715,94	5,793
716,14	5,944
716,33	5,711
716,52	5,317
716,71	5,642
716,90	5,892
717,10	5,401
717,29	6,286
717,48	7,084
717,67	3,051
717,86	7,726
718,05	2,818
718,24	5,692
718,44	7,966
718,63	8,653
718,82	7,179
719,01	6,675
719,20	6,566
719,39	6,250
719,59	5,267
719,78	5,616
719,97	8,996
720,16	7,676
720,35	8,357
720,54	7,757
720,73	7,720
720,93	9,462
721,12	5,535
721,31	7,902
721,50	7,715
721,69	8,038
721,88	9,578
722,07	7,722
722,27	8,455
722,46	4,600
722,65	5,397
722,84	8,791
723,03	7,363
723,22	9,895
723,41	9,520
723,60	9,023
723,79	8,129
723,99	8,591
724,18	12,534
724,37	5,757
724,56	14,987
724,75	13,458
724,94	15,257
725,13	14,100
725,32	10,266
725,51	11,775
725,71	7,955
725,90	10,516
726,09	11,231
726,28	14,445
726,47	8,691
726,66	9,488
726,85	9,631
727,04	12,876
727,23	8,847
727,42	14,829
727,61	5,608
727,81	10,219
728,00	14,315
728,19	7,895
728,38	10,367
728,57	9,224
728,76	15,762
728,95	14,063
729,14	8,267
729,33	17,892
729,52	11,361
729,71	11,825
729,90	13,777
730,09	12,150
730,28	16,166
730,48	11,253
730,67	13,664
730,86	11,070
731,05	10,047
731,24	8,446
731,43	16,352
731,62	14,286
731,81	7,624
732,00	13,850
732,19	11,750
732,38	13,874
732,57	10,627
732,76	13,690
732,95	11,467
733,14	7,542
733,33	10,852
733,52	16,223
733,71	10,345
733,90	19,923
734,09	11,361
734,28	15,862
734,47	13,289
734,66	17,503
734,85	12,624
735,04	16,349
735,23	17,593
735,42	13,545
735,61	19,467
735,81	17,655
736,00	21,837
736,19	18,343
736,38	15,852
736,57	22,423
736,76	11,318
736,95	15,455
737,14	15,198
737,33	14,767
737,52	22,926
737,71	12,500
737,90	20,272
738,09	23,466
738,28	16,427
738,47	9,150
738,66	13,281
738,85	17,526
739,04	26,825
739,22	10,811
739,41	18,226
739,60	12,040
739,79	18,151
739,98	16,334
740,17	22,109
740,36	22,857
740,55	26,631
740,74	17,739
740,93	17,886
741,12	20,037
741,31	28,493
741,50	16,761
741,69	14,630
741,88	15,400
742,07	12,635
742,26	12,172
742,45	17,589
742,64	26,799
742,83	16,170
743,02	13,874
743,21	23,944
743,40	16,507
743,59	21,926
743,78	23,799
743,97	26,692
744,16	21,729
744,34	28,543
744,53	21,516
744,72	23,493
744,91	2,105
745,10	21,776
745,29	18,676
745,48	15,656
745,67	29,735
745,86	23,709
746,05	25,114
746,24	22,658
746,43	29,551
746,62	12,442
746,81	23,516
747,00	24,217
747,18	32,747
747,37	22,601
747,56	17,978
747,75	18,818
747,94	33,698
748,13	30,594
748,32	30,983
748,51	31,828
748,70	29,257
748,89	30,676
749,08	26,286
749,26	18,854
749,45	38,118
749,64	28,040
749,83	20,611
750,02	26,796
750,21	11,144
750,40	18,750
750,59	28,066
750,78	36,686
750,96	29,050
751,15	25,683
751,34	36,649
751,53	31,034
751,72	23,181
751,91	26,027
752,10	12,037
752,29	27,684
752,47	21,629
752,66	35,211
752,85	21,053
753,04	33,123
753,23	22,517
753,42	23,708
753,61	26,144
753,80	36,314
753,98	17,895
754,17	22,086
754,36	37,006
754,55	30,721
754,74	36,416
754,93	41,499
755,12	27,733
755,30	31,579
755,49	31,804
755,68	40,058
755,87	26,426
756,06	38,547
756,25	34,603
756,43	38,966
756,62	21,958
756,81	34,323
757,00	35,652
757,19	38,356
757,38	31,230
757,56	35,161
757,75	42,810
757,94	41,640
758,13	26,299
758,32	33,333
758,51	38,603
758,69	18,400
758,88	35,135
759,07	43,011
759,26	31,163
759,45	31,878
759,63	55,762
759,82	34,343
760,01	32,776
760,20	45,914
760,39	36,194
760,57	50,826
760,76	26,577
760,95	39,815
761,14	49,388
761,33	33,438
761,51	43,728
761,70	48,621
761,89	34,836
762,08	46,977
762,27	36,630
762,45	42,802
762,64	38,095
762,83	36,726
763,02	40,465
763,21	24,138
763,39	46,939
763,58	48,679
763,77	47,876
763,96	61,044
764,14	42,500
764,33	40,293
764,52	68,670
764,71	48,430
764,89	25,000
765,08	46,552
765,27	40,892
765,46	43,478
765,65	38,865
765,83	35,931
766,02	21,702
766,21	72,376
766,40	73,333
766,58	60,976
766,77	61,194
766,96	60,000
767,15	71,498
767,33	33,333
767,52	45,732
767,71	47,391
767,90	53,933
768,08	50,584
768,27	52,500
768,46	44,531
768,64	68,394
768,83	57,812
769,02	59,000
769,21	49,345
769,39	66,279
769,58	75,723
769,77	58,238
769,96	57,592
770,14	42,857
770,33	42,991
770,52	46,561
770,70	61,333
770,89	67,785
771,08	52,119
771,27	66,495
771,45	56,140
771,64	86,458
771,83	56,075
772,01	61,446
772,20	60,302
772,39	51,333
772,57	68,992
772,76	57,778
772,95	51,773
773,14	72,581
773,32	52,903
773,51	68,657
773,70	85,625
773,88	88,525
774,07	58,115
774,26	56,738
774,44	59,756
774,63	71,574
774,82	65,244
775,00	52,667
775,19	48,000
775,38	53,179
775,56	69,271
775,75	80,723
775,94	89,241
776,12	67,403
776,31	85,294
776,50	48,295
776,68	61,579
776,87	81,818
777,06	66,897
777,24	77,222
777,43	60,256
777,62	106,618
777,80	72,973
777,99	53,714
778,18	78,713
778,36	72,800
778,55	84,298
778,74	100,000
778,92	84,615
779,11	91,667
779,29	95,597
779,48	65,986
779,67	72,868
779,85	60,976
780,04	62,703
780,23	66,187
780,41	57,031
780,60	55,263
780,79	107,345
780,97	77,632
781,16	80,000
781,34	69,072
781,53	89,744
781,72	78,832
781,90	35,937
782,09	45,806
782,28	84,672
782,46	62,222
782,65	65,714
782,83	131,461
783,02	77,500
783,21	92,667
783,39	113,913
783,58	67,456
783,76	76,536
783,95	81,212
784,14	99,338
784,32	109,396
784,51	101,724
784,69	83,051
784,88	122,523
785,06	89,076
785,25	90,446
785,44	68,345
785,62	80,714
785,81	160,563
785,99	94,245
786,18	85,135
786,37	65,185
786,55	82,569
786,74	73,684
786,92	105,469
787,11	85,000
787,29	41,791
787,48	64,000
787,67	102,410
787,85	112,069
788,04	68,812
788,22	66,393
788,41	104,706
788,59	117,431
788,78	71,515
788,96	111,321
789,15	149,474
789,34	113,636
789,52	100,000
789,71	89,922
789,89	236,170
790,08	88,356
790,26	75,714
790,45	74,242
790,63	109,259
790,82	93,939
791,00	58,333
791,19	149,462
791,38	122,917
791,56	93,860
791,75	123,853
791,93	82,759
792,12	91,716
792,30	96,800
792,49	115,126
792,67	105,970
792,86	68,217
793,04	105,607
793,23	74,167
793,41	100,000
793,60	116,162
793,78	103,509
793,97	153,846
794,15	98,182
794,34	119,780
794,52	171,429
794,71	123,457
794,89	72,222
795,08	100,000
795,26	97,222
795,45	101,493
795,63	117,424
795,82	91,589
796,00	109,174
796,19	125,000
796,37	87,591
796,56	127,957
796,74	113,274
796,93	117,978
797,11	79,747
797,30	70,833
797,48	93,103
797,67	106,667
797,85	110,204
798,04	105,208
798,22	95,238
798,41	132,353
798,59	93,684
798,77	175,385
798,96	87,097
799,14	142,241
799,33	103,053
799,51	74,615
799,70	97,315
799,88	142,424
800,07	93,421
800,25	108,276
800,44	108,081
800,62	118,824
800,80	127,536
800,99	133,333
801,17	96,552
801,36	79,310
801,54	100,000
801,73	93,939
801,91	97,541
802,10	126,190
802,28	137,383
802,46	77,778
802,65	67,816
802,83	165,169
803,02	126,316
803,20	128,906
803,39	127,586
803,57	178,313
803,75	92,568
803,94	104,202
804,12	95,833
804,31	98,230
804,49	83,654
804,67	98,400
804,86	99,107
805,04	108,108
805,23	112,414
805,41	92,623
805,59	86,885
805,78	88,636
805,96	99,359
806,15	111,719
806,33	107,563
806,51	100,000
806,70	240,000
806,88	121,138
807,07	68,254
807,25	81,132
807,43	82,119
807,62	81,301
807,80	117,204
807,99	105,556
808,17	99,291
808,35	92,105
808,54	123,656
808,72	73,600
808,90	110,526
809,09	110,833
809,27	109,910
809,46	130,357
809,64	100,980
809,82	71,264
810,01	112,879
810,19	123,000
810,37	85,385
810,56	114,634
810,74	66,225
810,92	108,333
811,11	145,098
811,29	100,709
811,48	127,273
811,66	110,078
811,84	115,596
812,03	83,636
812,21	116,667
812,39	111,017
812,58	125,490
812,76	100,000
812,94	111,333
813,13	63,492
813,31	90,000
813,49	159,783
813,68	98,261
813,86	125,510
814,04	110,680
814,23	162,626
814,41	62,500
814,59	96,610
814,78	118,382
814,96	76,577
815,14	136,667
815,33	105,072
815,51	74,074
815,69	117,284
815,87	92,174
816,06	87,500
816,24	94,702
816,42	37,821
816,61	72,881
816,79	192,771
816,97	62,162
817,16	54,194
817,34	85,517
817,52	91,724
817,70	126,984
817,89	53,719
818,07	84,483
818,25	91,892
818,44	92,442
818,62	103,448
818,80	75,524
818,98	89,524
819,17	78,462
819,35	87,647
819,53	74,257
819,72	82,558
819,90	73,653
820,08	70,130
820,26	128,070
820,45	81,325
820,63	96,875
820,81	61,745
820,99	121,053
821,18	78,519
821,36	79,524
821,54	77,326
821,73	71,892
821,91	62,234
822,09	74,118
822,27	72,081
822,46	76,875
822,64	86,755
822,82	74,146
823,00	59,459
823,19	67,424
823,37	68,571
823,55	62,353
823,73	122,000
823,91	64,641
824,10	86,592
824,28	89,630
824,46	61,047
824,64	65,196
824,83	60,976
825,01	71,739
825,19	79,429
825,37	77,083
825,56	72,500
825,74	60,000
825,92	72,472
826,10	80,124
826,28	74,497
826,47	66,667
826,65	87,162
826,83	65,054
827,01	70,455
827,19	70,886
827,38	91,192
827,56	86,538
827,74	73,171
827,92	74,146
828,10	73,913
828,29	71,429
828,47	58,333
828,65	43,243
828,83	58,081
829,01	62,667
829,20	82,278
829,38	48,133
829,56	70,040
829,74	71,212
829,92	68,557
830,10	57,658
830,29	75,135
830,47	94,271
830,65	49,107
830,83	80,000
831,01	56,250
831,20	56,436
831,38	60,488
831,56	59,514
831,74	88,571
831,92	57,955
832,10	63,182
832,29	82,464
832,47	60,177
832,65	69,787
832,83	44,186
833,01	37,549
833,19	42,986
833,37	57,037
833,56	57,277
833,74	52,227
833,92	60,177
834,10	63,959
834,28	52,692
834,46	56,747
834,64	49,219
834,83	47,099
835,01	47,471
835,19	70,142
835,37	54,980
835,55	51,625
835,73	48,529
835,91	35,135
836,09	33,610
836,28	57,634
836,46	42,105
836,64	53,279
836,82	45,149
837,00	46,599
837,18	69,565
837,36	58,824
837,54	29,545
837,72	33,865
837,91	43,775
838,09	37,600
838,27	55,678
838,45	46,602
838,63	40,339
838,81	50,987
838,99	42,509
839,17	47,249
839,35	57,037
839,53	36,577
839,72	36,017
839,90	32,827
840,08	38,141
840,26	40,063
840,44	37,346
840,62	33,333
840,80	35,494
840,98	46,828
841,16	32,384
841,34	26,957
841,52	33,866
841,70	47,811
841,89	31,613
842,07	30,811
842,25	28,247
842,43	40,000
842,61	37,802
842,79	41,463
842,97	28,354
843,15	44,126
843,33	30,166
843,51	36,516
843,69	30,278
843,87	36,119
844,05	28,032
844,23	32,703
844,41	32,161
844,59	21,875
844,77	29,683
844,95	36,650
845,13	42,623
845,31	27,933
845,50	44,072
845,68	25,907
845,86	37,972
846,04	35,062
846,22	35,322
846,40	18,110
846,58	24,397
846,76	31,671
846,94	35,096
847,12	35,071
847,30	21,889
847,48	35,252
847,66	31,951
847,84	23,858
848,02	33,472
848,20	30,905
848,38	29,832
848,56	39,785
848,74	25,207
848,92	31,733
849,10	30,580
849,28	34,641
849,46	20,093
849,64	25,952
849,82	26,202
850,00	24,025
850,18	26,328
850,36	26,535
850,54	36,547
850,72	28,482
850,90	29,440
851,08	23,251
851,26	34,615
851,44	30,120
851,62	21,192
851,80	17,694
851,98	36,008
852,16	40,535
852,34	31,689
852,52	19,682
852,70	9,639
852,87	20,190
853,05	22,645
853,23	27,059
853,41	19,427
853,59	16,981
853,77	31,746
853,95	34,746
854,13	18,835
854,31	28,272
854,49	18,637
854,67	28,008
854,85	26,261
855,03	21,648
855,21	21,489
855,39	22,819
855,57	24,094
855,75	25,464
855,93	20,848
856,11	27,751
856,28	16,840
856,46	19,281
856,64	20,550
856,82	19,372
857,00	18,685
857,18	28,482
857,36	18,992
857,54	19,088
857,72	21,536
857,90	19,605
858,08	18,827
858,26	12,232
858,44	17,702
858,61	18,371
858,79	25,271
858,97	20,057
859,15	16,438
859,33	12,577
859,51	17,891
859,69	13,095
859,87	22,694
860,05	19,107
860,23	13,030
860,40	17,051
860,58	14,799
860,76	16,667
860,94	13,740
861,12	15,722
861,30	18,468
861,48	16,147
861,66	20,505
861,84	20,251
862,01	22,995
862,19	21,816
862,37	16,472
862,55	11,421
862,73	19,837
862,91	11,995
863,09	19,116
863,27	8,078
863,44	11,258
863,62	14,025
863,80	13,103
863,98	18,391
864,16	9,248
864,34	13,117
864,52	18,109
864,69	17,349
864,87	13,945
865,05	12,613
865,23	14,130
865,41	20,024
865,59	16,193
865,76	16,796
865,94	13,395
866,12	14,609
866,30	10,307
866,48	8,978
866,66	14,425
866,83	11,160
867,01	17,605
867,19	13,886
867,37	9,604
867,55	10,977
867,73	10,023
867,90	16,063
868,08	16,885
868,26	8,894
868,44	8,691
868,62	12,853
868,79	9,632
868,97	15,245
869,15	11,783
869,33	8,490
869,51	15,287
869,69	15,016
869,86	9,333
870,04	11,323
870,22	7,908
870,40	10,606
870,57	12,000
870,75	15,326
870,93	11,863
871,11	11,292
871,29	13,415
871,46	9,063
871,64	10,584
871,82	9,854
872,00	14,540
872,18	16,377
872,35	12,567
872,53	16,352
872,71	8,855
872,89	12,234
873,06	13,561
873,24	12,592
873,42	8,692
873,60	5,877
873,77	12,900
873,95	7,680
874,13	12,433
874,31	8,645
874,49	11,421
874,66	9,622
874,84	10,124
875,02	12,368
875,20	9,504
875,37	6,133
875,55	5,588
875,73	7,852
875,91	13,594
876,08	7,723
876,26	8,077
876,44	9,105
876,61	10,000
876,79	11,059
876,97	7,620
877,15	13,130
877,32	6,772
877,50	11,917
877,68	9,910
877,86	8,455
878,03	8,135
878,21	8,923
878,39	8,741
878,56	8,555
878,74	4,772
878,92	7,344
879,10	7,840
879,27	9,847
879,45	13,329
879,63	8,166
879,80	6,526
879,98	4,982
880,16	9,449
880,34	5,267
880,51	10,631
880,69	9,657
880,87	5,842
881,04	8,317
881,22	8,103
881,40	5,091
881,57	6,726
881,75	8,546
881,93	6,378
882,10	10,122
882,28	4,480
882,46	6,916
882,63	10,867
882,81	6,437
882,99	6,168
883,16	7,542
883,34	6,801
883,52	6,075
883,69	7,388
883,87	7,913
884,05	3,310
884,22	5,450
884,40	8,293
884,58	6,480
884,75	4,643
884,93	7,120
885,11	5,767
885,28	7,553
885,46	5,856
885,64	5,131
885,81	8,171
885,99	4,357
886,17	5,321
886,34	6,083
886,52	3,988
886,70	5,109
886,87	7,354
887,05	5,386
887,22	4,972
887,40	7,805
887,58	5,075
887,75	7,378
887,93	7,165
888,11	4,647
888,28	5,358
888,46	4,004
888,63	6,704
888,81	4,710
888,99	4,882
889,16	3,709
889,34	6,898
889,51	6,336
889,69	5,031
889,87	3,665
890,04	3,453
890,22	4,374
890,39	4,069
890,57	3,945
890,75	5,515
890,92	5,350
891,10	4,483
891,27	5,373
891,45	4,667
891,63	6,678
891,80	3,875
891,98	5,895
892,15	4,272
892,33	5,031
892,51	5,033
892,68	3,792
892,86	4,488
893,03	3,985
893,21	5,489
893,38	3,984
893,56	4,421
893,74	4,859
893,91	5,479
894,09	7,057
894,26	5,408
894,44	4,682
894,61	4,096
894,79	4,692
894,96	5,530
895,14	5,654
895,32	3,621
895,49	3,527
895,67	4,788
895,84	5,017
896,02	4,099
896,19	4,444
896,37	5,425
896,54	4,566
896,72	5,343
896,89	4,168
897,07	4,042
897,25	4,655
897,42	3,944
897,60	4,544
897,77	4,794
897,95	5,307
898,12	3,574
898,30	3,831
898,47	3,881
898,65	4,550
898,82	3,638
899,00	3,210
899,17	3,779
899,35	3,327
899,52	3,257
899,70	2,766
899,87	3,488
900,05	5,453
900,22	2,887
900,40	4,120
900,57	5,174
900,75	3,324
900,92	3,152
901,10	4,015
901,27	4,220
901,45	4,724
901,62	3,597
901,80	3,674
901,97	3,409
902,15	4,839
902,32	5,603
902,50	3,707
902,67	4,288
902,85	3,171
903,02	5,057
903,20	3,747
903,37	4,474
903,54	5,163
903,72	2,468
903,89	4,384
904,07	3,521
904,24	2,924
904,42	3,518
904,59	3,199
904,77	3,440
904,94	3,603
905,12	1,649
905,29	4,342
905,47	4,556
905,64	3,803
905,81	3,513
905,99	3,297
906,16	3,444
906,34	4,698
906,51	3,345
906,69	3,011
906,86	2,796
907,03	4,522
907,21	2,138
907,38	3,071
907,56	2,923
907,73	3,613
907,91	3,904
908,08	3,418
908,25	2,926
908,43	3,256
908,60	3,243
908,78	4,994
908,95	3,956
909,13	4,564
909,30	2,584
909,47	4,230
909,65	3,936
909,82	3,764
910,00	2,596
910,17	3,618
910,34	3,117
910,52	2,721
910,69	3,937
910,87	3,947
911,04	3,078
911,21	3,050
911,39	3,596
911,56	3,417
911,73	3,560
911,91	3,109
912,08	3,259
912,26	1,730
912,43	3,584
912,60	3,885
912,78	3,635
912,95	4,200
913,13	3,560
913,30	2,740
913,47	4,687
913,65	2,239
913,82	3,054
913,99	3,152
914,17	2,680
914,34	4,096
914,51	4,344
914,69	3,721
914,86	3,726
915,03	3,528
915,21	3,013
915,38	2,724
915,56	1,740
915,73	2,849
915,90	2,976
916,08	3,447
916,25	3,234
916,42	3,320
916,60	3,102
916,77	3,180
916,94	3,783
917,12	3,944
917,29	3,841
917,46	2,814
917,64	2,406
917,81	2,329
917,98	1,380
918,16	3,600
918,33	3,226
918,50	3,612
918,67	2,215
918,85	2,747
919,02	2,516
919,19	2,908
919,37	3,422
919,54	2,035
919,71	2,783
919,89	1,809
920,06	2,569
920,23	2,926
920,41	2,247
920,58	3,100
920,75	2,901
920,92	2,090
921,10	2,554
921,27	1,736
921,44	3,398
921,62	2,024
921,79	2,733
921,96	2,102
922,13	1,837
922,31	2,705
922,48	2,647
922,65	1,835
922,82	2,658
923,00	3,456
923,17	1,710
923,34	1,847
923,52	2,556
923,69	1,842
923,86	2,022
924,03	2,315
924,21	2,094
924,38	2,725
924,55	3,568
924,72	3,745
924,90	2,653
925,07	2,173
925,24	2,882
925,41	2,015
925,59	1,638
925,76	1,937
925,93	2,430
926,10	2,758
926,28	2,224
926,45	2,940
926,62	2,396
926,79	2,129
926,96	2,581
927,14	2,963
927,31	1,643
927,48	2,187
927,65	1,906
927,83	2,093
928,00	1,584
928,17	2,036
928,34	2,382
928,51	2,134
928,69	2,166
928,86	2,469
929,03	2,851
929,20	2,295
929,37	2,660
929,55	2,228
929,72	2,381
929,89	1,898
930,06	1,681
930,23	2,086
930,41	2,278
930,58	2,310
930,75	2,544
930,92	1,678
931,09	1,834
931,27	1,757
931,44	2,075
931,61	1,885
931,78	1,805
931,95	2,107
932,12	2,408
932,30	1,915
932,47	1,938
932,64	2,122
932,81	2,394
932,98	1,137
933,16	1,960
933,33	1,539
933,50	1,852
933,67	2,893
933,84	1,680
934,01	2,165
934,18	2,271
934,36	1,633
934,53	1,185
934,70	2,335
934,87	2,802
935,04	2,352
935,21	2,215
935,38	1,985
935,56	1,752
935,73	2,053
935,90	0,939
936,07	2,269
936,24	2,546
936,41	2,103
936,58	1,434
936,76	2,653
936,93	1,105
937,10	1,455
937,27	2,253
937,44	2,044
937,61	2,219
937,78	2,417
937,95	1,808
938,13	2,375
938,30	2,145
938,47	2,119
938,64	2,226
938,81	1,705
938,98	1,511
939,15	1,678
939,32	1,729
939,49	2,723
939,66	2,390
939,84	2,214
940,01	2,897
940,18	1,895
940,35	1,839
940,52	0,943
940,69	3,430
940,86	2,227
941,03	1,745
941,20	2,977
941,37	2,403
941,54	0,810
941,71	1,108
941,89	2,414
942,06	1,290
942,23	2,400
942,40	2,062
942,57	2,145
942,74	2,455
942,91	1,137
943,08	2,644
943,25	2,656
943,42	1,997
943,59	2,731
943,76	3,526
943,93	2,163
944,10	2,054
944,27	1,990
944,44	2,103
944,61	1,855
944,79	1,745
944,96	2,848
945,13	1,862
945,30	1,027
945,47	2,730
945,64	2,261
945,81	4,316
945,98	2,280
946,15	3,782
946,32	2,044
946,49	2,329
946,66	3,030
946,83	2,754
947,00	1,994
947,17	2,341
947,34	2,341
947,51	2,031
947,68	3,959
947,85	2,228
948,02	2,695
948,19	4,145
948,36	3,885
948,53	3,200
948,70	3,894
948,87	3,168
949,04	1,915
949,21	2,152
949,38	4,763
949,55	3,483
949,72	3,905
949,89	4,228
950,06	2,325
950,23	3,714
950,40	3,528
950,57	2,337
950,74	5,976
950,91	4,641
951,08	2,839
951,25	2,827
951,42	5,209
951,59	3,739
951,76	5,047
951,93	4,667
952,10	4,091
952,27	2,511
952,44	3,290
952,61	2,955
952,77	4,090
952,94	5,413
953,11	5,628
953,28	4,933
953,45	5,597
953,62	5,446
953,79	4,065
953,96	5,305
954,13	3,156
954,30	7,972
954,47	5,410
954,64	4,417
954,81	5,506
954,98	4,074
955,15	5,869
955,32	4,824
955,49	5,025
955,65	7,669
955,82	8,842
955,99	8,623
956,16	8,344
956,33	7,531
956,50	7,405
956,67	10,364
956,84	6,519
957,01	8,814
957,18	10,475
957,35	4,425
957,52	9,480
957,68	7,750
957,85	6,638
958,02	9,905
958,19	11,662
958,36	9,929
958,53	9,309
958,70	7,149
958,87	8,219
959,04	13,504
959,21	11,212
959,37	12,771
959,54	11,907
959,71	10,802
959,88	11,745
960,05	15,453
960,22	10,059
960,39	10,667
960,56	8,101
960,72	11,041
960,89	16,350
961,06	15,287
961,23	15,429
961,40	15,296
961,57	13,409
961,74	9,494
961,90	16,875
962,07	14,460
962,24	23,577
962,41	14,238
962,58	19,966
962,75	18,938
962,92	14,766
963,08	24,000
963,25	18,559
963,42	25,604
963,59	20,041
963,76	27,865
963,93	22,654
964,10	26,767
964,26	27,632
964,43	31,266
964,60	30,570
964,77	35,181
964,94	25,000
965,10	39,286
965,27	36,815
965,44	31,688
965,61	32,782
965,78	34,185
965,95	28,743
966,11	39,319
966,28	40,520
966,45	42,056
966,62	42,769
966,79	46,531
966,95	42,388
967,12	35,016
967,29	40,625
967,46	50,000
967,63	49,057
967,79	57,658
967,96	35,931
968,13	55,500
968,30	38,306
968,47	55,326
968,63	66,216
968,80	66,514
968,97	54,808
969,14	55,233
969,31	37,222
969,47	55,294
969,64	80,303
969,81	59,585
969,98	60,440
970,14	57,669
970,31	69,811
970,48	68,333
970,65	62,130
970,81	82,192
970,98	93,431
971,15	111,224
971,32	89,063
971,48	101,361
971,65	63,846
971,82	73,529
971,99	141,379
972,15	100,704
972,32	145,946
972,49	93,706
972,66	150,909
972,82	123,256
972,99	109,756
973,16	140,230
973,33	74,107
973,49	129,474
973,66	133,333
973,83	111,650
974,00	170,930
974,16	104,902
974,33	136,842
974,50	103,158
974,67	152,632
974,83	67,857
975,00	144,211
975,17	146,154
975,33	143,820
975,50	140,299
975,67	228,571
975,84	173,134
976,00	101,124
976,17	131,148
976,34	79,000
976,50	146,067
976,67	149,515
976,84	3866,667
977,00	240,816
977,17	211,111
977,34	196,703
977,50	195,522
977,67	160,714
977,84	227,419
978,01	180,851
978,17	722,222
978,34	266,667
978,51	379,412
978,67	173,684
978,84	109,375
979,01	356,757
979,17	187,179
979,34	113,014
979,51	253,061
979,67	160,494
979,84	314,286
980,01	204,444
980,17	287,324
980,34	437,037
980,51	198,551
980,67	135,294
980,84	400,000
981,01	670,000
981,17	600,000
981,34	1333,333
981,50	223,529
981,67	277,966
981,84	6350,000
982,00	406,667
982,17	266,667
982,34	151,111
982,50	786,667
982,67	209,375
982,84	2140,000
983,00	1766,667
983,17	202,985
983,33	232,759
983,50	1920,000
983,67	-372,414
983,83	242,424
984,00	-1071,429
984,17	622,222
984,33	-5600,000
984,50	340,000
984,66	354,348
984,83	202,597
985,00	-420,833
985,16	600,000
985,33	617,647
985,49	516,667
985,66	447,059
985,83	452,174
985,99	320,513
986,16	-2050,000
986,32	600,000
986,49	11400,000
986,66	442,424
986,82	825,000
986,99	292,453
987,15	-552,632
987,32	-264,286
987,49	222,000
987,65	7500,000
987,82	362,500
987,98	295,918
988,15	530,000
988,31	1160,000
988,48	-1983,333
988,65	330,952
988,81	441,667
988,98	370,732
989,14	326,190
989,31	676,190
989,47	238,235
989,64	-1061,538
989,80	831,250
989,97	402,703
990,14	-308,696
990,30	-463,636
990,47	336,735
990,63	388,889
990,80	294,000
990,96	-395,000
991,13	468,750
991,29	441,379
991,46	0,000
991,62	-1230,769
991,79	1325,000
991,95	12400,000
992,12	-1220,000
992,29	-568,750
992,45	147,059
992,62	306,977
992,78	406,818
992,95	-620,000
993,11	532,143
993,28	1170,000
993,44	-1150,000
993,61	-1000,000
993,77	-2725,000
993,94	-4966,667
994,10	-124,000
994,27	873,684
994,43	344,186
994,60	0,000
994,76	3350,000
994,93	630,000
995,09	-611,765
995,26	1122,222
995,42	305,882
995,59	466,667
995,75	1061,538
995,92	2385,714
996,08	383,333
996,25	-1475,000
996,41	-6250,000
996,58	1120,000
996,74	350,000
996,91	396,552
997,07	0,000
997,23	13900,000
997,40	-12000,000
997,56	-976,923
997,73	-1887,500
997,89	492,105
998,06	823,077
998,22	-755,556
998,39	624,000
998,55	1511,111
998,72	-1500,000
998,88	-353,333
999,05	-133,333
999,21	257,143
999,37	-753,333
999,54	-1266,667
999,70	-220,000
999,87	868,750
1000,03	392,308
1000,20	370,833
1000,36	0,000
1000,52	491,667
1000,69	-609,524
1000,85	-1190,000
1001,02	-416,667
1001,18	3300,000
1001,35	907,692
1001,51	670,588
1001,67	-1161,538
1001,84	-3080,000
1002,00	302,703
1002,17	890,909
1002,33	-2625,000
1002,50	533,333
1002,66	-1061,538
1002,82	282,500
1002,99	928,571
1003,15	-2200,000
1003,32	-1345,455
1003,48	385,714
1003,64	1020,000
1003,81	611,111
1003,97	-5600,000
1004,14	1263,636
1004,30	296,667
1004,46	-806,667
1004,63	1085,714
1004,79	283,333
1004,95	746,667
1005,12	3900,000
1005,28	631,034
1005,45	397,297
1005,61	351,724
1005,77	-245,833
1005,94	-590,476
1006,10	-3850,000
1006,26	1153,846
1006,43	-203,846
1006,59	-1054,545
1006,76	1092,857
1006,92	1633,333
1007,08	11900,000
1007,25	-262,963
1007,41	420,690
1007,57	3700,000
1007,74	890,000
1007,90	-555,172
1008,06	213,043
1008,23	1000,000
1008,39	-606,250
1008,55	-330,769
1008,72	-1728,571
1008,88	0,000
1009,04	363,415
1009,21	-284,211
1009,37	-766,667
1009,53	261,905
1009,70	2700,000
1009,86	-592,857
1010,02	4333,333
1010,19	1154,545
1010,35	239,706
1010,51	-5800,000
1010,68	-1837,500
1010,84	-275,000
1011,00	612,500
1011,17	-395,455
1011,33	0,000
1011,49	-926,667
1011,66	935,714
1011,82	474,194
1011,98	942,857
1012,14	-1018,182
1012,31	407,692
1012,47	0,000
1012,63	1966,667
1012,80	992,857
1012,96	-856,250
1013,12	-1583,333
1013,29	444,444
1013,45	465,854
1013,61	6066,667
1013,77	-164,286
1013,94	2480,000
1014,10	215,254
1014,26	-2675,000
1014,43	-400,000
1014,59	735,000
1014,75	-533,333
1014,91	-433,333
1015,08	388,889
1015,24	9400,000
1015,40	729,412
1015,56	-11900,000
1015,73	247,619
1015,89	727,273
1016,05	4475,000
1016,21	-1250,000
1016,38	768,421
1016,54	1476,923
1016,70	-4266,667
1016,86	396,875
1017,03	906,250
1017,19	-723,077
1017,35	-829,412
1017,51	-1440,000
1017,68	-1050,000
1017,84	-2271,429
1018,00	311,905
1018,16	461,538
1018,33	-1271,429
1018,49	-850,000
1018,65	-216,216
1018,81	384,615
1018,97	-1357,143
1019,14	-4933,333
1019,30	-305,128
1019,46	0,000
1019,62	-505,882
1019,79	-4100,000
1019,95	1241,667
1020,11	7000,000
1020,27	-351,852
1020,43	-538,462
1020,60	2083,333
1020,76	994,444
1020,92	693,333
1021,08	780,000
1021,24	890,000
1021,41	1355,556
1021,57	1450,000
1021,73	1046,154
1021,89	2220,000
1022,05	-389,286
1022,21	725,000
1022,38	-733,333
1022,54	-1683,333
1022,70	382,222
1022,86	-1587,500
1023,02	512,500
1023,19	2560,000
1023,35	4300,000
1023,51	491,667
1023,67	540,741
1023,83	-775,000
1023,99	163,158
1024,16	-326,923
1024,32	-1777,778
1024,48	-830,000
1024,64	366,667
1024,80	539,130
1024,96	366,667
1025,12	676,190
1025,29	680,952
1025,45	339,474
1025,61	911,111
1025,77	-2760,000
1025,93	-5200,000
1026,09	-1557,143
1026,26	1133,333
1026,42	681,250
1026,58	469,697
1026,74	1950,000
1026,90	440,000
1027,06	453,571
1027,22	828,571
1027,38	371,154
1027,55	4400,000
1027,71	2183,333
1027,87	-456,000
1028,03	1030,000
1028,19	393,750
1028,35	880,000
1028,51	1680,000
1028,67	1141,667
1028,83	-2425,000
1029,00	-295,238
1029,16	1140,000
1029,32	-346,429
1029,48	264,444
1029,64	302,778
1029,80	4550,000
1029,96	920,000
1030,12	647,826
1030,28	-4200,000
1030,44	-876,923
1030,61	-433,333
1030,77	-271,429
1030,93	-993,333
1031,09	1566,667
1031,25	-10600,000
1031,41	-336,667
1031,57	438,462
1031,73	893,750
1031,89	-1181,818
1032,05	-370,370
1032,21	663,636
1032,37	-175,926
1032,53	-1000,000
1032,69	-341,667
1032,86	511,111
1033,02	-317,500
1033,18	-818,750
1033,34	515,789
1033,50	-5300,000
1033,66	-280,488
1033,82	513,043
1033,98	-440,741
1034,14	182,051
1034,30	354,839
1034,46	-3533,333
1034,62	710,000
1034,78	-366,667
1034,94	368,421
1035,10	-676,923
1035,26	-167,442
1035,42	-272,414
1035,58	-427,778
1035,74	1316,667
1035,90	-976,923
1036,06	-1966,667
1036,22	1766,667
1036,38	-705,882
1036,54	-425,000
1036,70	-260,606
1036,86	11300,000
1037,02	644,444
1037,18	673,684
1037,34	161,905
1037,50	-226,829
1037,66	-688,235
1037,82	2460,000
1037,98	-440,741
1038,14	-436,000
1038,30	-1225,000
1038,46	-585,714
1038,62	630,435
1038,78	-3133,333
1038,94	-510,526
1039,10	504,545
1039,26	474,074
1039,42	-733,333
1039,58	1914,286
1039,74	-389,474
1039,90	353,125
1040,06	-346,154
>>>>>End Processed Spectral Data<<<<<
