SpectraSuite Data File
++++++++++++++++++++++++++++++++++++
Date: Wed Feb 01 16:32:40 EET 2017
User: optolab
Dark Spectrum Present: Yes
Reference Spectrum Present: Yes
Number of Sampled Component Spectra: 1
Spectrometers: USB4C02475
Integration Time (usec): 100000 (USB4C02475)
Spectra Averaged: 1 (USB4C02475)
Boxcar Smoothing: 0 (USB4C02475)
Correct for Electrical Dark: No (USB4C02475)
Strobe/Lamp Enabled: No (USB4C02475)
Correct for Detector Non-linearity: No (USB4C02475)
Correct for Stray Light: No (USB4C02475)
Number of Pixels in Processed Spectrum: 3648
>>>>>Begin Processed Spectral Data<<<<<
344,91	3900,000
345,13	3900,000
345,35	3900,000
345,57	0,000
345,79	410,526
346,00	-1688,889
346,22	-1985,714
346,44	441,176
346,66	-558,333
346,87	-14400,000
347,09	415,152
347,31	-454,545
347,53	-410,256
347,74	273,846
347,96	460,606
348,18	905,263
348,40	361,290
348,61	817,647
348,83	461,905
349,05	233,333
349,27	-5250,000
349,48	665,385
349,70	-389,655
349,92	564,516
350,14	309,434
350,35	310,000
350,57	3100,000
350,79	536,000
351,01	-890,476
351,22	279,630
351,44	992,308
351,66	-288,000
351,87	-504,762
352,09	323,077
352,31	219,672
352,53	254,688
352,74	441,667
352,96	261,039
353,18	694,737
353,40	540,000
353,61	344,444
353,83	335,294
354,05	1090,909
354,26	2016,667
354,48	280,000
354,70	445,455
354,92	-334,483
355,13	220,202
355,35	406,818
355,57	641,667
355,78	228,916
356,00	-3825,000
356,22	357,692
356,44	6400,000
356,65	395,455
356,87	561,538
357,09	695,833
357,30	297,778
357,52	329,310
357,74	675,000
357,95	366,667
358,17	265,574
358,39	306,452
358,60	475,676
358,82	291,667
359,04	529,630
359,26	431,429
359,47	9800,000
359,69	370,000
359,91	524,242
360,12	733,333
360,34	645,833
360,56	-88,889
360,77	2700,000
360,99	728,571
361,21	306,000
361,42	6400,000
361,64	238,776
361,86	292,308
362,07	-567,742
362,29	232,000
362,51	-611,765
362,72	548,000
362,94	414,706
363,16	225,581
363,37	-742,857
363,59	615,385
363,81	381,818
364,02	783,333
364,24	691,667
364,46	3866,667
364,67	1036,364
364,89	2400,000
365,11	180,000
365,32	634,483
365,54	288,889
365,76	322,449
365,97	382,353
366,19	229,310
366,41	640,909
366,62	325,926
366,84	325,581
367,05	322,449
367,27	2350,000
367,49	-738,462
367,70	723,529
367,92	221,311
368,14	314,583
368,35	-8800,000
368,57	652,000
368,79	479,310
369,00	332,609
369,22	-1800,000
369,43	232,941
369,65	269,355
369,87	451,351
370,08	155,422
370,30	276,786
370,51	263,934
370,73	282,222
370,95	254,839
371,16	266,667
371,38	603,333
371,60	1362,500
371,81	221,875
372,03	846,667
372,24	370,000
372,46	249,057
372,68	168,571
372,89	327,273
373,11	496,154
373,32	327,273
373,54	-1030,769
373,76	1053,846
373,97	866,667
374,19	768,182
374,40	262,500
374,62	-3400,000
374,84	4725,000
375,05	503,571
375,27	350,000
375,48	-11300,000
375,70	178,667
375,92	253,571
376,13	321,875
376,35	227,397
376,56	1181,250
376,78	270,833
376,99	417,857
377,21	262,500
377,43	210,606
377,64	165,217
377,86	568,966
378,07	302,564
378,29	-1162,500
378,51	622,581
378,72	206,250
378,94	-1211,111
379,15	263,636
379,37	523,529
379,58	203,077
379,80	853,333
380,01	768,750
380,23	311,765
380,45	1940,000
380,66	3533,333
380,88	306,818
381,09	235,714
381,31	201,111
381,52	250,980
381,74	1488,889
381,95	545,455
382,17	523,077
382,39	533,333
382,60	224,490
382,82	376,923
383,03	280,769
383,25	319,355
383,46	268,182
383,68	511,111
383,89	670,000
384,11	329,032
384,32	-3400,000
384,54	633,333
384,76	-3066,667
384,97	333,333
385,19	441,379
385,40	303,922
385,62	245,614
385,83	345,238
386,05	256,863
386,26	280,000
386,48	245,977
386,69	285,417
386,91	560,000
387,12	277,966
387,34	184,483
387,55	230,645
387,77	515,625
387,98	526,923
388,20	192,391
388,41	350,000
388,63	11400,000
388,84	229,508
389,06	404,762
389,27	968,421
389,49	416,667
389,70	269,388
389,92	333,333
390,13	244,898
390,35	337,255
390,56	327,778
390,78	551,852
390,99	1050,000
391,21	510,526
391,42	344,444
391,64	375,610
391,85	168,966
392,07	168,182
392,28	166,667
392,50	363,636
392,71	-1137,500
392,93	230,769
393,14	452,778
393,36	302,041
393,57	142,105
393,79	811,111
394,00	244,681
394,22	202,740
394,43	157,831
394,65	234,884
394,86	1412,500
395,08	466,667
395,29	196,226
395,50	646,154
395,72	727,778
395,93	733,333
396,15	191,549
396,36	197,059
396,58	236,667
396,79	262,500
397,01	298,000
397,22	313,889
397,44	283,333
397,65	200,000
397,87	266,667
398,08	208,163
398,29	409,375
398,51	244,643
398,72	292,683
398,94	196,923
399,15	337,143
399,37	228,070
399,58	154,945
399,80	536,364
400,01	151,852
400,22	438,095
400,44	218,519
400,65	425,000
400,87	250,000
401,08	191,429
401,30	273,913
401,51	185,965
401,72	265,385
401,94	203,797
402,15	540,000
402,37	149,580
402,58	627,778
402,80	214,286
403,01	208,451
403,22	990,909
403,44	218,841
403,65	225,000
403,87	192,857
404,08	387,179
404,30	183,529
404,51	-2333,333
404,72	164,286
404,94	148,039
405,15	188,000
405,37	170,886
405,58	171,765
405,79	131,707
406,01	239,024
406,22	172,414
406,44	212,766
406,65	170,175
406,86	235,417
407,08	145,570
407,29	127,184
407,51	152,439
407,72	136,111
407,93	148,913
408,15	79,487
408,36	179,070
408,58	173,196
408,79	82,500
409,00	136,458
409,22	180,952
409,43	174,684
409,64	95,031
409,86	106,918
410,07	95,385
410,29	89,552
410,50	119,149
410,71	101,786
410,93	115,924
411,14	146,512
411,35	61,310
411,57	92,763
411,78	110,938
412,00	93,631
412,21	101,290
412,42	105,291
412,64	68,240
412,85	77,835
413,06	105,488
413,28	58,559
413,49	83,886
413,70	76,449
413,92	79,447
414,13	58,506
414,34	80,460
414,56	64,336
414,77	83,966
414,98	69,128
415,20	81,315
415,41	65,156
415,63	59,204
415,84	59,167
416,05	54,396
416,27	57,106
416,48	58,708
416,69	55,310
416,91	48,919
417,12	51,337
417,33	48,842
417,55	52,716
417,76	59,754
417,97	47,510
418,19	48,310
418,40	50,426
418,61	49,074
418,83	44,909
419,04	51,893
419,25	47,975
419,46	50,677
419,68	57,302
419,89	54,844
420,10	53,878
420,32	44,209
420,53	53,739
420,74	53,875
420,96	52,250
421,17	52,656
421,38	50,707
421,60	56,181
421,81	55,809
422,02	57,262
422,23	48,357
422,45	55,750
422,66	49,581
422,87	53,269
423,09	50,119
423,30	50,289
423,51	49,213
423,73	49,137
423,94	49,300
424,15	46,599
424,36	50,914
424,58	43,625
424,79	49,032
425,00	39,567
425,22	44,578
425,43	37,862
425,64	43,172
425,85	41,621
426,07	40,591
426,28	42,254
426,49	40,750
426,71	42,327
426,92	39,735
427,13	40,923
427,34	42,766
427,56	45,997
427,77	42,747
427,98	46,062
428,19	42,490
428,41	46,348
428,62	45,159
428,83	46,034
429,04	46,172
429,26	46,697
429,47	46,356
429,68	49,552
429,89	49,842
430,11	52,049
430,32	52,072
430,53	55,513
430,74	59,843
430,96	59,921
431,17	62,256
431,38	64,413
431,59	65,369
431,81	67,082
432,02	66,497
432,23	65,516
432,44	69,219
432,66	68,856
432,87	70,511
433,08	66,303
433,29	64,365
433,51	63,244
433,72	62,491
433,93	60,062
434,14	57,986
434,35	56,610
434,57	53,899
434,78	54,067
434,99	51,627
435,20	48,523
435,42	48,433
435,63	46,113
435,84	46,381
436,05	44,922
436,26	43,654
436,48	45,460
436,69	45,005
436,90	45,552
437,11	44,515
437,32	45,941
437,54	46,565
437,75	46,423
437,96	46,275
438,17	45,105
438,38	46,794
438,60	48,286
438,81	48,476
439,02	48,645
439,23	47,943
439,44	47,703
439,66	49,303
439,87	48,860
440,08	48,297
440,29	47,928
440,50	46,992
440,72	46,063
440,93	45,371
441,14	45,234
441,35	43,842
441,56	42,204
441,77	40,449
441,99	39,762
442,20	37,913
442,41	35,973
442,62	35,648
442,83	32,992
443,04	32,120
443,26	31,145
443,47	30,778
443,68	29,181
443,89	27,947
444,10	27,674
444,31	27,614
444,53	27,954
444,74	27,485
444,95	27,466
445,16	27,840
445,37	26,989
445,58	25,959
445,80	26,131
446,01	25,839
446,22	24,466
446,43	23,604
446,64	22,675
446,85	21,675
447,06	20,087
447,28	18,618
447,49	17,491
447,70	16,205
447,91	15,113
448,12	13,323
448,33	12,421
448,54	11,456
448,76	10,835
448,97	9,525
449,18	8,623
449,39	8,165
449,60	7,609
449,81	6,566
450,02	5,970
450,23	5,263
450,45	4,916
450,66	4,352
450,87	3,977
451,08	3,409
451,29	3,395
451,50	2,850
451,71	2,754
451,92	2,254
452,13	2,187
452,35	2,095
452,56	2,094
452,77	1,746
452,98	1,577
453,19	1,224
453,40	0,904
453,61	1,274
453,82	0,717
454,03	0,960
454,25	1,153
454,46	0,974
454,67	1,138
454,88	1,054
455,09	0,992
455,30	0,839
455,51	0,901
455,72	1,125
455,93	1,004
456,14	0,869
456,35	1,144
456,56	0,975
456,78	0,858
456,99	0,814
457,20	0,767
457,41	0,620
457,62	0,875
457,83	0,735
458,04	0,662
458,25	0,780
458,46	0,737
458,67	0,824
458,88	1,025
459,09	0,625
459,30	0,861
459,51	0,810
459,73	0,699
459,94	0,917
460,15	0,732
460,36	0,562
460,57	0,608
460,78	0,475
460,99	0,617
461,20	0,351
461,41	0,569
461,62	0,370
461,83	0,533
462,04	0,471
462,25	0,944
462,46	0,570
462,67	0,457
462,88	0,594
463,09	0,651
463,30	0,424
463,51	0,580
463,72	0,538
463,93	0,521
464,15	0,638
464,36	0,538
464,57	0,379
464,78	0,547
464,99	0,572
465,20	0,518
465,41	0,507
465,62	0,521
465,83	0,518
466,04	0,547
466,25	0,350
466,46	0,497
466,67	0,429
466,88	0,522
467,09	0,600
467,30	0,379
467,51	0,611
467,72	0,508
467,93	0,459
468,14	0,690
468,35	0,559
468,56	0,519
468,77	0,408
468,98	0,544
469,19	0,510
469,40	0,516
469,61	0,661
469,82	0,369
470,03	0,615
470,24	0,674
470,45	0,669
470,66	0,416
470,87	0,529
471,08	0,719
471,29	0,541
471,50	0,663
471,71	0,584
471,92	0,665
472,13	0,428
472,34	0,500
472,55	0,676
472,76	0,499
472,97	0,593
473,18	0,594
473,39	0,731
473,60	0,466
473,81	0,570
474,01	0,733
474,22	0,632
474,43	0,787
474,64	0,607
474,85	0,498
475,06	0,724
475,27	0,646
475,48	0,614
475,69	0,427
475,90	0,726
476,11	0,759
476,32	0,661
476,53	0,706
476,74	0,755
476,95	0,694
477,16	0,637
477,37	0,685
477,58	0,728
477,79	0,857
478,00	0,742
478,21	0,688
478,41	0,792
478,62	0,644
478,83	0,732
479,04	0,932
479,25	0,643
479,46	0,742
479,67	0,882
479,88	0,993
480,09	0,620
480,30	0,912
480,51	1,071
480,72	0,924
480,93	0,937
481,14	0,974
481,34	1,078
481,55	0,971
481,76	1,052
481,97	1,290
482,18	1,508
482,39	1,651
482,60	2,037
482,81	2,426
483,02	2,746
483,23	3,458
483,44	3,757
483,65	4,525
483,85	5,149
484,06	5,951
484,27	6,855
484,48	7,892
484,69	8,965
484,90	10,034
485,11	11,129
485,32	12,287
485,53	13,869
485,73	15,529
485,94	16,819
486,15	18,502
486,36	20,169
486,57	21,597
486,78	23,886
486,99	25,888
487,20	27,326
487,41	28,935
487,61	31,081
487,82	32,687
488,03	34,807
488,24	36,812
488,45	39,156
488,66	40,897
488,87	43,294
489,08	45,674
489,28	47,467
489,49	49,984
489,70	51,682
489,91	53,482
490,12	55,510
490,33	56,877
490,54	58,936
490,74	60,323
490,95	61,164
491,16	61,374
491,37	62,686
491,58	63,356
491,79	63,641
492,00	64,395
492,20	64,611
492,41	64,174
492,62	63,713
492,83	64,154
493,04	62,696
493,25	62,605
493,45	62,090
493,66	60,499
493,87	59,938
494,08	58,561
494,29	56,897
494,50	55,614
494,70	53,851
494,91	53,162
495,12	51,399
495,33	50,730
495,54	49,109
495,75	47,926
495,95	47,021
496,16	45,906
496,37	45,490
496,58	44,143
496,79	43,303
496,99	42,286
497,20	41,879
497,41	41,061
497,62	40,405
497,83	40,045
498,04	39,054
498,24	38,594
498,45	37,850
498,66	37,673
498,87	38,095
499,08	37,368
499,28	37,267
499,49	37,439
499,70	37,542
499,91	37,677
500,12	36,983
500,32	36,958
500,53	36,439
500,74	36,687
500,95	37,090
501,15	36,977
501,36	36,602
501,57	36,845
501,78	36,170
501,99	36,268
502,19	35,901
502,40	35,691
502,61	36,049
502,82	35,471
503,02	35,401
503,23	35,485
503,44	35,624
503,65	34,941
503,86	34,559
504,06	34,571
504,27	35,035
504,48	35,145
504,69	35,669
504,89	35,371
505,10	36,016
505,31	36,412
505,52	36,708
505,72	37,365
505,93	37,939
506,14	38,679
506,35	39,951
506,55	40,450
506,76	41,949
506,97	43,426
507,18	44,707
507,38	46,926
507,59	47,280
507,80	49,568
508,01	51,164
508,21	52,142
508,42	54,661
508,63	55,496
508,84	57,003
509,04	58,385
509,25	60,665
509,46	60,287
509,67	60,838
509,87	62,562
510,08	63,415
510,29	63,898
510,49	63,324
510,70	63,626
510,91	62,223
511,12	63,072
511,32	61,959
511,53	61,072
511,74	60,045
511,94	59,605
512,15	57,496
512,36	56,976
512,57	55,140
512,77	54,599
512,98	52,827
513,19	51,515
513,39	50,000
513,60	48,312
513,81	47,682
514,01	45,823
514,22	44,796
514,43	43,164
514,64	41,818
514,84	40,791
515,05	39,887
515,26	37,685
515,46	36,562
515,67	34,913
515,88	34,482
516,08	32,399
516,29	30,775
516,50	29,981
516,70	27,345
516,91	26,422
517,12	25,197
517,32	23,436
517,53	22,193
517,74	20,292
517,95	18,591
518,15	17,900
518,36	16,756
518,57	14,867
518,77	13,706
518,98	12,924
519,19	11,734
519,39	10,843
519,60	10,093
519,80	9,588
520,01	8,763
520,22	8,272
520,42	7,748
520,63	7,233
520,84	6,563
521,04	6,383
521,25	6,035
521,46	5,820
521,66	5,217
521,87	4,802
522,08	4,477
522,28	4,161
522,49	3,692
522,70	3,491
522,90	3,183
523,11	2,503
523,31	2,626
523,52	2,193
523,73	1,930
523,93	1,727
524,14	1,409
524,35	1,170
524,55	1,066
524,76	0,815
524,97	0,946
525,17	0,802
525,38	0,680
525,58	0,779
525,79	0,569
526,00	0,698
526,20	0,529
526,41	0,532
526,61	0,670
526,82	0,641
527,03	0,561
527,23	0,609
527,44	0,461
527,64	0,524
527,85	0,514
528,06	0,593
528,26	0,746
528,47	0,634
528,68	0,485
528,88	0,600
529,09	0,506
529,29	0,648
529,50	0,422
529,70	0,670
529,91	0,452
530,12	0,619
530,32	0,542
530,53	0,624
530,73	0,656
530,94	0,561
531,15	0,572
531,35	0,315
531,56	0,598
531,76	0,656
531,97	0,613
532,17	0,473
532,38	0,553
532,59	0,551
532,79	0,633
533,00	0,578
533,20	0,513
533,41	0,604
533,61	0,501
533,82	0,654
534,03	0,386
534,23	0,706
534,44	0,624
534,64	0,501
534,85	0,435
535,05	0,615
535,26	0,554
535,46	0,557
535,67	0,495
535,88	0,501
536,08	0,464
536,29	0,367
536,49	0,633
536,70	0,645
536,90	0,615
537,11	0,560
537,31	0,463
537,52	0,546
537,72	0,685
537,93	0,746
538,13	0,565
538,34	0,591
538,55	0,674
538,75	0,567
538,96	0,607
539,16	0,557
539,37	0,781
539,57	0,579
539,78	0,745
539,98	0,546
540,19	0,555
540,39	0,617
540,60	0,645
540,80	0,540
541,01	0,565
541,21	0,538
541,42	0,627
541,62	0,673
541,83	0,610
542,03	0,675
542,24	0,463
542,44	0,610
542,65	0,485
542,85	0,646
543,06	0,573
543,26	0,420
543,47	0,529
543,67	0,683
543,88	0,675
544,08	0,641
544,29	0,647
544,49	0,614
544,70	0,591
544,90	0,645
545,11	0,498
545,31	0,712
545,52	0,508
545,72	0,809
545,93	0,544
546,13	0,602
546,34	0,504
546,54	0,560
546,75	0,548
546,95	0,701
547,15	0,425
547,36	0,543
547,56	0,650
547,77	0,672
547,97	0,564
548,18	0,503
548,38	0,411
548,59	0,653
548,79	0,276
549,00	0,497
549,20	0,594
549,41	0,518
549,61	0,597
549,81	0,470
550,02	0,666
550,22	0,408
550,43	0,697
550,63	0,783
550,84	0,465
551,04	0,551
551,25	0,470
551,45	0,538
551,65	0,628
551,86	0,595
552,06	0,603
552,27	0,517
552,47	0,686
552,68	0,764
552,88	0,648
553,08	0,498
553,29	0,616
553,49	0,543
553,70	0,661
553,90	0,557
554,11	0,566
554,31	0,546
554,51	0,701
554,72	0,581
554,92	0,533
555,13	0,686
555,33	0,708
555,53	0,634
555,74	0,640
555,94	0,563
556,15	0,618
556,35	0,561
556,56	0,738
556,76	0,538
556,96	0,627
557,17	0,794
557,37	0,689
557,58	0,736
557,78	0,593
557,98	0,522
558,19	0,687
558,39	0,804
558,59	0,654
558,80	0,637
559,00	0,649
559,21	0,530
559,41	0,506
559,61	0,642
559,82	0,717
560,02	0,821
560,23	0,640
560,43	0,899
560,63	0,885
560,84	0,878
561,04	0,930
561,24	1,028
561,45	1,266
561,65	1,235
561,85	1,520
562,06	1,587
562,26	1,756
562,47	2,050
562,67	2,224
562,87	2,635
563,08	2,902
563,28	3,286
563,48	3,673
563,69	4,330
563,89	4,785
564,09	5,549
564,30	6,138
564,50	7,088
564,70	8,024
564,91	8,661
565,11	9,790
565,31	11,332
565,52	12,203
565,72	13,718
565,92	15,504
566,13	16,765
566,33	18,684
566,53	19,725
566,74	21,747
566,94	23,147
567,14	24,873
567,35	26,884
567,55	28,814
567,75	30,843
567,96	32,121
568,16	34,102
568,36	35,014
568,57	36,762
568,77	37,463
568,97	38,584
569,18	39,524
569,38	40,715
569,58	41,233
569,79	41,946
569,99	42,371
570,19	43,377
570,39	43,722
570,60	43,830
570,80	44,598
571,00	44,606
571,21	44,832
571,41	45,482
571,61	45,489
571,82	45,173
572,02	45,186
572,22	45,936
572,42	46,566
572,63	45,830
572,83	46,540
573,03	46,740
573,24	46,404
573,44	47,035
573,64	46,562
573,84	47,397
574,05	48,011
574,25	48,128
574,45	47,850
574,66	48,267
574,86	48,890
575,06	49,525
575,26	49,595
575,47	50,741
575,67	51,508
575,87	53,136
576,07	54,220
576,28	55,886
576,48	57,605
576,68	59,365
576,88	61,325
577,09	63,747
577,29	65,646
577,49	69,912
577,69	71,768
577,90	75,073
578,10	76,503
578,30	78,377
578,50	81,547
578,71	83,085
578,91	84,752
579,11	87,028
579,31	87,131
579,52	89,144
579,72	88,155
579,92	89,038
580,12	89,487
580,33	89,832
580,53	89,205
580,73	89,271
580,93	88,534
581,13	88,758
581,34	88,446
581,54	87,673
581,74	87,778
581,94	88,689
582,15	88,231
582,35	87,981
582,55	88,278
582,75	87,605
582,95	87,511
583,16	87,995
583,36	89,143
583,56	89,208
583,76	89,191
583,96	89,631
584,17	91,022
584,37	90,904
584,57	89,841
584,77	90,234
584,97	90,656
585,18	90,969
585,38	91,808
585,58	90,836
585,78	90,858
585,98	90,615
586,19	90,335
586,39	90,057
586,59	90,339
586,79	90,479
586,99	90,529
587,20	89,413
587,40	89,649
587,60	89,855
587,80	90,826
588,00	90,228
588,20	89,653
588,41	91,011
588,61	90,171
588,81	91,741
589,01	91,015
589,21	90,814
589,41	91,182
589,62	91,608
589,82	92,077
590,02	90,814
590,22	91,713
590,42	93,047
590,62	92,150
590,83	91,671
591,03	91,818
591,23	91,797
591,43	91,002
591,63	89,917
591,83	91,035
592,03	89,580
592,24	89,772
592,44	90,260
592,64	89,374
592,84	89,903
593,04	88,497
593,24	88,157
593,44	88,094
593,65	87,663
593,85	87,043
594,05	86,193
594,25	85,620
594,45	84,486
594,65	83,950
594,85	82,606
595,06	81,566
595,26	79,774
595,46	78,923
595,66	76,589
595,86	75,363
596,06	73,249
596,26	72,244
596,46	70,295
596,66	68,678
596,87	66,955
597,07	65,946
597,27	64,419
597,47	62,476
597,67	61,182
597,87	59,670
598,07	57,925
598,27	57,321
598,47	55,627
598,67	55,072
598,88	54,191
599,08	53,058
599,28	52,277
599,48	51,940
599,68	51,188
599,88	50,848
600,08	49,993
600,28	49,839
600,48	49,898
600,68	48,466
600,88	49,005
601,09	48,570
601,29	47,552
601,49	47,689
601,69	46,789
601,89	46,753
602,09	46,139
602,29	45,723
602,49	45,159
602,69	44,091
602,89	43,670
603,09	44,008
603,29	42,175
603,49	42,094
603,69	41,707
603,90	40,873
604,10	40,296
604,30	40,311
604,50	38,573
604,70	38,523
604,90	38,784
605,10	38,140
605,30	37,746
605,50	37,491
605,70	37,743
605,90	37,206
606,10	36,944
606,30	37,229
606,50	37,062
606,70	37,528
606,90	37,443
607,10	37,882
607,30	38,676
607,50	38,656
607,70	38,902
607,90	39,225
608,10	40,048
608,30	40,168
608,50	40,841
608,70	40,580
608,90	41,146
609,11	42,453
609,31	41,897
609,51	41,463
609,71	41,509
609,91	41,554
610,11	41,693
610,31	40,763
610,51	41,229
610,71	40,837
610,91	41,611
611,11	40,559
611,31	40,450
611,51	39,179
611,71	39,779
611,91	39,156
612,11	38,247
612,31	38,247
612,51	37,387
612,71	37,537
612,91	37,218
613,11	36,340
613,31	35,624
613,51	34,907
613,71	34,083
613,91	33,784
614,11	33,558
614,31	32,476
614,50	32,016
614,70	31,539
614,90	30,847
615,10	30,336
615,30	30,036
615,50	29,033
615,70	29,700
615,90	28,775
616,10	28,579
616,30	28,272
616,50	28,437
616,70	28,383
616,90	28,260
617,10	28,184
617,30	28,186
617,50	27,722
617,70	27,629
617,90	27,247
618,10	26,684
618,30	26,790
618,50	25,491
618,70	25,006
618,90	24,236
619,10	23,769
619,30	22,361
619,49	21,742
619,69	20,535
619,89	19,147
620,09	18,299
620,29	16,806
620,49	15,786
620,69	14,414
620,89	13,198
621,09	11,560
621,29	10,696
621,49	9,341
621,69	8,214
621,89	7,579
622,09	6,237
622,29	5,594
622,48	4,959
622,68	4,051
622,88	3,384
623,08	2,749
623,28	2,686
623,48	1,988
623,68	1,734
623,88	1,527
624,08	1,533
624,28	1,048
624,48	1,247
624,67	0,892
624,87	0,807
625,07	0,619
625,27	0,620
625,47	0,757
625,67	0,726
625,87	0,453
626,07	0,512
626,27	0,378
626,47	0,581
626,66	0,670
626,86	0,534
627,06	0,583
627,26	0,545
627,46	0,390
627,66	0,378
627,86	0,379
628,06	0,427
628,25	0,441
628,45	0,651
628,65	0,453
628,85	0,472
629,05	0,602
629,25	0,524
629,45	0,425
629,65	0,461
629,84	0,455
630,04	0,388
630,24	0,551
630,44	0,460
630,64	0,417
630,84	0,504
631,04	0,545
631,23	0,459
631,43	0,471
631,63	0,452
631,83	0,478
632,03	0,410
632,23	0,462
632,42	0,523
632,62	0,524
632,82	0,649
633,02	0,396
633,22	0,427
633,42	0,538
633,62	0,546
633,81	0,578
634,01	0,516
634,21	0,469
634,41	0,529
634,61	0,549
634,80	0,477
635,00	0,449
635,20	0,363
635,40	0,572
635,60	0,607
635,80	0,480
635,99	0,485
636,19	0,466
636,39	0,642
636,59	0,775
636,79	0,759
636,98	0,597
637,18	0,535
637,38	0,859
637,58	0,468
637,78	0,594
637,97	0,682
638,17	0,823
638,37	0,785
638,57	0,667
638,77	0,729
638,96	0,431
639,16	0,761
639,36	0,506
639,56	0,706
639,76	0,860
639,95	0,588
640,15	0,523
640,35	0,861
640,55	0,368
640,75	0,950
640,94	0,508
641,14	0,577
641,34	0,647
641,54	0,519
641,73	0,616
641,93	0,685
642,13	0,435
642,33	0,654
642,53	0,618
642,72	0,766
642,92	0,812
643,12	0,594
643,32	0,949
643,51	0,676
643,71	0,653
643,91	0,746
644,11	0,907
644,30	0,729
644,50	0,711
644,70	0,366
644,90	0,459
645,09	1,010
645,29	0,339
645,49	0,918
645,69	0,726
645,88	0,748
646,08	0,775
646,28	1,148
646,48	0,900
646,67	0,968
646,87	1,084
647,07	0,791
647,26	0,823
647,46	0,847
647,66	0,815
647,86	0,766
648,05	0,754
648,25	0,865
648,45	0,871
648,65	0,947
648,84	0,621
649,04	1,253
649,24	1,106
649,43	0,632
649,63	1,220
649,83	1,180
650,03	0,950
650,22	0,437
650,42	1,026
650,62	0,408
650,81	0,646
651,01	0,873
651,21	0,791
651,40	0,945
651,60	0,605
651,80	0,781
652,00	1,026
652,19	0,701
652,39	0,999
652,59	0,957
652,78	1,098
652,98	0,565
653,18	0,729
653,37	0,812
653,57	0,732
653,77	0,903
653,96	0,446
654,16	0,797
654,36	1,149
654,55	1,194
654,75	1,257
654,95	0,910
655,14	0,991
655,34	1,262
655,54	0,570
655,73	0,650
655,93	1,288
656,13	0,762
656,32	0,767
656,52	0,446
656,72	0,882
656,91	1,158
657,11	0,604
657,31	0,644
657,50	0,750
657,70	0,704
657,90	0,981
658,09	0,627
658,29	1,159
658,49	0,646
658,68	1,139
658,88	1,339
659,07	0,776
659,27	0,813
659,47	1,398
659,66	0,618
659,86	1,064
660,06	0,689
660,25	0,547
660,45	1,164
660,64	1,030
660,84	0,861
661,04	0,595
661,23	1,051
661,43	0,725
661,63	1,028
661,82	0,519
662,02	1,006
662,21	1,014
662,41	0,501
662,61	0,970
662,80	0,626
663,00	0,839
663,19	0,878
663,39	0,923
663,59	1,176
663,78	0,656
663,98	0,741
664,17	0,631
664,37	1,067
664,57	0,617
664,76	1,182
664,96	0,606
665,15	0,490
665,35	0,817
665,55	0,710
665,74	0,889
665,94	0,716
666,13	1,056
666,33	0,069
666,53	0,929
666,72	0,545
666,92	1,014
667,11	0,783
667,31	0,858
667,50	1,132
667,70	1,111
667,90	0,813
668,09	0,588
668,29	0,829
668,48	0,701
668,68	0,595
668,87	0,620
669,07	0,919
669,26	0,928
669,46	0,748
669,66	1,015
669,85	0,987
670,05	0,623
670,24	0,981
670,44	0,907
670,63	0,729
670,83	1,027
671,02	0,745
671,22	1,334
671,42	0,687
671,61	0,388
671,81	0,786
672,00	1,089
672,20	0,783
672,39	0,440
672,59	0,665
672,78	0,856
672,98	0,576
673,17	0,704
673,37	0,800
673,56	0,486
673,76	0,804
673,95	0,845
674,15	0,512
674,34	0,635
674,54	0,712
674,73	0,782
674,93	0,814
675,13	0,424
675,32	0,945
675,52	1,088
675,71	0,626
675,91	0,616
676,10	0,501
676,30	0,735
676,49	0,523
676,69	0,647
676,88	0,833
677,08	0,713
677,27	0,722
677,47	0,739
677,66	0,877
677,86	0,737
678,05	0,642
678,24	0,353
678,44	0,835
678,63	0,600
678,83	0,668
679,02	0,677
679,22	0,343
679,41	0,601
679,61	0,314
679,80	0,671
680,00	0,589
680,19	0,543
680,39	0,574
680,58	0,628
680,78	0,440
680,97	0,406
681,17	0,453
681,36	0,677
681,56	0,848
681,75	0,471
681,94	0,555
682,14	0,763
682,33	0,535
682,53	1,014
682,72	0,611
682,92	0,641
683,11	0,671
683,31	0,368
683,50	0,518
683,69	0,431
683,89	0,448
684,08	0,485
684,28	0,214
684,47	0,661
684,67	0,514
684,86	0,131
685,06	0,400
685,25	0,549
685,44	0,410
685,64	0,360
685,83	0,404
686,03	0,315
686,22	0,259
686,42	0,239
686,61	0,495
686,80	0,465
687,00	0,532
687,19	0,567
687,39	0,401
687,58	0,396
687,77	0,323
687,97	0,302
688,16	0,265
688,36	0,163
688,55	0,141
688,74	0,361
688,94	0,290
689,13	0,614
689,33	0,482
689,52	0,447
689,71	0,553
689,91	0,236
690,10	0,399
690,30	0,335
690,49	0,312
690,68	0,421
690,88	0,491
691,07	0,306
691,27	0,367
691,46	0,300
691,65	0,456
691,85	0,314
692,04	0,307
692,23	0,248
692,43	0,339
692,62	0,489
692,82	0,579
693,01	0,336
693,20	0,569
693,40	0,062
693,59	0,389
693,78	0,422
693,98	0,389
694,17	0,210
694,36	0,479
694,56	0,548
694,75	0,327
694,94	0,532
695,14	0,592
695,33	0,353
695,53	0,320
695,72	0,504
695,91	0,455
696,11	0,287
696,30	0,358
696,49	0,352
696,69	0,464
696,88	0,440
697,07	0,272
697,27	0,541
697,46	0,480
697,65	0,576
697,85	0,263
698,04	0,772
698,23	0,615
698,43	0,719
698,62	0,561
698,81	0,460
699,01	1,062
699,20	0,602
699,39	0,607
699,58	0,640
699,78	0,931
699,97	0,597
700,16	0,754
700,36	0,703
700,55	0,993
700,74	0,657
700,94	1,003
701,13	1,084
701,32	1,201
701,52	1,098
701,71	0,674
701,90	1,525
702,09	1,669
702,29	1,573
702,48	1,075
702,67	0,765
702,87	0,929
703,06	1,137
703,25	1,000
703,44	0,972
703,64	1,572
703,83	1,877
704,02	1,320
704,22	1,465
704,41	1,718
704,60	2,137
704,79	1,054
704,99	1,837
705,18	1,802
705,37	0,823
705,56	2,208
705,76	1,876
705,95	1,975
706,14	1,124
706,33	2,604
706,53	2,465
706,72	2,476
706,91	2,358
707,11	2,538
707,30	3,076
707,49	3,302
707,68	1,435
707,88	2,328
708,07	1,964
708,26	1,862
708,45	1,984
708,64	2,228
708,84	3,791
709,03	3,630
709,22	2,046
709,41	2,988
709,61	2,935
709,80	4,294
709,99	3,697
710,18	3,472
710,38	3,651
710,57	2,299
710,76	2,498
710,95	3,964
711,14	4,881
711,34	4,588
711,53	4,392
711,72	4,309
711,91	2,603
712,11	5,800
712,30	4,673
712,49	3,789
712,68	4,384
712,87	5,803
713,07	4,872
713,26	3,562
713,45	6,831
713,64	4,633
713,83	4,336
714,03	5,227
714,22	4,480
714,41	4,456
714,60	4,528
714,79	4,179
714,99	4,429
715,18	2,411
715,37	3,747
715,56	7,039
715,75	5,544
715,94	5,950
716,14	5,418
716,33	4,795
716,52	4,631
716,71	6,201
716,90	7,195
717,10	7,391
717,29	5,657
717,48	5,152
717,67	2,441
717,86	6,613
718,05	2,998
718,24	6,830
718,44	7,707
718,63	4,619
718,82	9,320
719,01	8,297
719,20	4,399
719,39	4,823
719,59	3,309
719,78	5,683
719,97	7,880
720,16	8,088
720,35	7,303
720,54	5,994
720,73	5,289
720,93	8,746
721,12	4,797
721,31	10,489
721,50	7,715
721,69	5,865
721,88	8,673
722,07	6,346
722,27	7,073
722,46	7,990
722,65	5,397
722,84	9,419
723,03	6,935
723,22	11,746
723,41	6,403
723,60	12,531
723,79	10,339
723,99	9,192
724,18	8,684
724,37	9,046
724,56	7,850
724,75	9,537
724,94	13,949
725,13	16,003
725,32	7,034
725,51	9,930
725,71	8,712
725,90	8,920
726,09	13,657
726,28	10,624
726,47	10,254
726,66	12,558
726,85	9,016
727,04	10,280
727,23	10,537
727,42	15,024
727,61	3,810
727,81	14,911
728,00	11,066
728,19	8,810
728,38	10,475
728,57	9,539
728,76	12,630
728,95	13,616
729,14	9,626
729,33	18,551
729,52	15,073
729,71	13,433
729,90	11,596
730,09	6,659
730,28	17,552
730,48	8,469
730,67	12,938
730,86	8,706
731,05	14,252
731,24	12,607
731,43	8,302
731,62	14,787
731,81	9,149
732,00	15,375
732,19	10,217
732,38	15,183
732,57	12,807
732,76	16,190
732,95	4,267
733,14	11,053
733,33	13,874
733,52	14,407
733,71	12,516
733,90	17,609
734,09	14,732
734,28	14,897
734,47	7,500
734,66	13,433
734,85	17,163
735,04	22,071
735,23	15,476
735,42	14,121
735,61	21,200
735,81	11,724
736,00	16,566
736,19	14,349
736,38	15,259
736,57	18,802
736,76	3,411
736,95	17,576
737,14	11,854
737,33	16,693
737,52	20,211
737,71	12,019
737,90	21,785
738,09	22,546
738,28	17,544
738,47	19,935
738,66	15,469
738,85	11,340
739,04	17,657
739,22	9,122
739,41	16,613
739,60	17,559
739,79	16,952
739,98	11,252
740,17	16,156
740,36	24,464
740,55	26,279
740,74	16,000
740,93	24,390
741,12	18,934
741,31	16,728
741,50	8,098
741,69	18,148
741,88	9,200
742,07	22,383
742,26	17,041
742,45	12,253
742,64	26,978
742,83	15,106
743,02	18,919
743,21	25,151
743,40	17,466
743,59	16,393
743,78	26,638
743,97	20,677
744,16	18,847
744,34	25,984
744,53	20,697
744,72	22,869
744,91	11,368
745,10	13,531
745,29	21,277
745,48	24,853
745,67	29,939
745,86	16,432
746,05	21,689
746,24	20,915
746,43	30,969
746,62	21,429
746,81	32,877
747,00	20,877
747,18	33,846
747,37	25,373
747,56	28,989
747,75	26,915
747,94	30,853
748,13	25,571
748,32	28,205
748,51	29,571
748,70	27,098
748,89	23,188
749,08	19,714
749,26	20,764
749,45	32,941
749,64	26,551
749,83	27,481
750,02	25,691
750,21	19,355
750,40	22,917
750,59	31,840
750,78	37,870
750,96	28,492
751,15	21,311
751,34	29,319
751,53	32,266
751,72	23,989
751,91	23,562
752,10	25,617
752,29	34,463
752,47	19,944
752,66	27,606
752,85	26,625
753,04	34,385
753,23	9,934
753,42	34,650
753,61	21,895
753,80	16,260
753,98	26,667
754,17	31,595
754,36	33,616
754,55	31,975
754,74	36,416
754,93	31,124
755,12	30,133
755,30	23,823
755,49	35,168
755,68	35,159
755,87	29,129
756,06	40,503
756,25	31,111
756,43	33,793
756,62	30,861
756,81	31,683
757,00	36,812
757,19	43,493
757,38	34,069
757,56	40,645
757,75	35,621
757,94	34,069
758,13	22,078
758,32	47,727
758,51	29,779
758,69	33,200
758,88	38,438
759,07	22,222
759,26	43,721
759,45	31,441
759,63	36,803
759,82	30,640
760,01	22,074
760,20	40,856
760,39	55,597
760,57	43,802
760,76	36,937
760,95	43,981
761,14	36,735
761,33	37,500
761,51	37,276
761,70	51,724
761,89	33,607
762,08	48,837
762,27	37,729
762,45	52,529
762,64	28,205
762,83	49,558
763,02	66,512
763,21	24,138
763,39	45,306
763,58	46,792
763,77	47,876
763,96	55,823
764,14	45,833
764,33	51,648
764,52	49,785
764,71	43,946
764,89	37,745
765,08	44,828
765,27	46,097
765,46	51,087
765,65	36,681
765,83	48,052
766,02	44,681
766,21	53,591
766,40	48,095
766,58	51,220
766,77	47,264
766,96	59,091
767,15	56,522
767,33	44,444
767,52	74,390
767,71	49,130
767,90	27,528
768,08	45,136
768,27	68,500
768,46	52,734
768,64	63,731
768,83	55,208
769,02	58,000
769,21	62,882
769,39	74,419
769,58	58,960
769,77	62,452
769,96	58,639
770,14	25,170
770,33	41,589
770,52	55,556
770,70	36,667
770,89	69,799
771,08	50,847
771,27	65,979
771,45	33,772
771,64	75,000
771,83	51,869
772,01	38,554
772,20	61,809
772,39	36,000
772,57	73,643
772,76	39,259
772,95	59,574
773,14	75,269
773,32	85,161
773,51	69,154
773,70	81,875
773,88	87,978
774,07	52,880
774,26	43,262
774,44	48,171
774,63	60,406
774,82	63,415
775,00	59,333
775,19	60,800
775,38	53,757
775,56	56,250
775,75	77,711
775,94	76,582
776,12	59,669
776,31	53,529
776,50	67,614
776,68	64,737
776,87	88,068
777,06	71,724
777,24	82,222
777,43	50,000
777,62	78,676
777,80	84,459
777,99	95,429
778,18	79,208
778,36	76,800
778,55	93,388
778,74	97,917
778,92	68,639
779,11	81,667
779,29	72,956
779,48	57,823
779,67	75,194
779,85	98,374
780,04	56,216
780,23	70,504
780,41	67,969
780,60	56,316
780,79	64,972
780,97	80,263
781,16	60,000
781,34	95,876
781,53	98,291
781,72	57,664
781,90	44,531
782,09	87,742
782,28	117,518
782,46	79,259
782,65	90,000
782,83	113,483
783,02	132,500
783,21	68,667
783,39	100,870
783,58	68,639
783,76	54,190
783,95	80,000
784,14	92,053
784,32	83,221
784,51	83,621
784,69	113,559
784,88	97,297
785,06	85,714
785,25	96,178
785,44	115,108
785,62	73,571
785,81	125,352
785,99	99,281
786,18	99,324
786,37	83,704
786,55	90,826
786,74	75,000
786,92	85,938
787,11	101,667
787,29	73,134
787,48	87,333
787,67	115,663
787,85	86,207
788,04	60,891
788,22	75,410
788,41	110,588
788,59	111,927
788,78	85,455
788,96	105,660
789,15	143,158
789,34	121,818
789,52	100,885
789,71	84,496
789,89	208,511
790,08	86,301
790,26	77,143
790,45	84,848
790,63	114,815
790,82	102,424
791,00	60,417
791,19	126,882
791,38	97,917
791,56	73,684
791,75	114,679
791,93	142,529
792,12	87,574
792,30	110,400
792,49	63,866
792,67	106,716
792,86	76,744
793,04	74,766
793,23	78,333
793,41	100,000
793,60	119,192
793,78	140,351
793,97	121,795
794,15	112,727
794,34	103,297
794,52	124,675
794,71	112,346
794,89	93,333
795,08	127,184
795,26	68,889
795,45	135,821
795,63	96,970
795,82	87,850
796,00	127,523
796,19	129,167
796,37	114,599
796,56	170,968
796,74	125,664
796,93	108,989
797,11	113,924
797,30	102,500
797,48	99,310
797,67	126,667
797,85	117,347
798,04	104,167
798,22	80,952
798,41	150,980
798,59	120,000
798,77	104,615
798,96	72,043
799,14	98,276
799,33	131,298
799,51	96,923
799,70	91,275
799,88	153,030
800,07	86,184
800,25	88,966
800,44	65,657
800,62	72,941
800,80	143,478
800,99	123,810
801,17	89,655
801,36	102,759
801,54	105,208
801,73	130,303
801,91	114,754
802,10	95,238
802,28	123,364
802,46	90,123
802,65	95,402
802,83	147,191
803,02	130,526
803,20	114,844
803,39	136,207
803,57	110,843
803,75	78,378
803,94	83,193
804,12	60,000
804,31	95,575
804,49	82,692
804,67	100,800
804,86	101,786
805,04	97,297
805,23	84,828
805,41	96,721
805,59	81,148
805,78	106,061
805,96	82,692
806,15	131,250
806,33	93,277
806,51	69,912
806,70	170,000
806,88	59,350
807,07	80,952
807,25	64,780
807,43	77,483
807,62	105,691
807,80	113,978
807,99	119,841
808,17	104,965
808,35	105,263
808,54	109,677
808,72	96,000
808,90	132,895
809,09	112,500
809,27	95,495
809,46	135,714
809,64	73,529
809,82	93,103
810,01	108,333
810,19	61,000
810,37	77,692
810,56	108,537
810,74	60,265
810,92	84,848
811,11	201,961
811,29	110,638
811,48	149,495
811,66	104,651
811,84	137,615
812,03	74,545
812,21	126,923
812,39	93,220
812,58	95,098
812,76	100,935
812,94	81,333
813,13	95,238
813,31	65,833
813,49	131,522
813,68	95,652
813,86	132,653
814,04	115,534
814,23	121,212
814,41	78,676
814,59	76,836
814,78	86,029
814,96	99,099
815,14	124,444
815,33	78,986
815,51	76,296
815,69	92,593
815,87	95,652
816,06	101,875
816,24	87,417
816,42	56,410
816,61	94,915
816,79	137,349
816,97	112,613
817,16	67,742
817,34	102,759
817,52	97,241
817,70	154,762
817,89	80,992
818,07	102,586
818,25	127,027
818,44	75,581
818,62	95,690
818,80	91,608
818,98	67,619
819,17	75,385
819,35	103,529
819,53	117,822
819,72	52,326
819,90	65,868
820,08	85,065
820,26	131,579
820,45	92,771
820,63	79,167
820,81	85,235
820,99	111,278
821,18	80,000
821,36	62,857
821,54	101,163
821,73	91,892
821,91	66,489
822,09	78,824
822,27	55,838
822,46	56,250
822,64	76,159
822,82	88,780
823,00	75,676
823,19	64,394
823,37	117,857
823,55	65,294
823,73	65,333
823,91	56,906
824,10	68,715
824,28	74,815
824,46	41,279
824,64	58,824
824,83	43,902
825,01	69,565
825,19	64,571
825,37	66,146
825,56	68,750
825,74	90,476
825,92	79,775
826,10	70,807
826,28	65,772
826,47	56,098
826,65	64,865
826,83	42,473
827,01	61,364
827,19	82,278
827,38	80,311
827,56	94,231
827,74	56,098
827,92	62,927
828,10	61,957
828,29	54,286
828,47	79,825
828,65	59,459
828,83	64,141
829,01	81,333
829,20	60,759
829,38	53,942
829,56	70,445
829,74	100,758
829,92	70,103
830,10	52,703
830,29	53,514
830,47	74,479
830,65	53,125
830,83	74,857
831,01	43,750
831,20	54,950
831,38	51,707
831,56	65,992
831,74	81,714
831,92	67,614
832,10	70,000
832,29	49,289
832,47	40,265
832,65	74,043
832,83	46,512
833,01	32,016
833,19	60,181
833,37	62,222
833,56	59,155
833,74	51,012
833,92	48,230
834,10	64,975
834,28	41,923
834,46	50,173
834,64	54,297
834,83	51,536
835,01	47,082
835,19	68,246
835,37	47,809
835,55	45,487
835,73	63,603
835,91	40,541
836,09	45,643
836,28	51,527
836,46	60,000
836,64	48,361
836,82	32,463
837,00	52,721
837,18	62,846
837,36	66,310
837,54	23,864
837,72	35,857
837,91	40,562
838,09	43,600
838,27	55,678
838,45	55,987
838,63	24,407
838,81	46,711
838,99	51,568
839,17	52,104
839,35	30,370
839,53	45,638
839,72	34,746
839,90	26,140
840,08	37,179
840,26	45,426
840,44	24,074
840,62	34,680
840,80	32,716
840,98	40,181
841,16	47,331
841,34	37,101
841,52	36,741
841,70	29,293
841,89	40,323
842,07	44,595
842,25	31,169
842,43	37,742
842,61	40,483
842,79	46,646
842,97	32,317
843,15	46,705
843,33	31,591
843,51	35,322
843,69	29,722
843,87	32,884
844,05	32,075
844,23	35,135
844,41	25,377
844,59	31,818
844,77	20,749
844,95	34,709
845,13	36,885
845,31	39,106
845,50	36,856
845,68	33,679
845,86	32,311
846,04	35,062
846,22	40,334
846,40	24,934
846,58	26,542
846,76	29,925
846,94	24,760
847,12	33,175
847,30	36,866
847,48	32,134
847,66	32,195
847,84	18,528
848,02	35,967
848,20	33,333
848,38	22,689
848,56	31,828
848,74	28,926
848,92	14,405
849,10	36,607
849,28	29,194
849,46	27,103
849,64	25,000
849,82	27,885
850,00	20,945
850,18	24,249
850,36	29,167
850,54	22,870
850,72	22,661
850,90	29,440
851,08	24,486
851,26	29,150
851,44	24,699
851,62	20,309
851,80	21,471
851,98	36,831
852,16	26,337
852,34	32,638
852,52	21,670
852,70	20,884
852,87	30,095
853,05	32,665
853,23	25,098
853,41	23,926
853,59	18,491
853,77	28,373
853,95	27,542
854,13	18,252
854,31	24,258
854,49	18,036
854,67	27,632
854,85	22,957
855,03	21,456
855,21	21,320
855,39	24,329
855,57	23,732
855,75	24,958
855,93	16,961
856,11	25,678
856,28	25,868
856,46	21,895
856,64	22,816
856,82	12,216
857,00	21,453
857,18	21,127
857,36	17,983
857,54	21,959
857,72	17,529
857,90	14,992
858,08	21,914
858,26	14,526
858,44	18,634
858,61	18,544
858,79	18,140
858,97	20,344
859,15	15,525
859,33	16,258
859,51	17,252
859,69	17,857
859,87	21,669
860,05	25,244
860,23	13,182
860,40	20,737
860,58	12,787
860,76	24,435
860,94	13,588
861,12	12,040
861,30	15,595
861,48	15,864
861,66	13,967
861,84	22,207
862,01	19,786
862,19	17,886
862,37	17,347
862,55	16,713
862,73	14,946
862,91	14,810
863,09	15,995
863,27	12,813
863,44	16,026
863,62	11,641
863,80	9,394
863,98	15,070
864,16	11,344
864,34	17,013
864,52	18,565
864,69	15,904
864,87	17,282
865,05	10,167
865,23	13,043
865,41	17,282
865,59	15,080
865,76	14,470
865,94	16,166
866,12	12,458
866,30	15,828
866,48	11,721
866,66	16,594
866,83	14,661
867,01	14,491
867,19	12,542
867,37	11,525
867,55	19,210
867,73	17,312
867,90	13,527
868,08	14,706
868,26	10,262
868,44	10,730
868,62	16,301
868,79	12,554
868,97	14,072
869,15	11,996
869,33	11,356
869,51	13,270
869,69	11,470
869,86	9,744
870,04	10,899
870,22	7,700
870,40	8,485
870,57	10,800
870,75	15,805
870,93	14,880
871,11	11,902
871,29	11,585
871,46	10,373
871,64	10,485
871,82	10,927
872,00	14,639
872,18	14,822
872,35	15,508
872,53	12,665
872,71	7,411
872,89	10,658
873,06	7,196
873,24	13,051
873,42	8,602
873,60	8,264
873,77	13,612
873,95	9,166
874,13	8,497
874,31	8,289
874,49	9,939
874,66	8,247
874,84	7,282
875,02	9,276
875,20	10,083
875,37	7,581
875,55	5,165
875,73	6,557
875,91	13,984
876,08	7,723
876,26	7,077
876,44	3,594
876,61	7,863
876,79	8,333
876,97	8,013
877,15	14,962
877,32	8,583
877,50	9,931
877,68	10,647
877,86	6,303
878,03	7,137
878,21	7,670
878,39	8,593
878,56	7,006
878,74	8,966
878,92	7,047
879,10	10,947
879,27	8,877
879,45	10,851
879,63	8,099
879,80	7,750
879,98	5,694
880,16	7,682
880,34	2,971
880,51	11,495
880,69	9,149
880,87	4,605
881,04	7,286
881,22	8,564
881,40	4,881
881,57	8,424
881,75	7,398
881,93	5,734
882,10	7,495
882,28	6,534
882,46	8,446
882,63	9,045
882,81	6,839
882,99	7,788
883,16	7,957
883,34	7,320
883,52	5,718
883,69	7,861
883,87	4,931
884,05	5,496
884,22	5,450
884,40	5,832
884,58	5,754
884,75	5,915
884,93	7,801
885,11	5,876
885,28	5,857
885,46	6,135
885,64	6,492
885,81	7,749
885,99	5,759
886,17	6,166
886,34	5,349
886,52	7,561
886,70	5,109
886,87	6,007
887,05	7,215
887,22	4,818
887,40	7,197
887,58	6,070
887,75	6,830
887,93	6,443
888,11	7,019
888,28	4,931
888,46	3,262
888,63	5,391
888,81	4,186
888,99	3,697
889,16	4,517
889,34	3,704
889,51	4,717
889,69	4,466
889,87	3,618
890,04	5,650
890,22	5,146
890,39	3,494
890,57	6,415
890,75	6,541
890,92	5,840
891,10	6,533
891,27	5,243
891,45	5,875
891,63	5,724
891,80	3,178
891,98	6,019
892,15	4,526
892,33	4,109
892,51	4,285
892,68	4,163
892,86	4,527
893,03	6,144
893,21	5,529
893,38	4,600
893,56	4,994
893,74	3,982
893,91	4,454
894,09	4,812
894,26	4,820
894,44	3,941
894,61	5,081
894,79	3,103
894,96	3,994
895,14	4,508
895,32	4,979
895,49	3,953
895,67	4,476
895,84	5,017
896,02	4,896
896,19	3,815
896,37	6,510
896,54	3,571
896,72	3,869
896,89	5,385
897,07	4,524
897,25	5,405
897,42	3,244
897,60	5,116
897,77	5,458
897,95	4,733
898,12	3,786
898,30	2,742
898,47	3,881
898,65	4,481
898,82	3,912
899,00	3,245
899,17	5,290
899,35	3,818
899,52	3,084
899,70	3,734
899,87	4,569
900,05	5,213
900,22	4,124
900,40	3,745
900,57	4,187
900,75	2,355
900,92	3,118
901,10	4,182
901,27	4,929
901,45	3,766
901,62	3,966
901,80	4,988
901,97	4,649
902,15	5,164
902,32	3,846
902,50	4,247
902,67	3,518
902,85	3,205
903,02	4,177
903,20	2,743
903,37	4,775
903,54	4,997
903,72	2,567
903,89	3,659
904,07	3,913
904,24	4,288
904,42	4,184
904,59	2,335
904,77	4,025
904,94	3,181
905,12	2,374
905,29	5,013
905,47	3,882
905,64	3,613
905,81	3,357
905,99	3,422
906,16	3,507
906,34	3,905
906,51	3,314
906,69	4,378
906,86	4,067
907,03	2,841
907,21	2,505
907,38	3,194
907,56	3,676
907,73	4,159
907,91	3,552
908,08	2,502
908,25	2,682
908,43	2,921
908,60	2,973
908,78	4,019
908,95	3,956
909,13	4,206
909,30	3,191
909,47	3,731
909,65	4,139
909,82	4,557
910,00	3,325
910,17	2,855
910,34	3,665
910,52	3,097
910,69	4,305
910,87	3,862
911,04	2,909
911,21	3,576
911,39	3,178
911,56	3,697
911,73	3,674
911,91	3,913
912,08	4,652
912,26	3,321
912,43	2,927
912,60	4,238
912,78	2,514
912,95	3,482
913,13	3,239
913,30	2,980
913,47	4,714
913,65	1,519
913,82	3,107
913,99	1,918
914,17	2,731
914,34	3,890
914,51	4,756
914,69	3,262
914,86	4,522
915,03	3,116
915,21	2,658
915,38	2,520
915,56	3,531
915,73	3,053
915,90	4,201
916,08	3,993
916,25	2,991
916,42	2,496
916,60	2,957
916,77	2,379
916,94	2,685
917,12	3,528
917,29	3,156
917,46	2,056
917,64	2,477
917,81	3,001
917,98	2,379
918,16	3,671
918,33	2,419
918,50	3,203
918,67	2,072
918,85	2,510
919,02	1,946
919,19	3,653
919,37	2,360
919,54	2,995
919,71	3,128
919,89	2,679
920,06	2,000
920,23	3,516
920,41	3,586
920,58	2,761
920,75	2,722
920,92	1,817
921,10	1,344
921,27	1,211
921,44	4,187
921,62	1,401
921,79	3,455
921,96	1,792
922,13	2,312
922,31	1,957
922,48	2,452
922,65	2,008
922,82	1,758
923,00	2,747
923,17	1,283
923,34	2,144
923,52	1,933
923,69	2,287
923,86	2,169
924,03	2,015
924,21	2,453
924,38	3,249
924,55	3,442
924,72	2,873
924,90	2,800
925,07	2,421
925,24	3,155
925,41	1,787
925,59	1,802
925,76	2,361
925,93	3,115
926,10	2,985
926,28	2,510
926,45	2,899
926,62	2,805
926,79	2,334
926,96	2,520
927,14	2,884
927,31	1,761
927,48	2,729
927,65	1,686
927,83	2,113
928,00	2,190
928,17	2,444
928,34	2,085
928,51	2,371
928,69	1,756
928,86	2,489
929,03	3,269
929,20	2,099
929,37	2,869
929,55	2,580
929,72	2,958
929,89	1,821
930,06	2,024
930,23	2,716
930,41	2,622
930,58	3,284
930,75	2,775
930,92	2,602
931,09	2,388
931,27	1,757
931,44	2,094
931,61	2,703
931,78	2,266
931,95	2,088
932,12	1,997
932,30	1,991
932,47	2,413
932,64	3,024
932,81	2,130
932,98	0,925
933,16	1,531
933,33	1,654
933,50	2,376
933,67	3,212
933,84	2,165
934,01	2,036
934,18	1,471
934,36	1,800
934,53	1,166
934,70	1,921
934,87	2,167
935,04	2,223
935,21	1,624
935,38	1,709
935,56	1,623
935,73	2,417
935,90	1,381
936,07	2,362
936,24	2,784
936,41	1,845
936,58	0,864
936,76	2,193
936,93	1,473
937,10	1,842
937,27	2,107
937,44	2,208
937,61	3,087
937,78	2,090
937,95	1,902
938,13	1,777
938,30	1,430
938,47	2,959
938,64	2,448
938,81	1,890
938,98	1,990
939,15	2,168
939,32	1,843
939,49	2,966
939,66	2,503
939,84	2,589
940,01	2,398
940,18	2,146
940,35	2,375
940,52	1,174
940,69	2,770
940,86	1,955
941,03	1,260
941,20	2,209
941,37	2,403
941,54	1,700
941,71	1,069
941,89	2,434
942,06	2,164
942,23	2,360
942,40	2,102
942,57	1,948
942,74	2,736
942,91	1,240
943,08	2,788
943,25	1,888
943,42	2,396
943,59	2,565
943,76	3,632
943,93	1,764
944,10	1,673
944,27	1,181
944,44	1,388
944,61	1,639
944,79	2,506
944,96	3,338
945,13	1,615
945,30	1,119
945,47	3,049
945,64	2,261
945,81	4,000
945,98	3,233
946,15	3,235
946,32	2,685
946,49	3,001
946,66	1,626
946,83	2,133
947,00	1,817
947,17	2,289
947,34	2,803
947,51	2,442
947,68	3,108
947,85	1,987
948,02	3,430
948,19	3,472
948,36	3,330
948,53	3,756
948,70	4,486
948,87	4,195
949,04	2,004
949,21	1,763
949,38	3,355
949,55	2,756
949,72	3,167
949,89	3,075
950,06	2,292
950,23	3,431
950,40	3,267
950,57	3,083
950,74	6,149
950,91	2,888
951,08	4,114
951,25	5,369
951,42	4,732
951,59	3,361
951,76	3,194
951,93	5,373
952,10	4,925
952,27	4,065
952,44	4,260
952,61	5,035
952,77	4,687
952,94	4,658
953,11	5,628
953,28	4,700
953,45	5,644
953,62	3,711
953,79	6,743
953,96	6,336
954,13	4,708
954,30	6,963
954,47	4,981
954,64	3,991
954,81	5,000
954,98	4,408
955,15	5,981
955,32	5,241
955,49	3,894
955,65	6,099
955,82	8,842
955,99	7,420
956,16	9,133
956,33	4,951
956,50	7,258
956,67	9,734
956,84	8,444
957,01	4,836
957,18	8,172
957,35	10,714
957,52	9,060
957,68	9,083
957,85	8,681
958,02	9,130
958,19	6,614
958,36	11,968
958,53	6,359
958,70	12,127
958,87	9,687
959,04	10,310
959,21	11,919
959,37	11,905
959,54	10,474
959,71	9,840
959,88	9,660
960,05	14,790
960,22	8,402
960,39	15,200
960,56	10,000
960,72	10,665
960,89	18,504
961,06	13,248
961,23	11,354
961,40	18,615
961,57	14,265
961,74	8,070
961,90	16,406
962,07	20,396
962,24	23,252
962,41	11,223
962,58	20,310
962,75	18,584
962,92	18,692
963,08	13,455
963,25	20,000
963,42	19,807
963,59	27,893
963,76	28,315
963,93	23,570
964,10	22,698
964,26	29,167
964,43	29,199
964,60	23,316
964,77	23,614
964,94	21,307
965,10	36,310
965,27	33,681
965,44	30,909
965,61	36,364
965,78	23,962
965,95	41,617
966,11	36,223
966,28	49,071
966,45	40,498
966,62	47,077
966,79	24,898
966,95	44,179
967,12	38,801
967,29	48,611
967,46	44,697
967,63	53,585
967,79	53,604
967,96	34,199
968,13	49,500
968,30	46,774
968,47	54,639
968,63	63,964
968,80	51,835
968,97	43,750
969,14	44,186
969,31	51,667
969,47	57,647
969,64	76,263
969,81	40,933
969,98	73,077
970,14	75,460
970,31	84,906
970,48	53,333
970,65	65,680
970,81	73,288
970,98	95,620
971,15	112,245
971,32	67,188
971,48	104,082
971,65	67,692
971,82	98,039
971,99	124,138
972,15	80,986
972,32	108,108
972,49	79,021
972,66	123,636
972,82	131,395
972,99	139,024
973,16	120,690
973,33	100,000
973,49	93,684
973,66	106,452
973,83	96,117
974,00	134,884
974,16	140,196
974,33	154,386
974,50	83,158
974,67	145,263
974,83	103,571
975,00	132,632
975,17	112,088
975,33	125,843
975,50	191,045
975,67	218,367
975,84	197,015
976,00	176,404
976,17	186,885
976,34	121,000
976,50	167,416
976,67	135,922
976,84	2600,000
977,00	230,612
977,17	175,556
977,34	212,088
977,50	183,582
977,67	235,714
977,84	188,710
978,01	246,809
978,17	311,111
978,34	297,222
978,51	232,353
978,67	176,316
978,84	119,531
979,01	378,378
979,17	225,641
979,34	109,589
979,51	222,449
979,67	158,025
979,84	244,898
980,01	260,000
980,17	287,324
980,34	474,074
980,51	192,754
980,67	145,882
980,84	413,333
981,01	465,000
981,17	548,000
981,34	1022,222
981,50	247,059
981,67	215,254
981,84	5500,000
982,00	456,667
982,17	207,143
982,34	180,000
982,50	666,667
982,67	165,625
982,84	1940,000
983,00	1816,667
983,17	238,806
983,33	172,414
983,50	1620,000
983,67	-396,552
983,83	342,424
984,00	-1257,143
984,17	672,222
984,33	-6650,000
984,50	460,000
984,66	343,478
984,83	242,857
985,00	-491,667
985,16	503,448
985,33	717,647
985,49	755,556
985,66	441,176
985,83	273,913
985,99	366,667
986,16	-2800,000
986,32	921,429
986,49	11200,000
986,66	454,545
986,82	858,333
986,99	322,642
987,15	-478,947
987,32	-246,429
987,49	304,000
987,65	6150,000
987,82	233,333
987,98	310,204
988,15	496,667
988,31	1190,000
988,48	-1683,333
988,65	285,714
988,81	441,667
988,98	363,415
989,14	276,190
989,31	714,286
989,47	397,059
989,64	-900,000
989,80	831,250
989,97	275,676
990,14	-336,957
990,30	-513,636
990,47	359,184
990,63	352,778
990,80	294,000
990,96	-710,000
991,13	409,375
991,29	537,931
991,46	0,000
991,62	-1084,615
991,79	941,667
991,95	10000,000
992,12	-1130,000
992,29	-600,000
992,45	172,941
992,62	334,884
992,78	263,636
992,95	-726,667
993,11	557,143
993,28	1610,000
993,44	-770,000
993,61	-818,750
993,77	-3000,000
993,94	-5266,667
994,10	-113,333
994,27	900,000
994,43	362,791
994,60	0,000
994,76	2925,000
994,93	515,000
995,09	-829,412
995,26	1311,111
995,42	303,922
995,59	561,905
995,75	1053,846
995,92	2042,857
996,08	369,444
996,25	-1125,000
996,41	-4850,000
996,58	860,000
996,74	347,727
996,91	603,448
997,07	0,000
997,23	15200,000
997,40	-17000,000
997,56	-861,538
997,73	-1250,000
997,89	428,947
998,06	1123,077
998,22	-522,222
998,39	684,000
998,55	1777,778
998,72	-1800,000
998,88	-333,333
999,05	-135,897
999,21	311,905
999,37	-833,333
999,54	-1025,000
999,70	-300,000
999,87	962,500
1000,03	384,615
1000,20	297,917
1000,36	0,000
1000,52	650,000
1000,69	-671,429
1000,85	-1250,000
1001,02	-400,000
1001,18	2375,000
1001,35	1023,077
1001,51	547,059
1001,67	-1223,077
1001,84	-2640,000
1002,00	316,216
1002,17	1400,000
1002,33	-2550,000
1002,50	538,095
1002,66	-715,385
1002,82	340,000
1002,99	1042,857
1003,15	-1742,857
1003,32	-1181,818
1003,48	507,143
1003,64	860,000
1003,81	559,259
1003,97	-5350,000
1004,14	1109,091
1004,30	326,667
1004,46	-700,000
1004,63	1142,857
1004,79	361,111
1004,95	940,000
1005,12	7400,000
1005,28	493,103
1005,45	408,108
1005,61	482,759
1005,77	-258,333
1005,94	-509,524
1006,10	-5900,000
1006,26	946,154
1006,43	-388,462
1006,59	-1181,818
1006,76	1128,571
1006,92	1411,111
1007,08	8700,000
1007,25	-362,963
1007,41	548,276
1007,57	6000,000
1007,74	1080,000
1007,90	-468,966
1008,06	232,609
1008,23	964,706
1008,39	-743,750
1008,55	-430,769
1008,72	-1714,286
1008,88	0,000
1009,04	302,439
1009,21	-278,947
1009,37	-1033,333
1009,53	307,143
1009,70	3500,000
1009,86	-585,714
1010,02	3000,000
1010,19	918,182
1010,35	283,824
1010,51	-6150,000
1010,68	-1925,000
1010,84	-259,091
1011,00	837,500
1011,17	-477,273
1011,33	0,000
1011,49	-573,333
1011,66	1078,571
1011,82	490,323
1011,98	792,857
1012,14	-527,273
1012,31	364,103
1012,47	0,000
1012,63	2400,000
1012,80	764,286
1012,96	-643,750
1013,12	-1966,667
1013,29	588,889
1013,45	421,951
1013,61	4233,333
1013,77	-137,500
1013,94	2400,000
1014,10	189,831
1014,26	-3025,000
1014,43	-328,000
1014,59	750,000
1014,75	-755,556
1014,91	-633,333
1015,08	491,667
1015,24	11700,000
1015,40	576,471
1015,56	-15400,000
1015,73	252,381
1015,89	536,364
1016,05	3850,000
1016,21	-1362,500
1016,38	784,211
1016,54	1176,923
1016,70	-3466,667
1016,86	496,875
1017,03	937,500
1017,19	-753,846
1017,35	-970,588
1017,51	-1680,000
1017,68	-880,000
1017,84	-2200,000
1018,00	388,095
1018,16	546,154
1018,33	-1771,429
1018,49	-866,667
1018,65	-137,838
1018,81	335,897
1018,97	-1557,143
1019,14	-3066,667
1019,30	-358,974
1019,46	0,000
1019,62	-558,824
1019,79	-3966,667
1019,95	1133,333
1020,11	4600,000
1020,27	-492,593
1020,43	-492,308
1020,60	1883,333
1020,76	783,333
1020,92	953,333
1021,08	680,000
1021,24	1250,000
1021,41	1455,556
1021,57	1612,500
1021,73	753,846
1021,89	2560,000
1022,05	-414,286
1022,21	680,000
1022,38	-675,000
1022,54	-2316,667
1022,70	344,444
1022,86	-1525,000
1023,02	575,000
1023,19	2400,000
1023,35	5000,000
1023,51	541,667
1023,67	459,259
1023,83	-606,250
1023,99	347,368
1024,16	-446,154
1024,32	-1544,444
1024,48	-1120,000
1024,64	457,143
1024,80	582,609
1024,96	448,718
1025,12	733,333
1025,29	566,667
1025,45	305,263
1025,61	861,111
1025,77	-3360,000
1025,93	-9300,000
1026,09	-1942,857
1026,26	1075,000
1026,42	743,750
1026,58	460,606
1026,74	1733,333
1026,90	440,000
1027,06	239,286
1027,22	892,857
1027,38	326,923
1027,55	3966,667
1027,71	2250,000
1027,87	-232,000
1028,03	1160,000
1028,19	465,625
1028,35	715,000
1028,51	1520,000
1028,67	1008,333
1028,83	-3025,000
1029,00	-273,810
1029,16	1230,000
1029,32	-278,571
1029,48	300,000
1029,64	469,444
1029,80	4950,000
1029,96	826,667
1030,12	795,652
1030,28	-2100,000
1030,44	-1000,000
1030,61	-470,833
1030,77	-222,857
1030,93	-920,000
1031,09	1816,667
1031,25	-12200,000
1031,41	-386,667
1031,57	396,154
1031,73	606,250
1031,89	-1227,273
1032,05	-355,556
1032,21	1345,455
1032,37	-175,926
1032,53	-1150,000
1032,69	-370,833
1032,86	529,630
1033,02	-325,000
1033,18	-475,000
1033,34	478,947
1033,50	-5400,000
1033,66	-180,488
1033,82	408,696
1033,98	-529,630
1034,14	211,538
1034,30	416,129
1034,46	-3666,667
1034,62	665,000
1034,78	-528,571
1034,94	339,474
1035,10	-961,538
1035,26	-283,721
1035,42	-224,138
1035,58	-527,778
1035,74	1233,333
1035,90	-615,385
1036,06	-1500,000
1036,22	1600,000
1036,38	-858,824
1036,54	-620,833
1036,70	-190,909
1036,86	7800,000
1037,02	688,889
1037,18	710,526
1037,34	168,571
1037,50	-224,390
1037,66	-476,471
1037,82	2140,000
1037,98	-562,963
1038,14	-276,000
1038,30	-1875,000
1038,46	-964,286
1038,62	517,391
1038,78	-2433,333
1038,94	-678,947
1039,10	481,818
1039,26	462,963
1039,42	-900,000
1039,58	1600,000
1039,74	-705,263
1039,90	231,250
1040,06	-480,769
>>>>>End Processed Spectral Data<<<<<
