SpectraSuite Data File
++++++++++++++++++++++++++++++++++++
Date: Wed Feb 01 16:33:37 EET 2017
User: optolab
Dark Spectrum Present: Yes
Reference Spectrum Present: Yes
Number of Sampled Component Spectra: 1
Spectrometers: USB4C02475
Integration Time (usec): 100000 (USB4C02475)
Spectra Averaged: 1 (USB4C02475)
Boxcar Smoothing: 0 (USB4C02475)
Correct for Electrical Dark: No (USB4C02475)
Strobe/Lamp Enabled: No (USB4C02475)
Correct for Detector Non-linearity: No (USB4C02475)
Correct for Stray Light: No (USB4C02475)
Number of Pixels in Processed Spectrum: 3648
>>>>>Begin Processed Spectral Data<<<<<
344,91	3400,000
345,13	3400,000
345,35	3400,000
345,57	0,000
345,79	457,895
346,00	-1766,667
346,22	-2471,429
346,44	441,176
346,66	-545,833
346,87	-11600,000
347,09	457,576
347,31	-545,455
347,53	-341,026
347,74	236,923
347,96	554,545
348,18	921,053
348,40	409,677
348,61	976,471
348,83	342,857
349,05	243,137
349,27	-4350,000
349,48	557,692
349,70	-437,931
349,92	503,226
350,14	247,170
350,35	322,000
350,57	3425,000
350,79	636,000
351,01	-909,524
351,22	259,259
351,44	915,385
351,66	-280,000
351,87	-538,095
352,09	348,077
352,31	281,967
352,53	248,438
352,74	505,556
352,96	250,649
353,18	705,263
353,40	476,000
353,61	342,222
353,83	423,529
354,05	1009,091
354,26	2250,000
354,48	304,000
354,70	381,818
354,92	-417,241
355,13	201,010
355,35	309,091
355,57	491,667
355,78	216,867
356,00	-3475,000
356,22	419,231
356,44	8000,000
356,65	313,636
356,87	553,846
357,09	545,833
357,30	304,444
357,52	334,483
357,74	775,000
357,95	287,179
358,17	216,393
358,39	200,000
358,60	356,757
358,82	362,500
359,04	540,741
359,26	388,571
359,47	9400,000
359,69	417,500
359,91	469,697
360,12	580,952
360,34	645,833
360,56	-79,630
360,77	2550,000
360,99	461,905
361,21	296,000
361,42	5450,000
361,64	222,449
361,86	260,000
362,07	-522,581
362,29	206,667
362,51	-611,765
362,72	412,000
362,94	397,059
363,16	241,860
363,37	-864,286
363,59	523,077
363,81	438,636
364,02	877,778
364,24	537,500
364,46	4033,333
364,67	1018,182
364,89	2628,571
365,11	212,857
365,32	610,345
365,54	438,889
365,76	302,041
365,97	491,176
366,19	268,966
366,41	659,091
366,62	425,926
366,84	281,395
367,05	389,796
367,27	1800,000
367,49	-715,385
367,70	764,706
367,92	221,311
368,14	352,083
368,35	-9900,000
368,57	612,000
368,79	427,586
369,00	236,957
369,22	-1200,000
369,43	250,588
369,65	333,871
369,87	421,622
370,08	183,133
370,30	305,357
370,51	237,705
370,73	242,222
370,95	277,419
371,16	216,667
371,38	386,667
371,60	1362,500
371,81	198,438
372,03	1040,000
372,24	473,333
372,46	188,679
372,68	157,143
372,89	275,758
373,11	396,154
373,32	418,182
373,54	-1000,000
373,76	876,923
373,97	853,333
374,19	690,909
374,40	289,062
374,62	-5000,000
374,84	4500,000
375,05	450,000
375,27	352,000
375,48	-9700,000
375,70	194,667
375,92	291,071
376,13	396,875
376,35	215,068
376,56	1231,250
376,78	236,111
376,99	514,286
377,21	320,833
377,43	213,636
377,64	182,609
377,86	400,000
378,07	371,795
378,29	-1400,000
378,51	541,935
378,72	325,000
378,94	-1077,778
379,15	496,970
379,37	588,235
379,58	250,769
379,80	700,000
380,01	712,500
380,23	352,941
380,45	2260,000
380,66	4333,333
380,88	270,455
381,09	248,571
381,31	153,333
381,52	233,333
381,74	1777,778
381,95	622,727
382,17	511,538
382,39	666,667
382,60	244,898
382,82	358,974
383,03	326,923
383,25	361,290
383,46	245,455
383,68	418,519
383,89	655,000
384,11	303,226
384,32	-4366,667
384,54	844,444
384,76	-3366,667
384,97	424,242
385,19	503,448
385,40	266,667
385,62	212,281
385,83	326,190
386,05	254,902
386,26	316,000
386,48	220,690
386,69	329,167
386,91	645,000
387,12	252,542
387,34	234,483
387,55	201,613
387,77	409,375
387,98	561,538
388,20	183,696
388,41	414,706
388,63	10600,000
388,84	193,443
389,06	326,190
389,27	678,947
389,49	444,444
389,70	220,408
389,92	283,333
390,13	293,878
390,35	372,549
390,56	274,074
390,78	500,000
390,99	1110,000
391,21	715,789
391,42	262,222
391,64	317,073
391,85	182,759
392,07	184,091
392,28	196,000
392,50	339,394
392,71	-1400,000
392,93	230,769
393,14	508,333
393,36	336,735
393,57	154,887
393,79	1133,333
394,00	210,638
394,22	167,123
394,43	212,048
394,65	239,535
394,86	1462,500
395,08	714,286
395,29	171,698
395,50	538,462
395,72	544,444
395,93	766,667
396,15	161,972
396,36	136,765
396,58	231,667
396,79	335,000
397,01	176,000
397,22	336,111
397,44	239,394
397,65	136,842
397,87	333,333
398,08	216,327
398,29	381,250
398,51	260,714
398,72	214,634
398,94	209,231
399,15	354,286
399,37	214,035
399,58	173,626
399,80	568,182
400,01	244,444
400,22	352,381
400,44	207,407
400,65	464,286
400,87	192,647
401,08	141,429
401,30	158,696
401,51	238,596
401,72	400,000
401,94	162,025
402,15	610,000
402,37	188,235
402,58	566,667
402,80	125,714
403,01	218,310
403,22	745,455
403,44	249,275
403,65	192,857
403,87	198,571
404,08	410,256
404,30	174,118
404,51	-1933,333
404,72	154,286
404,94	115,686
405,15	188,000
405,37	163,291
405,58	180,000
405,79	170,732
406,01	300,000
406,22	217,241
406,44	308,511
406,65	215,789
406,86	239,583
407,08	107,595
407,29	143,689
407,51	175,610
407,72	137,963
407,93	188,043
408,15	103,419
408,36	318,605
408,58	152,577
408,79	104,167
409,00	150,000
409,22	155,556
409,43	182,278
409,64	96,273
409,86	101,258
410,07	113,846
410,29	87,313
410,50	126,950
410,71	122,321
410,93	89,172
411,14	139,535
411,35	78,571
411,57	120,395
411,78	113,281
412,00	97,452
412,21	83,226
412,42	95,767
412,64	57,082
412,85	86,082
413,06	97,561
413,28	66,216
413,49	82,464
413,70	81,159
413,92	73,123
414,13	58,506
414,34	75,479
414,56	58,741
414,77	112,236
414,98	58,389
415,20	78,201
415,41	71,671
415,63	57,960
415,84	70,000
416,05	65,934
416,27	59,690
416,48	65,169
416,69	70,796
416,91	55,676
417,12	64,439
417,33	63,789
417,55	51,308
417,76	71,663
417,97	48,963
418,19	56,064
418,40	61,702
418,61	65,000
418,83	59,455
419,04	48,580
419,25	51,402
419,46	47,820
419,68	58,254
419,89	45,753
420,10	50,476
420,32	42,839
420,53	46,388
420,74	49,936
420,96	47,125
421,17	47,460
421,38	50,381
421,60	50,883
421,81	46,128
422,02	52,560
422,23	46,761
422,45	44,158
422,66	48,911
422,87	51,787
423,09	45,751
423,30	46,744
423,51	44,724
423,73	39,610
423,94	39,706
424,15	38,435
424,36	40,506
424,58	35,562
424,79	36,040
425,00	33,313
425,22	32,108
425,43	31,570
425,64	33,333
425,85	34,766
426,07	38,777
426,28	41,482
426,49	41,737
426,71	44,205
426,92	43,009
427,13	47,824
427,34	51,396
427,56	51,461
427,77	46,344
427,98	50,656
428,19	46,576
428,41	46,786
428,62	45,750
428,83	42,712
429,04	40,607
429,26	41,501
429,47	39,639
429,68	37,396
429,89	39,583
430,11	36,515
430,32	36,279
430,53	37,724
430,74	38,423
430,96	36,032
431,17	38,128
431,38	38,231
431,59	36,235
431,81	39,622
432,02	37,912
432,23	38,133
432,44	37,897
432,66	37,776
432,87	38,904
433,08	39,091
433,29	37,734
433,51	37,025
433,72	38,210
433,93	35,650
434,14	36,064
434,35	36,254
434,57	34,348
434,78	35,044
434,99	32,865
435,20	32,179
435,42	30,560
435,63	30,072
435,84	29,738
436,05	27,983
436,26	26,967
436,48	25,544
436,69	24,225
436,90	23,919
437,11	22,953
437,32	22,526
437,54	21,354
437,75	20,579
437,96	21,365
438,17	19,507
438,38	20,077
438,60	20,127
438,81	19,384
439,02	20,393
439,23	19,685
439,44	19,352
439,66	19,187
439,87	19,137
440,08	18,147
440,29	17,261
440,50	16,875
440,72	15,701
440,93	15,150
441,14	14,559
441,35	13,776
441,56	11,643
441,77	10,811
441,99	9,826
442,20	8,800
442,41	8,074
442,62	7,259
442,83	6,511
443,04	5,866
443,26	5,569
443,47	5,473
443,68	4,239
443,89	4,079
444,10	3,675
444,31	3,674
444,53	3,112
444,74	2,920
444,95	2,984
445,16	2,479
445,37	2,387
445,58	2,461
445,80	1,946
446,01	2,184
446,22	1,697
446,43	1,608
446,64	1,397
446,85	1,261
447,06	1,088
447,28	0,967
447,49	1,049
447,70	1,369
447,91	0,942
448,12	0,644
448,33	0,780
448,54	0,751
448,76	0,849
448,97	0,852
449,18	0,829
449,39	0,755
449,60	0,811
449,81	1,177
450,02	0,821
450,23	0,652
450,45	0,824
450,66	0,701
450,87	0,833
451,08	0,696
451,29	1,035
451,50	0,931
451,71	0,793
451,92	0,796
452,13	0,547
452,35	1,064
452,56	0,807
452,77	0,971
452,98	0,724
453,19	0,783
453,40	0,723
453,61	1,147
453,82	0,847
454,03	0,670
454,25	1,022
454,46	1,027
454,67	1,145
454,88	1,003
455,09	0,860
455,30	0,846
455,51	0,855
455,72	0,756
455,93	0,556
456,14	0,838
456,35	0,832
456,56	0,720
456,78	0,633
456,99	0,913
457,20	1,069
457,41	0,573
457,62	0,928
457,83	0,671
458,04	0,587
458,25	0,601
458,46	0,517
458,67	0,970
458,88	0,754
459,09	0,625
459,30	0,611
459,51	0,569
459,73	0,776
459,94	1,042
460,15	0,674
460,36	0,422
460,57	0,553
460,78	0,424
460,99	0,469
461,20	0,495
461,41	0,656
461,62	0,486
461,83	0,824
462,04	0,561
462,25	0,768
462,46	0,608
462,67	0,604
462,88	0,557
463,09	0,688
463,30	0,474
463,51	0,520
463,72	0,570
463,93	0,624
464,15	0,530
464,36	0,538
464,57	0,497
464,78	0,509
464,99	0,526
465,20	0,529
465,41	0,432
465,62	0,514
465,83	0,670
466,04	0,491
466,25	0,405
466,46	0,431
466,67	0,399
466,88	0,585
467,09	0,552
467,30	0,508
467,51	0,688
467,72	0,526
467,93	0,489
468,14	0,491
468,35	0,563
468,56	0,527
468,77	0,628
468,98	0,599
469,19	0,597
469,40	0,438
469,61	0,515
469,82	0,394
470,03	0,660
470,24	0,720
470,45	0,599
470,66	0,442
470,87	0,521
471,08	0,591
471,29	0,462
471,50	0,643
471,71	0,672
471,92	0,677
472,13	0,620
472,34	0,684
472,55	0,661
472,76	0,591
472,97	0,697
473,18	0,830
473,39	0,727
473,60	0,920
473,81	0,684
474,01	1,054
474,22	0,962
474,43	1,462
474,64	1,368
474,85	1,716
475,06	1,880
475,27	2,317
475,48	2,341
475,69	2,678
475,90	3,347
476,11	4,026
476,32	4,583
476,53	5,068
476,74	5,937
476,95	6,577
477,16	7,334
477,37	8,251
477,58	9,667
477,79	10,775
478,00	11,571
478,21	12,946
478,41	14,018
478,62	15,693
478,83	17,156
479,04	18,894
479,25	19,968
479,46	21,560
479,67	23,603
479,88	25,407
480,09	27,142
480,30	28,363
480,51	30,507
480,72	31,813
480,93	32,838
481,14	34,745
481,34	36,201
481,55	37,972
481,76	39,502
481,97	41,863
482,18	43,390
482,39	45,164
482,60	45,644
482,81	47,752
483,02	48,174
483,23	49,347
483,44	51,229
483,65	51,421
483,85	52,427
484,06	52,787
484,27	53,644
484,48	54,049
484,69	53,822
484,90	52,940
485,11	53,109
485,32	53,188
485,53	52,618
485,73	52,915
485,94	51,464
486,15	50,176
486,36	49,734
486,57	48,774
486,78	48,065
486,99	46,344
487,20	44,986
487,41	44,159
487,61	42,286
487,82	41,335
488,03	39,950
488,24	38,617
488,45	37,836
488,66	36,460
488,87	35,158
489,08	34,250
489,28	33,531
489,49	33,006
489,70	31,482
489,91	31,363
490,12	30,291
490,33	29,771
490,54	28,527
490,74	28,512
490,95	28,109
491,16	27,829
491,37	27,560
491,58	27,439
491,79	27,243
492,00	27,265
492,20	26,394
492,41	26,377
492,62	26,125
492,83	26,399
493,04	26,163
493,25	26,269
493,45	26,299
493,66	25,995
493,87	26,197
494,08	25,934
494,29	25,617
494,50	25,341
494,70	25,848
494,91	26,055
495,12	26,233
495,33	25,956
495,54	25,792
495,75	26,212
495,95	25,602
496,16	26,110
496,37	26,066
496,58	26,460
496,79	26,705
496,99	26,449
497,20	26,773
497,41	26,870
497,62	26,422
497,83	27,286
498,04	27,645
498,24	27,464
498,45	28,220
498,66	28,521
498,87	29,350
499,08	30,015
499,28	30,766
499,49	31,289
499,70	32,185
499,91	33,646
500,12	33,792
500,32	34,954
500,53	36,198
500,74	36,983
500,95	38,315
501,15	39,006
501,36	39,401
501,57	40,422
501,78	40,828
501,99	41,149
502,19	42,326
502,40	41,678
502,61	42,763
502,82	42,672
503,02	42,278
503,23	41,958
503,44	41,899
503,65	41,925
503,86	41,413
504,06	40,925
504,27	41,429
504,48	41,310
504,69	40,698
504,89	40,228
505,10	39,621
505,31	39,075
505,52	37,924
505,72	38,249
505,93	37,340
506,14	36,174
506,35	35,413
506,55	34,595
506,76	33,839
506,97	33,283
507,18	32,705
507,38	32,073
507,59	30,134
507,80	28,872
508,01	27,973
508,21	26,962
508,42	26,066
508,63	24,702
508,84	23,479
509,04	22,139
509,25	21,275
509,46	19,658
509,67	18,162
509,87	17,230
510,08	16,159
510,29	14,836
510,49	13,494
510,70	12,290
510,91	11,350
511,12	10,331
511,32	9,397
511,53	8,778
511,74	7,776
511,94	7,444
512,15	6,776
512,36	6,415
512,57	5,618
512,77	5,389
512,98	4,920
513,19	4,869
513,39	4,741
513,60	4,265
513,81	4,169
514,01	4,267
514,22	3,926
514,43	3,883
514,64	3,159
514,84	3,245
515,05	2,586
515,26	2,663
515,46	2,605
515,67	2,141
515,88	2,031
516,08	1,916
516,29	1,700
516,50	1,515
516,70	1,213
516,91	1,145
517,12	1,133
517,32	0,995
517,53	0,708
517,74	0,915
517,95	0,685
518,15	0,700
518,36	0,637
518,57	0,638
518,77	0,562
518,98	0,645
519,19	0,497
519,39	0,561
519,60	0,603
519,80	0,436
520,01	0,546
520,22	0,670
520,42	0,621
520,63	0,520
520,84	0,364
521,04	0,558
521,25	0,869
521,46	0,557
521,66	0,461
521,87	0,404
522,08	0,567
522,28	0,659
522,49	0,336
522,70	0,724
522,90	0,608
523,11	0,448
523,31	0,711
523,52	0,367
523,73	0,536
523,93	0,725
524,14	0,415
524,35	0,403
524,55	0,608
524,76	0,474
524,97	0,652
525,17	0,584
525,38	0,591
525,58	0,630
525,79	0,416
526,00	0,499
526,20	0,585
526,41	0,544
526,61	0,560
526,82	0,727
527,03	0,407
527,23	0,387
527,44	0,429
527,64	0,631
527,85	0,420
528,06	0,670
528,26	0,604
528,47	0,451
528,68	0,627
528,88	0,701
529,09	0,538
529,29	0,611
529,50	0,385
529,70	0,584
529,91	0,710
530,12	0,607
530,32	0,410
530,53	0,567
530,73	0,628
530,94	0,537
531,15	0,547
531,35	0,416
531,56	0,382
531,76	0,473
531,97	0,629
532,17	0,440
532,38	0,533
532,59	0,645
532,79	0,608
533,00	0,513
533,20	0,602
533,41	0,501
533,61	0,484
533,82	0,532
534,03	0,398
534,23	0,686
534,44	0,599
534,64	0,665
534,85	0,663
535,05	0,459
535,26	0,394
535,46	0,589
535,67	0,593
535,88	0,484
536,08	0,455
536,29	0,676
536,49	0,677
536,70	0,628
536,90	0,623
537,11	0,592
537,31	0,410
537,52	0,522
537,72	0,600
537,93	0,783
538,13	0,445
538,34	0,823
538,55	0,584
538,75	0,539
538,96	0,672
539,16	0,633
539,37	0,543
539,57	0,604
539,78	0,761
539,98	0,703
540,19	0,567
540,39	0,561
540,60	0,443
540,80	0,645
541,01	0,642
541,21	0,607
541,42	0,651
541,62	0,693
541,83	0,686
542,03	0,655
542,24	0,366
542,44	0,646
542,65	0,330
542,85	0,642
543,06	0,501
543,26	0,420
543,47	0,557
543,67	0,667
543,88	0,743
544,08	0,569
544,29	0,623
544,49	0,622
544,70	0,651
544,90	0,725
545,11	0,390
545,31	0,660
545,52	0,477
545,72	0,833
545,93	0,560
546,13	0,693
546,34	0,488
546,54	0,505
546,75	0,607
546,95	0,478
547,15	0,659
547,36	0,699
547,56	0,743
547,77	0,664
547,97	0,588
548,18	0,650
548,38	0,564
548,59	0,731
548,79	0,565
549,00	0,375
549,20	0,673
549,41	0,735
549,61	0,601
549,81	0,628
550,02	0,997
550,22	0,700
550,43	0,795
550,63	0,889
550,84	0,715
551,04	0,930
551,25	1,084
551,45	0,975
551,65	1,174
551,86	1,307
552,06	1,409
552,27	1,410
552,47	1,702
552,68	1,883
552,88	1,758
553,08	2,096
553,29	2,645
553,49	2,786
553,70	3,103
553,90	3,212
554,11	3,844
554,31	4,358
554,51	5,080
554,72	5,397
554,92	6,436
555,13	7,331
555,33	7,820
555,53	8,808
555,74	10,082
555,94	11,200
556,15	12,588
556,35	13,664
556,56	15,244
556,76	16,702
556,96	18,008
557,17	19,789
557,37	21,372
557,58	23,723
557,78	25,084
557,98	26,515
558,19	28,478
558,39	29,873
558,59	31,590
558,80	33,327
559,00	34,565
559,21	36,007
559,41	36,681
559,61	37,519
559,82	39,309
560,02	39,567
560,23	40,345
560,43	40,798
560,63	41,512
560,84	41,661
561,04	42,398
561,24	43,362
561,45	42,395
561,65	44,061
561,85	43,893
562,06	43,587
562,26	44,161
562,47	44,652
562,67	44,209
562,87	45,106
563,08	44,857
563,28	44,462
563,48	44,649
563,69	45,001
563,89	45,620
564,09	45,622
564,30	45,478
564,50	45,432
564,70	45,761
564,91	46,150
565,11	46,084
565,31	45,989
565,52	45,451
565,72	46,634
565,92	46,412
566,13	45,893
566,33	46,698
566,53	46,673
566,74	47,307
566,94	47,229
567,14	47,256
567,35	47,543
567,55	48,036
567,75	48,993
567,96	49,145
568,16	50,548
568,36	50,490
568,57	50,647
568,77	52,221
568,97	54,321
569,18	55,029
569,38	56,664
569,58	57,271
569,79	58,837
569,99	61,605
570,19	63,200
570,39	65,772
570,60	66,928
570,80	69,071
571,00	72,068
571,21	72,277
571,41	73,845
571,61	75,352
571,82	76,627
572,02	77,733
572,22	78,672
572,42	79,321
572,63	78,342
572,83	78,950
573,03	79,653
573,24	79,797
573,44	80,059
573,64	78,925
573,84	79,124
574,05	79,949
574,25	79,659
574,45	78,890
574,66	79,499
574,86	80,040
575,06	80,281
575,26	80,605
575,47	81,459
575,67	81,786
575,87	83,822
576,07	83,724
576,28	84,628
576,48	84,625
576,68	84,515
576,88	84,592
577,09	85,284
577,29	84,935
577,49	86,490
577,69	85,731
577,90	85,265
578,10	84,143
578,30	84,340
578,50	83,995
578,71	83,522
578,91	82,725
579,11	82,378
579,31	82,366
579,52	83,212
579,72	80,690
579,92	80,338
580,12	80,396
580,33	81,042
580,53	78,890
580,73	79,293
580,93	77,457
581,13	77,665
581,34	77,263
581,54	76,149
581,74	76,335
581,94	74,995
582,15	73,926
582,35	72,965
582,55	71,805
582,75	70,745
582,95	69,556
583,16	68,257
583,36	66,952
583,56	66,062
583,76	64,713
583,96	62,838
584,17	62,163
584,37	61,359
584,57	59,434
584,77	58,311
584,97	57,040
585,18	55,820
585,38	54,328
585,58	52,754
585,78	51,082
585,98	50,629
586,19	49,266
586,39	48,303
586,59	47,592
586,79	46,758
586,99	45,538
587,20	44,972
587,40	44,593
587,60	43,951
587,80	44,066
588,00	42,926
588,20	42,552
588,41	43,179
588,61	42,817
588,81	42,804
589,01	43,069
589,21	43,162
589,41	43,380
589,62	43,983
589,82	43,462
590,02	43,826
590,22	44,788
590,42	44,566
590,62	44,288
590,83	44,338
591,03	44,811
591,23	44,403
591,43	44,548
591,63	43,948
591,83	43,875
592,03	43,647
592,24	43,477
592,44	42,290
592,64	42,081
592,84	41,887
593,04	40,053
593,24	39,715
593,44	39,681
593,65	38,677
593,85	38,364
594,05	37,220
594,25	36,477
594,45	35,656
594,65	35,293
594,85	34,609
595,06	33,878
595,26	33,519
595,46	33,024
595,66	32,669
595,86	32,289
596,06	32,493
596,26	32,193
596,46	32,571
596,66	32,401
596,87	32,680
597,07	32,573
597,27	33,192
597,47	33,569
597,67	34,311
597,87	34,550
598,07	34,209
598,27	34,673
598,47	34,972
598,67	35,706
598,88	36,141
599,08	36,521
599,28	36,490
599,48	36,518
599,68	37,330
599,88	37,256
600,08	37,308
600,28	37,288
600,48	38,159
600,68	37,387
600,88	36,925
601,09	37,141
601,29	36,510
601,49	36,316
601,69	35,761
601,89	35,772
602,09	35,706
602,29	35,416
602,49	35,043
602,69	34,325
602,89	34,060
603,09	34,135
603,29	33,449
603,49	32,767
603,69	32,410
603,90	31,413
604,10	31,311
604,30	30,909
604,50	30,860
604,70	30,049
604,90	29,657
605,10	29,680
605,30	28,843
605,50	28,480
605,70	28,021
605,90	27,813
606,10	27,752
606,30	27,088
606,50	27,490
606,70	27,191
606,90	26,332
607,10	26,112
607,30	25,968
607,50	25,486
607,70	25,216
607,90	24,709
608,10	23,686
608,30	22,907
608,50	22,221
608,70	21,373
608,90	20,238
609,11	19,829
609,31	18,821
609,51	17,636
609,71	16,630
609,91	15,293
610,11	14,929
610,31	13,610
610,51	13,180
610,71	11,992
610,91	11,085
611,11	10,192
611,31	9,410
611,51	8,819
611,71	7,612
611,91	6,931
612,11	6,428
612,31	5,647
612,51	4,931
612,71	4,673
612,91	4,018
613,11	3,629
613,31	3,255
613,51	2,631
613,71	2,581
613,91	2,180
614,11	1,776
614,31	1,657
614,50	1,504
614,70	1,277
614,90	1,091
615,10	1,009
615,30	0,919
615,50	0,853
615,70	0,859
615,90	0,731
616,10	0,633
616,30	0,774
616,50	0,572
616,70	0,589
616,90	0,649
617,10	0,523
617,30	0,590
617,50	0,647
617,70	0,555
617,90	0,589
618,10	0,458
618,30	0,556
618,50	0,626
618,70	0,568
618,90	0,304
619,10	0,351
619,30	0,514
619,49	0,451
619,69	0,485
619,89	0,508
620,09	0,408
620,29	0,593
620,49	0,549
620,69	0,400
620,89	0,492
621,09	0,653
621,29	0,423
621,49	0,209
621,69	0,428
621,89	0,573
622,09	0,371
622,29	0,453
622,48	0,418
622,68	0,351
622,88	0,333
623,08	0,366
623,28	0,400
623,48	0,431
623,68	0,242
623,88	0,454
624,08	0,354
624,28	0,170
624,48	0,566
624,67	0,477
624,87	0,308
625,07	0,311
625,27	0,378
625,47	0,536
625,67	0,634
625,87	0,464
626,07	0,374
626,27	0,247
626,47	0,360
626,66	0,506
626,86	0,468
627,06	0,333
627,26	0,512
627,46	0,375
627,66	0,400
627,86	0,416
628,06	0,379
628,25	0,343
628,45	0,353
628,65	0,332
628,85	0,504
629,05	0,444
629,25	0,462
629,45	0,359
629,65	0,420
629,84	0,444
630,04	0,322
630,24	0,502
630,44	0,397
630,64	0,444
630,84	0,333
631,04	0,458
631,23	0,230
631,43	0,382
631,63	0,238
631,83	0,399
632,03	0,347
632,23	0,390
632,42	0,503
632,62	0,401
632,82	0,254
633,02	0,358
633,22	0,346
633,42	0,487
633,62	0,503
633,81	0,543
634,01	0,498
634,21	0,487
634,41	0,566
634,61	0,535
634,80	0,486
635,00	0,345
635,20	0,493
635,40	0,774
635,60	0,426
635,80	0,411
635,99	0,520
636,19	0,349
636,39	0,514
636,59	0,637
636,79	0,697
636,98	0,728
637,18	0,540
637,38	0,678
637,58	0,571
637,78	0,475
637,97	0,577
638,17	0,839
638,37	0,555
638,57	0,628
638,77	0,661
638,96	0,529
639,16	0,657
639,36	0,569
639,56	0,701
639,76	0,664
639,95	0,546
640,15	0,607
640,35	0,588
640,55	0,411
640,75	0,644
640,94	0,625
641,14	0,521
641,34	0,873
641,54	0,627
641,73	0,762
641,93	0,576
642,13	0,389
642,33	0,602
642,53	0,423
642,72	0,615
642,92	0,759
643,12	0,260
643,32	0,775
643,51	0,929
643,71	0,279
643,91	0,294
644,11	0,803
644,30	0,477
644,50	0,613
644,70	0,408
644,90	0,431
645,09	0,946
645,29	0,374
645,49	0,739
645,69	0,832
645,88	0,705
646,08	0,478
646,28	0,893
646,48	0,856
646,67	0,513
646,87	0,879
647,07	0,851
647,26	0,808
647,46	0,780
647,66	1,049
647,86	0,994
648,05	0,853
648,25	0,697
648,45	0,825
648,65	1,016
648,84	0,830
649,04	0,903
649,24	1,052
649,43	0,913
649,63	1,268
649,83	1,196
650,03	0,997
650,22	0,762
650,42	1,082
650,62	0,400
650,81	0,808
651,01	0,921
651,21	0,886
651,40	0,533
651,60	1,161
651,80	0,567
652,00	0,994
652,19	0,669
652,39	1,171
652,59	0,900
652,78	1,016
652,98	0,540
653,18	0,663
653,37	0,812
653,57	1,114
653,77	0,702
653,96	0,765
654,16	1,228
654,36	1,014
654,55	1,143
654,75	1,088
654,95	1,310
655,14	1,017
655,34	0,570
655,54	0,519
655,73	0,642
655,93	1,185
656,13	0,728
656,32	0,552
656,52	0,454
656,72	0,864
656,91	0,890
657,11	0,825
657,31	0,910
657,50	0,948
657,70	0,695
657,90	0,990
658,09	0,645
658,29	1,011
658,49	0,697
658,68	1,044
658,88	1,017
659,07	0,707
659,27	0,640
659,47	1,068
659,66	0,566
659,86	0,950
660,06	0,899
660,25	0,688
660,45	0,963
660,64	0,978
660,84	0,732
661,04	0,848
661,23	1,025
661,43	1,113
661,63	0,958
661,82	0,943
662,02	0,874
662,21	0,953
662,41	0,623
662,61	1,040
662,80	0,432
663,00	0,952
663,19	0,676
663,39	0,914
663,59	1,280
663,78	0,560
663,98	0,331
664,17	0,877
664,37	1,111
664,57	1,069
664,76	0,999
664,96	0,831
665,15	0,601
665,35	0,678
665,55	0,581
665,74	0,752
665,94	0,724
666,13	1,317
666,33	0,508
666,53	1,048
666,72	0,954
666,92	1,081
667,11	1,061
667,31	0,608
667,50	1,149
667,70	1,045
667,90	0,960
668,09	0,754
668,29	0,812
668,48	0,569
668,68	0,913
668,87	1,109
669,07	1,179
669,26	0,840
669,46	0,804
669,66	0,620
669,85	0,809
670,05	0,511
670,24	0,799
670,44	0,597
670,63	0,697
670,83	0,756
671,02	0,878
671,22	1,006
671,42	0,664
671,61	0,621
671,81	0,771
672,00	0,960
672,20	0,630
672,39	0,349
672,59	0,508
672,78	0,878
672,98	0,516
673,17	0,608
673,37	0,763
673,56	0,581
673,76	0,753
673,95	0,663
674,15	0,563
674,34	0,866
674,54	0,806
674,73	0,696
674,93	0,671
675,13	0,594
675,32	0,637
675,52	0,651
675,71	0,516
675,91	0,678
676,10	0,298
676,30	0,526
676,49	0,727
676,69	0,788
676,88	0,655
677,08	0,805
677,27	0,444
677,47	0,713
677,66	0,857
677,86	0,724
678,05	0,706
678,24	0,238
678,44	1,076
678,63	0,494
678,83	0,693
679,02	0,658
679,22	0,455
679,41	0,484
679,61	0,344
679,80	0,634
680,00	0,547
680,19	0,489
680,39	0,748
680,58	0,568
680,78	0,539
680,97	0,276
681,17	0,540
681,36	0,409
681,56	0,791
681,75	0,443
681,94	0,470
682,14	0,667
682,33	0,485
682,53	0,692
682,72	0,715
682,92	0,783
683,11	0,639
683,31	0,281
683,50	0,379
683,69	0,681
683,89	0,443
684,08	0,554
684,28	0,360
684,47	0,502
684,67	0,493
684,86	0,126
685,06	0,435
685,25	0,394
685,44	0,410
685,64	0,350
685,83	0,389
686,03	0,150
686,22	0,417
686,42	0,334
686,61	0,499
686,80	0,408
687,00	0,327
687,19	0,695
687,39	0,305
687,58	0,228
687,77	0,277
687,97	0,608
688,16	0,283
688,36	0,476
688,55	0,265
688,74	0,427
688,94	0,343
689,13	0,441
689,33	0,333
689,52	0,324
689,71	0,523
689,91	0,149
690,10	0,445
690,30	0,319
690,49	0,242
690,68	0,494
690,88	0,381
691,07	0,213
691,27	0,258
691,46	0,142
691,65	0,423
691,85	0,483
692,04	0,303
692,23	0,232
692,43	0,281
692,62	0,570
692,82	0,457
693,01	0,324
693,20	0,444
693,40	0,307
693,59	0,509
693,78	0,451
693,98	0,292
694,17	0,146
694,36	0,531
694,56	0,513
694,75	0,225
694,94	0,425
695,14	0,339
695,33	0,315
695,53	0,508
695,72	0,537
695,91	0,460
696,11	0,391
696,30	0,374
696,49	0,135
696,69	0,400
696,88	0,370
697,07	0,266
697,27	0,417
697,46	0,334
697,65	0,358
697,85	0,275
698,04	0,559
698,23	0,333
698,43	0,571
698,62	0,287
698,81	0,302
699,01	0,870
699,20	0,541
699,39	0,731
699,58	0,712
699,78	0,780
699,97	0,632
700,16	1,041
700,36	0,722
700,55	1,190
700,74	0,908
700,94	0,695
701,13	0,970
701,32	1,486
701,52	1,389
701,71	0,978
701,90	1,234
702,09	0,990
702,29	1,368
702,48	1,290
702,67	0,943
702,87	1,198
703,06	1,452
703,25	1,300
703,44	0,986
703,64	1,693
703,83	2,110
704,02	1,638
704,22	1,251
704,41	1,251
704,60	2,020
704,79	1,457
704,99	1,605
705,18	1,526
705,37	1,915
705,56	2,246
705,76	2,074
705,95	2,519
706,14	1,499
706,33	3,010
706,53	2,833
706,72	1,819
706,91	2,610
707,11	3,031
707,30	2,932
707,49	3,253
707,68	2,165
707,88	1,995
708,07	1,467
708,26	2,740
708,45	2,120
708,64	1,980
708,84	3,988
709,03	2,305
709,22	2,948
709,41	3,964
709,61	2,904
709,80	3,499
709,99	2,945
710,18	3,791
710,38	4,315
710,57	2,471
710,76	2,248
710,95	3,825
711,14	5,201
711,34	3,548
711,53	4,429
711,72	3,110
711,91	2,914
712,11	6,729
712,30	5,228
712,49	3,547
712,68	4,426
712,87	6,396
713,07	6,046
713,26	3,605
713,45	5,923
713,64	4,900
713,83	4,470
714,03	5,456
714,22	4,051
714,41	7,036
714,60	4,479
714,79	3,982
714,99	6,250
715,18	3,130
715,37	6,987
715,56	5,422
715,75	3,923
715,94	5,793
716,14	5,366
716,33	6,250
716,52	5,775
716,71	7,542
716,90	7,422
717,10	4,264
717,29	5,029
717,48	7,201
717,67	5,430
717,86	3,894
718,05	2,698
718,24	8,388
718,44	6,347
718,63	3,578
718,82	10,768
719,01	6,176
719,20	6,632
719,39	4,891
719,59	4,254
719,78	6,157
719,97	8,508
720,16	6,237
720,35	6,110
720,54	7,052
720,73	3,860
720,93	9,821
721,12	4,576
721,31	7,040
721,50	6,973
721,69	8,617
721,88	7,919
722,07	5,275
722,27	6,829
722,46	6,134
722,65	3,189
722,84	5,573
723,03	3,938
723,22	10,539
723,41	7,077
723,60	9,607
723,79	8,366
723,99	6,357
724,18	9,490
724,37	8,553
724,56	14,095
724,75	10,428
724,94	13,339
725,13	12,803
725,32	11,217
725,51	7,733
725,71	7,955
725,90	11,737
726,09	12,579
726,28	10,065
726,47	8,984
726,66	8,837
726,85	8,402
727,04	10,800
727,23	8,847
727,42	11,317
727,61	6,032
727,81	15,016
728,00	15,228
728,19	12,014
728,38	10,259
728,57	11,635
728,76	14,823
728,95	11,161
729,14	12,005
729,33	16,026
729,52	12,598
729,71	11,366
729,90	14,581
730,09	8,995
730,28	17,321
730,48	15,777
730,67	17,412
730,86	10,323
731,05	15,304
731,24	10,037
731,43	10,314
731,62	16,667
731,81	9,657
732,00	10,928
732,19	11,494
732,38	12,958
732,57	13,624
732,76	17,857
732,95	8,133
733,14	7,672
733,33	10,989
733,52	15,617
733,71	12,899
733,90	16,195
734,09	8,989
734,28	14,759
734,47	12,105
734,66	16,011
734,85	12,766
735,04	12,398
735,23	14,153
735,42	13,689
735,61	20,933
735,81	14,759
736,00	12,349
736,19	16,568
736,38	11,852
736,57	16,295
736,76	10,853
736,95	15,909
737,14	17,933
737,33	16,693
737,52	18,854
737,71	10,256
737,90	21,180
738,09	20,859
738,28	14,833
738,47	16,176
738,66	15,000
738,85	9,450
739,04	20,374
739,22	16,047
739,41	20,645
739,60	11,706
739,79	16,952
739,98	9,982
740,17	23,980
740,36	22,321
740,55	18,871
740,74	13,739
740,93	22,967
741,12	24,265
741,31	18,015
741,50	16,008
741,69	14,259
741,88	8,600
742,07	14,621
742,26	14,419
742,45	19,960
742,64	30,576
742,83	12,766
743,02	23,243
743,21	22,736
743,40	17,466
743,59	21,311
743,78	19,869
743,97	26,692
744,16	13,747
744,34	17,520
744,53	15,984
744,72	31,601
744,91	11,579
745,10	24,524
745,29	18,676
745,48	17,613
745,67	27,495
745,86	18,545
746,05	25,114
746,24	27,233
746,43	27,423
746,62	19,816
746,81	22,603
747,00	20,251
747,18	35,824
747,37	25,800
747,56	21,573
747,75	24,070
747,94	27,790
748,13	29,224
748,32	31,410
748,51	28,894
748,70	25,899
748,89	28,261
749,08	21,143
749,26	30,072
749,45	28,471
749,64	23,077
749,83	17,303
750,02	15,746
750,21	31,672
750,40	25,260
750,59	35,142
750,78	24,852
750,96	21,508
751,15	28,689
751,34	22,251
751,53	33,251
751,72	23,989
751,91	27,123
752,10	22,840
752,29	33,333
752,47	26,966
752,66	33,239
752,85	27,245
753,04	36,593
753,23	19,536
753,42	31,611
753,61	25,490
753,80	34,146
753,98	28,772
754,17	31,595
754,36	40,960
754,55	21,003
754,74	31,214
754,93	25,072
755,12	33,600
755,30	29,917
755,49	40,367
755,68	42,075
755,87	24,925
756,06	41,899
756,25	39,048
756,43	27,241
756,62	18,694
756,81	29,043
757,00	41,449
757,19	29,795
757,38	37,855
757,56	31,290
757,75	42,484
757,94	35,331
758,13	37,662
758,32	34,091
758,51	30,147
758,69	16,800
758,88	27,327
759,07	43,011
759,26	31,163
759,45	47,162
759,63	42,379
759,82	36,700
760,01	22,408
760,20	44,358
760,39	31,343
760,57	54,545
760,76	20,270
760,95	34,722
761,14	37,551
761,33	33,125
761,51	34,767
761,70	52,414
761,89	37,295
762,08	48,372
762,27	42,125
762,45	40,467
762,64	30,769
762,83	52,655
763,02	49,302
763,21	44,397
763,39	40,816
763,58	49,811
763,77	46,718
763,96	48,193
764,14	43,750
764,33	44,322
764,52	50,644
764,71	40,359
764,89	40,196
765,08	63,793
765,27	48,699
765,46	47,283
765,65	43,668
765,83	46,320
766,02	45,532
766,21	82,320
766,40	41,429
766,58	50,000
766,77	27,861
766,96	65,000
767,15	51,208
767,33	26,316
767,52	65,244
767,71	46,087
767,90	39,326
768,08	43,580
768,27	46,500
768,46	51,562
768,64	64,767
768,83	53,646
769,02	66,500
769,21	42,795
769,39	64,535
769,58	58,382
769,77	66,284
769,96	49,215
770,14	51,020
770,33	63,551
770,52	49,206
770,70	62,000
770,89	69,128
771,08	50,847
771,27	75,773
771,45	67,105
771,64	78,125
771,83	72,897
772,01	40,964
772,20	75,879
772,39	42,667
772,57	82,946
772,76	65,926
772,95	53,191
773,14	74,731
773,32	69,032
773,51	67,662
773,70	64,375
773,88	66,120
774,07	63,874
774,26	49,645
774,44	46,341
774,63	81,218
774,82	59,756
775,00	67,333
775,19	54,400
775,38	78,035
775,56	86,979
775,75	82,530
775,94	74,051
776,12	29,834
776,31	70,588
776,50	73,864
776,68	74,737
776,87	60,227
777,06	87,586
777,24	69,444
777,43	69,231
777,62	59,559
777,80	56,757
777,99	69,143
778,18	62,871
778,36	96,000
778,55	82,645
778,74	86,111
778,92	83,432
779,11	107,500
779,29	72,327
779,48	51,020
779,67	68,217
779,85	73,984
780,04	62,703
780,23	67,626
780,41	89,844
780,60	52,105
780,79	62,712
780,97	76,316
781,16	53,333
781,34	94,845
781,53	78,632
781,72	77,372
781,90	56,250
782,09	72,903
782,28	90,511
782,46	57,037
782,65	70,000
782,83	110,112
783,02	77,500
783,21	89,333
783,39	132,174
783,58	65,089
783,76	91,620
783,95	61,818
784,14	72,848
784,32	87,919
784,51	84,483
784,69	84,746
784,88	118,919
785,06	59,664
785,25	85,987
785,44	84,892
785,62	87,857
785,81	146,479
785,99	86,331
786,18	93,243
786,37	81,481
786,55	55,046
786,74	68,421
786,92	85,156
787,11	80,000
787,29	61,940
787,48	88,667
787,67	122,892
787,85	75,862
788,04	77,723
788,22	93,443
788,41	136,471
788,59	106,422
788,78	81,818
788,96	87,736
789,15	147,368
789,34	96,364
789,52	80,531
789,71	86,822
789,89	223,404
790,08	90,411
790,26	80,000
790,45	80,303
790,63	100,000
790,82	83,030
791,00	68,750
791,19	111,828
791,38	91,667
791,56	98,246
791,75	144,954
791,93	148,276
792,12	94,083
792,30	121,600
792,49	82,353
792,67	114,925
792,86	86,047
793,04	85,981
793,23	55,000
793,41	118,987
793,60	122,222
793,78	117,544
793,97	164,103
794,15	83,636
794,34	143,956
794,52	102,597
794,71	106,173
794,89	100,000
795,08	140,777
795,26	89,444
795,45	140,299
795,63	101,515
795,82	71,028
796,00	134,862
796,19	105,833
796,37	103,650
796,56	137,634
796,74	103,540
796,93	129,213
797,11	110,127
797,30	102,500
797,48	80,000
797,67	112,500
797,85	117,347
798,04	134,375
798,22	112,698
798,41	122,549
798,59	101,053
798,77	172,308
798,96	115,054
799,14	107,759
799,33	119,084
799,51	96,923
799,70	84,564
799,88	153,030
800,07	84,211
800,25	75,862
800,44	95,960
800,62	110,588
800,80	110,145
800,99	169,841
801,17	71,552
801,36	106,897
801,54	106,250
801,73	104,040
801,91	105,738
802,10	98,810
802,28	133,645
802,46	133,333
802,65	88,506
802,83	111,236
803,02	80,000
803,20	89,844
803,39	81,034
803,57	122,892
803,75	83,784
803,94	122,689
804,12	76,667
804,31	61,062
804,49	80,769
804,67	107,200
804,86	108,036
805,04	102,703
805,23	75,172
805,41	90,164
805,59	64,754
805,78	88,636
805,96	74,359
806,15	95,313
806,33	88,235
806,51	107,080
806,70	226,667
806,88	133,333
807,07	84,127
807,25	100,629
807,43	88,079
807,62	78,862
807,80	150,538
807,99	83,333
808,17	118,440
808,35	130,702
808,54	111,828
808,72	75,200
808,90	151,316
809,09	114,167
809,27	122,523
809,46	114,286
809,64	86,275
809,82	75,862
810,01	96,212
810,19	109,000
810,37	110,000
810,56	117,073
810,74	84,768
810,92	96,970
811,11	182,353
811,29	86,525
811,48	111,111
811,66	92,248
811,84	121,101
812,03	83,636
812,21	105,128
812,39	114,407
812,58	118,627
812,76	117,757
812,94	95,333
813,13	64,286
813,31	92,500
813,49	146,739
813,68	114,783
813,86	122,449
814,04	116,505
814,23	130,303
814,41	91,912
814,59	101,130
814,78	97,059
814,96	100,000
815,14	113,333
815,33	88,406
815,51	82,963
815,69	124,691
815,87	104,348
816,06	68,125
816,24	78,146
816,42	30,128
816,61	115,254
816,79	143,373
816,97	91,892
817,16	69,677
817,34	102,759
817,52	80,690
817,70	147,619
817,89	59,504
818,07	100,000
818,25	81,081
818,44	82,558
818,62	94,828
818,80	83,916
818,98	82,857
819,17	89,231
819,35	82,941
819,53	131,683
819,72	78,488
819,90	88,623
820,08	64,935
820,26	135,088
820,45	103,012
820,63	69,271
820,81	83,893
820,99	87,218
821,18	69,630
821,36	74,762
821,54	68,023
821,73	74,595
821,91	78,191
822,09	67,647
822,27	65,482
822,46	83,125
822,64	103,974
822,82	73,659
823,00	73,874
823,19	77,273
823,37	72,143
823,55	73,529
823,73	96,000
823,91	61,878
824,10	86,592
824,28	87,407
824,46	66,860
824,64	63,235
824,83	71,545
825,01	57,246
825,19	82,857
825,37	59,375
825,56	80,000
825,74	79,524
825,92	65,730
826,10	112,422
826,28	58,389
826,47	50,407
826,65	77,027
826,83	58,065
827,01	81,061
827,19	85,443
827,38	80,311
827,56	69,712
827,74	68,699
827,92	78,049
828,10	85,870
828,29	59,048
828,47	57,895
828,65	57,297
828,83	65,657
829,01	59,333
829,20	69,620
829,38	55,187
829,56	70,850
829,74	88,636
829,92	58,763
830,10	63,063
830,29	51,892
830,47	80,729
830,65	38,393
830,83	52,000
831,01	53,333
831,20	60,891
831,38	47,317
831,56	51,417
831,74	61,143
831,92	68,750
832,10	54,091
832,29	50,237
832,47	33,186
832,65	48,511
832,83	45,581
833,01	54,150
833,19	46,154
833,37	69,630
833,56	59,155
833,74	53,441
833,92	33,628
834,10	48,223
834,28	41,154
834,46	53,287
834,64	50,391
834,83	54,266
835,01	47,082
835,19	38,863
835,37	53,386
835,55	50,903
835,73	54,044
835,91	33,977
836,09	35,270
836,28	62,595
836,46	46,667
836,64	63,525
836,82	37,313
837,00	63,265
837,18	51,779
837,36	63,636
837,54	44,697
837,72	42,629
837,91	50,602
838,09	46,000
838,27	56,777
838,45	40,777
838,63	34,237
838,81	38,816
838,99	55,749
839,17	47,573
839,35	28,889
839,53	49,329
839,72	17,797
839,90	31,003
840,08	46,474
840,26	36,593
840,44	22,840
840,62	43,098
840,80	36,728
840,98	42,900
841,16	35,231
841,34	37,971
841,52	33,866
841,70	50,842
841,89	46,452
842,07	38,649
842,25	42,532
842,43	33,548
842,61	35,925
842,79	31,098
842,97	33,232
843,15	40,688
843,33	36,105
843,51	50,358
843,69	35,556
843,87	46,092
844,05	34,771
844,23	39,730
844,41	31,407
844,59	36,364
844,77	37,176
844,95	31,068
845,13	37,705
845,31	24,022
845,50	39,175
845,68	29,534
845,86	30,660
846,04	31,852
846,22	24,821
846,40	29,921
846,58	23,861
846,76	28,928
846,94	23,798
847,12	37,204
847,30	29,724
847,48	31,894
847,66	30,000
847,84	25,127
848,02	36,590
848,20	30,905
848,38	28,782
848,56	40,430
848,74	34,091
848,92	22,756
849,10	39,062
849,28	32,026
849,46	21,729
849,64	21,667
849,82	25,721
850,00	22,793
850,18	24,249
850,36	21,053
850,54	31,166
850,72	32,848
850,90	21,898
851,08	16,461
851,26	27,935
851,44	28,916
851,62	23,620
851,80	23,062
851,98	29,630
852,16	40,741
852,34	33,397
852,52	28,032
852,70	23,494
852,87	27,429
853,05	27,054
853,23	25,098
853,41	20,245
853,59	16,226
853,77	24,405
853,95	25,212
854,13	21,942
854,31	24,258
854,49	19,639
854,67	26,692
854,85	25,739
855,03	14,368
855,21	16,920
855,39	23,490
855,57	24,275
855,75	19,393
855,93	24,028
856,11	30,941
856,28	21,007
856,46	21,242
856,64	24,919
856,82	21,466
857,00	21,280
857,18	27,700
857,36	16,471
857,54	22,804
857,72	21,202
857,90	18,287
858,08	19,753
858,26	21,865
858,44	15,683
858,61	14,731
858,79	26,202
858,97	18,625
859,15	18,874
859,33	18,098
859,51	19,649
859,69	18,899
859,87	17,277
860,05	24,965
860,23	10,455
860,40	22,273
860,58	15,086
860,76	22,458
860,94	11,145
861,12	17,847
861,30	23,119
861,48	20,963
861,66	18,425
861,84	20,391
862,01	22,460
862,19	19,783
862,37	18,222
862,55	16,713
862,73	13,451
862,91	14,198
863,09	17,295
863,27	6,964
863,44	19,205
863,62	17,111
863,80	10,630
863,98	18,135
864,16	14,550
864,34	18,052
864,52	14,237
864,69	20,120
864,87	13,111
865,05	13,385
865,23	14,493
865,41	12,753
865,59	17,182
865,76	16,537
865,94	14,896
866,12	11,212
866,30	10,798
866,48	13,591
866,66	17,570
866,83	14,770
867,01	17,725
867,19	13,550
867,37	12,845
867,55	20,198
867,73	16,629
867,90	14,614
868,08	13,943
868,26	12,315
868,44	8,369
868,62	12,957
868,79	13,528
868,97	13,220
869,15	11,996
869,33	12,459
869,51	12,527
869,69	9,906
869,86	10,051
870,04	12,169
870,22	8,533
870,40	11,616
870,57	10,300
870,75	13,697
870,93	15,921
871,11	9,054
871,29	12,398
871,46	13,192
871,64	9,891
871,82	7,512
872,00	14,243
872,18	9,332
872,35	18,004
872,53	13,043
872,71	7,892
872,89	11,307
873,06	12,731
873,24	11,673
873,42	9,229
873,60	7,805
873,77	8,986
873,95	9,496
874,13	12,343
874,31	8,289
874,49	12,903
874,66	5,928
874,84	6,394
875,02	10,008
875,20	11,983
875,37	6,729
875,55	4,826
875,73	7,679
875,91	10,859
876,08	9,952
876,26	9,908
876,44	10,304
876,61	11,603
876,79	9,424
876,97	10,526
877,15	13,893
877,32	6,929
877,50	9,091
877,68	8,681
877,86	8,071
878,03	8,672
878,21	6,711
878,39	5,704
878,56	10,472
878,74	6,363
878,92	8,160
879,10	6,805
879,27	6,865
879,45	11,319
879,63	6,961
879,80	8,362
879,98	7,331
880,16	7,478
880,34	3,511
880,51	10,631
880,69	7,942
880,87	5,086
881,04	7,350
881,22	8,169
881,40	4,603
881,57	5,774
881,75	6,505
881,93	6,495
882,10	5,381
882,28	5,165
882,46	7,160
882,63	7,286
882,81	6,782
882,99	5,981
883,16	7,067
883,34	8,242
883,52	4,229
883,69	7,388
883,87	6,651
884,05	4,551
884,22	7,057
884,40	7,972
884,58	6,034
884,75	5,638
884,93	5,969
885,11	5,005
885,28	5,036
885,46	5,800
885,64	5,759
885,81	8,065
885,99	6,760
886,17	5,022
886,34	8,443
886,52	5,334
886,70	5,008
886,87	7,043
887,05	6,250
887,22	5,177
887,40	5,829
887,58	6,567
887,75	5,484
887,93	5,722
888,11	5,240
888,28	5,358
888,46	4,103
888,63	5,391
888,81	3,663
888,99	3,270
889,16	6,229
889,34	5,370
889,51	5,193
889,69	5,031
889,87	1,833
890,04	4,081
890,22	4,545
890,39	3,229
890,57	5,852
890,75	8,251
890,92	5,707
891,10	7,643
891,27	5,373
891,45	3,583
891,63	5,074
891,80	5,529
891,98	6,849
892,15	4,484
892,33	5,073
892,51	4,576
892,68	5,194
892,86	4,885
893,03	5,895
893,21	5,091
893,38	5,092
893,56	6,140
893,74	6,332
893,91	3,469
894,09	4,812
894,26	4,781
894,44	4,058
894,61	5,987
894,79	3,859
894,96	5,492
895,14	3,401
895,32	4,677
895,49	4,419
895,67	3,970
895,84	5,351
896,02	6,110
896,19	3,630
896,37	6,472
896,54	4,013
896,72	4,643
896,89	5,312
897,07	5,488
897,25	5,781
897,42	3,317
897,60	4,937
897,77	6,018
897,95	4,159
898,12	4,069
898,30	4,077
898,47	4,240
898,65	4,272
898,82	2,608
899,00	3,978
899,17	4,294
899,35	4,238
899,52	3,673
899,70	3,804
899,87	4,046
900,05	4,767
900,22	4,261
900,40	2,826
900,57	5,888
900,75	4,051
900,92	4,728
901,10	4,349
901,27	3,849
901,45	4,559
901,62	4,471
901,80	4,921
901,97	3,857
902,15	5,229
902,32	3,647
902,50	2,629
902,67	3,317
902,85	3,070
903,02	5,528
903,20	3,781
903,37	3,673
903,54	5,197
903,72	3,554
903,89	4,351
904,07	4,206
904,24	3,606
904,42	4,120
904,59	3,423
904,77	3,733
904,94	3,278
905,12	1,352
905,29	4,342
905,47	4,652
905,64	2,821
905,81	4,072
905,99	3,077
906,16	3,914
906,34	4,444
906,51	4,142
906,69	2,701
906,86	2,987
907,03	3,666
907,21	2,199
907,38	2,733
907,56	3,435
907,73	3,005
907,91	4,902
908,08	3,692
908,25	2,438
908,43	3,682
908,60	3,574
908,78	4,108
908,95	3,896
909,13	5,072
909,30	2,736
909,47	3,320
909,65	4,139
909,82	3,558
910,00	3,500
910,17	3,505
910,34	4,964
910,52	3,010
910,69	4,588
910,87	3,804
911,04	2,909
911,21	3,105
911,39	3,568
911,56	4,510
911,73	2,734
911,91	3,747
912,08	4,401
912,26	3,182
912,43	3,119
912,60	3,830
912,78	2,842
912,95	3,841
913,13	3,881
913,30	3,059
913,47	3,820
913,65	1,652
913,82	3,319
913,99	2,364
914,17	3,318
914,34	3,065
914,51	3,316
914,69	3,746
914,86	4,908
915,03	3,399
915,21	2,987
915,38	2,011
915,56	3,455
915,73	2,620
915,90	3,701
916,08	3,125
916,25	3,039
916,42	1,822
916,60	2,789
916,77	2,804
916,94	3,051
917,12	2,891
917,29	4,013
917,46	2,472
917,64	2,644
917,81	2,785
917,98	1,237
918,16	3,553
918,33	2,989
918,50	2,095
918,67	2,668
918,85	2,936
919,02	2,065
919,19	3,606
919,37	2,809
919,54	3,841
919,71	3,496
919,89	2,839
920,06	2,000
920,23	3,085
920,41	2,678
920,58	2,399
920,75	2,812
920,92	1,704
921,10	2,487
921,27	1,028
921,44	2,893
921,62	1,802
921,79	3,346
921,96	2,743
922,13	3,241
922,31	1,847
922,48	2,669
922,65	2,116
922,82	2,722
923,00	2,447
923,17	1,261
923,34	2,632
923,52	1,976
923,69	2,202
923,86	2,801
924,03	2,615
924,21	1,946
924,38	3,375
924,55	3,505
924,72	2,916
924,90	2,126
925,07	2,379
925,24	2,103
925,41	2,078
925,59	2,211
925,76	1,735
925,93	2,201
926,10	3,149
926,28	2,612
926,45	2,634
926,62	2,273
926,79	2,006
926,96	2,927
927,14	2,469
927,31	1,563
927,48	2,568
927,65	2,268
927,83	2,516
928,00	1,643
928,17	2,250
928,34	1,608
928,51	2,608
928,69	1,776
928,86	2,761
929,03	2,699
929,20	2,178
929,37	2,432
929,55	2,560
929,72	2,324
929,89	1,821
930,06	2,884
930,23	1,791
930,41	2,660
930,58	2,826
930,75	2,756
930,92	1,980
931,09	3,095
931,27	1,833
931,44	2,226
931,61	2,703
931,78	2,958
931,95	2,088
932,12	2,184
932,30	2,294
932,47	2,679
932,64	2,498
932,81	2,450
932,98	1,677
933,16	1,848
933,33	1,982
933,50	2,881
933,67	2,461
933,84	1,362
934,01	2,018
934,18	2,420
934,36	2,153
934,53	1,806
934,70	2,448
934,87	1,774
935,04	2,908
935,21	1,864
935,38	1,948
935,56	1,586
935,73	2,126
935,90	1,381
936,07	2,712
936,24	2,784
936,41	3,191
936,58	0,919
936,76	2,782
936,93	1,399
937,10	1,842
937,27	1,667
937,44	2,172
937,61	2,292
937,78	2,108
937,95	1,435
938,13	2,263
938,30	2,384
938,47	2,174
938,64	2,188
938,81	1,575
938,98	2,635
939,15	1,791
939,32	1,976
939,49	2,817
939,66	2,729
939,84	2,214
940,01	2,359
940,18	2,668
940,35	2,126
940,52	1,020
940,69	3,298
940,86	1,975
941,03	2,346
941,20	3,764
941,37	2,327
941,54	1,265
941,71	1,148
941,89	2,316
942,06	1,807
942,23	2,100
942,40	2,345
942,57	3,089
942,74	2,455
942,91	1,612
943,08	2,871
943,25	2,200
943,42	2,838
943,59	2,648
943,76	2,676
943,93	2,079
944,10	1,440
944,27	1,947
944,44	2,545
944,61	1,682
944,79	2,842
944,96	2,960
945,13	2,557
945,30	1,096
945,47	2,685
945,64	2,514
945,81	3,955
945,98	2,582
946,15	3,021
946,32	2,614
946,49	3,121
946,66	3,424
946,83	3,076
947,00	2,953
947,17	2,913
947,34	3,009
947,51	1,260
947,68	3,002
947,85	1,799
948,02	3,756
948,19	4,430
948,36	3,829
948,53	3,283
948,70	4,458
948,87	4,138
949,04	2,946
949,21	2,361
949,38	3,475
949,55	3,301
949,72	3,598
949,89	4,548
950,06	2,096
950,23	3,903
950,40	3,692
950,57	1,592
950,74	4,698
950,91	3,781
951,08	2,839
951,25	3,185
951,42	6,750
951,59	1,775
951,76	4,574
951,93	4,745
952,10	4,527
952,27	2,830
952,44	2,741
952,61	2,871
952,77	3,451
952,94	5,413
953,11	5,673
953,28	2,652
953,45	5,221
953,62	4,819
953,79	4,639
953,96	6,336
954,13	4,966
954,30	5,954
954,47	4,285
954,64	5,003
954,81	3,764
954,98	7,422
955,15	6,093
955,32	4,407
955,49	7,161
955,65	7,307
955,82	8,095
955,99	8,690
956,16	9,330
956,33	7,113
956,50	7,258
956,67	9,244
956,84	7,778
957,01	6,240
957,18	11,144
957,35	9,472
957,52	10,403
957,68	8,000
957,85	10,894
958,02	5,943
958,19	12,359
958,36	12,589
958,53	11,797
958,70	10,860
958,87	11,937
959,04	15,967
959,21	15,556
959,37	12,554
959,54	11,246
959,71	7,380
959,88	11,416
960,05	12,804
960,22	8,047
960,39	18,667
960,56	9,747
960,72	15,684
960,89	21,166
961,06	15,669
961,23	14,993
961,40	16,017
961,57	14,836
961,74	11,076
961,90	19,063
962,07	17,808
962,24	26,667
962,41	22,278
962,58	17,212
962,75	17,345
962,92	22,430
963,08	21,455
963,25	19,459
963,42	23,188
963,59	23,347
963,76	26,966
963,93	29,748
964,10	22,056
964,26	29,825
964,43	34,367
964,60	23,834
964,77	32,048
964,94	26,420
965,10	44,345
965,27	29,504
965,44	32,727
965,61	36,088
965,78	34,505
965,95	35,030
966,11	33,437
966,28	37,175
966,45	44,548
966,62	41,538
966,79	37,143
966,95	43,881
967,12	37,539
967,29	30,556
967,46	37,121
967,63	48,302
967,79	48,198
967,96	54,978
968,13	39,000
968,30	47,581
968,47	42,612
968,63	75,676
968,80	53,670
968,97	62,019
969,14	77,326
969,31	44,444
969,47	55,294
969,64	55,556
969,81	62,694
969,98	80,769
970,14	61,350
970,31	60,377
970,48	44,167
970,65	80,473
970,81	65,753
970,98	122,628
971,15	137,755
971,32	71,094
971,48	117,007
971,65	76,154
971,82	98,039
971,99	144,828
972,15	99,296
972,32	92,793
972,49	83,217
972,66	132,727
972,82	112,791
972,99	110,569
973,16	140,230
973,33	100,000
973,49	127,368
973,66	90,323
973,83	102,913
974,00	106,977
974,16	154,902
974,33	139,474
974,50	77,895
974,67	154,737
974,83	117,857
975,00	115,789
975,17	117,582
975,33	143,820
975,50	156,716
975,67	200,000
975,84	231,343
976,00	116,854
976,17	150,820
976,34	99,000
976,50	178,652
976,67	107,767
976,84	2600,000
977,00	224,490
977,17	248,889
977,34	182,418
977,50	189,552
977,67	180,357
977,84	261,290
978,01	187,234
978,17	666,667
978,34	250,000
978,51	364,706
978,67	215,789
978,84	131,250
979,01	356,757
979,17	210,256
979,34	139,041
979,51	224,490
979,67	198,765
979,84	302,041
980,01	233,333
980,17	202,817
980,34	466,667
980,51	188,406
980,67	191,765
980,84	533,333
981,01	715,000
981,17	604,000
981,34	1300,000
981,50	201,471
981,67	255,932
981,84	7050,000
982,00	466,667
982,17	180,952
982,34	161,111
982,50	680,000
982,67	168,750
982,84	2140,000
983,00	1483,333
983,17	202,985
983,33	165,517
983,50	1460,000
983,67	-372,414
983,83	336,364
984,00	-1085,714
984,17	833,333
984,33	-5650,000
984,50	340,000
984,66	343,478
984,83	168,831
985,00	-504,167
985,16	586,207
985,33	688,235
985,49	650,000
985,66	411,765
985,83	508,696
985,99	325,641
986,16	-1825,000
986,32	728,571
986,49	8700,000
986,66	357,576
986,82	1108,333
986,99	300,000
987,15	-289,474
987,32	-264,286
987,49	268,000
987,65	7350,000
987,82	437,500
987,98	271,429
988,15	430,000
988,31	1090,000
988,48	-2533,333
988,65	340,476
988,81	411,111
988,98	365,854
989,14	371,429
989,31	571,429
989,47	414,706
989,64	-869,231
989,80	725,000
989,97	375,676
990,14	-269,565
990,30	-450,000
990,47	338,776
990,63	486,111
990,80	196,000
990,96	-565,000
991,13	562,500
991,29	506,897
991,46	0,000
991,62	-1084,615
991,79	1208,333
991,95	12000,000
992,12	-1210,000
992,29	-650,000
992,45	190,588
992,62	365,116
992,78	290,909
992,95	-566,667
993,11	453,571
993,28	1390,000
993,44	-1440,000
993,61	-712,500
993,77	-3200,000
993,94	-5533,333
994,10	-124,000
994,27	1068,421
994,43	281,395
994,60	0,000
994,76	2875,000
994,93	560,000
995,09	-941,176
995,26	1288,889
995,42	349,020
995,59	719,048
995,75	1123,077
995,92	2542,857
996,08	386,111
996,25	-1425,000
996,41	-7750,000
996,58	853,333
996,74	350,000
996,91	465,517
997,07	0,000
997,23	15500,000
997,40	-16800,000
997,56	-853,846
997,73	-1962,500
997,89	505,263
998,06	1400,000
998,22	-683,333
998,39	476,000
998,55	1555,556
998,72	-1762,500
998,88	-363,333
999,05	-167,949
999,21	342,857
999,37	-733,333
999,54	-1375,000
999,70	-393,333
999,87	825,000
1000,03	392,308
1000,20	320,833
1000,36	0,000
1000,52	637,500
1000,69	-738,095
1000,85	-720,000
1001,02	-254,167
1001,18	2300,000
1001,35	1084,615
1001,51	594,118
1001,67	-953,846
1001,84	-2720,000
1002,00	332,432
1002,17	1100,000
1002,33	-2350,000
1002,50	385,714
1002,66	-976,923
1002,82	325,000
1002,99	878,571
1003,15	-2157,143
1003,32	-1227,273
1003,48	400,000
1003,64	953,333
1003,81	685,185
1003,97	-6050,000
1004,14	1190,909
1004,30	310,000
1004,46	-973,333
1004,63	928,571
1004,79	361,111
1004,95	873,333
1005,12	4650,000
1005,28	644,828
1005,45	427,027
1005,61	362,069
1005,77	-347,917
1005,94	-457,143
1006,10	-5450,000
1006,26	1115,385
1006,43	-369,231
1006,59	-1027,273
1006,76	1064,286
1006,92	1544,444
1007,08	15000,000
1007,25	-370,370
1007,41	500,000
1007,57	6850,000
1007,74	890,000
1007,90	-493,103
1008,06	336,957
1008,23	1170,588
1008,39	-837,500
1008,55	-361,538
1008,72	-1542,857
1008,88	0,000
1009,04	397,561
1009,21	-252,632
1009,37	-1158,333
1009,53	221,429
1009,70	3700,000
1009,86	-742,857
1010,02	3666,667
1010,19	827,273
1010,35	258,824
1010,51	-8200,000
1010,68	-1400,000
1010,84	-284,091
1011,00	837,500
1011,17	-436,364
1011,33	0,000
1011,49	-820,000
1011,66	992,857
1011,82	567,742
1011,98	914,286
1012,14	-890,909
1012,31	425,641
1012,47	0,000
1012,63	2466,667
1012,80	964,286
1012,96	-587,500
1013,12	-1650,000
1013,29	527,778
1013,45	460,976
1013,61	5100,000
1013,77	-225,000
1013,94	1980,000
1014,10	198,305
1014,26	-3025,000
1014,43	-344,000
1014,59	730,000
1014,75	-733,333
1014,91	-553,333
1015,08	436,111
1015,24	13100,000
1015,40	664,706
1015,56	-17300,000
1015,73	252,381
1015,89	618,182
1016,05	3500,000
1016,21	-1450,000
1016,38	863,158
1016,54	1061,538
1016,70	-4400,000
1016,86	487,500
1017,03	1118,750
1017,19	-784,615
1017,35	-894,118
1017,51	-1300,000
1017,68	-1170,000
1017,84	-2285,714
1018,00	407,143
1018,16	473,077
1018,33	-1157,143
1018,49	-1183,333
1018,65	-289,189
1018,81	297,436
1018,97	-1457,143
1019,14	-5633,333
1019,30	-246,154
1019,46	0,000
1019,62	-517,647
1019,79	-4133,333
1019,95	1175,000
1020,11	6950,000
1020,27	-355,556
1020,43	-400,000
1020,60	1866,667
1020,76	694,444
1020,92	853,333
1021,08	485,000
1021,24	1410,000
1021,41	1677,778
1021,57	1512,500
1021,73	792,308
1021,89	3100,000
1022,05	-450,000
1022,21	635,000
1022,38	-1000,000
1022,54	-2316,667
1022,70	373,333
1022,86	-1512,500
1023,02	670,833
1023,19	2300,000
1023,35	4866,667
1023,51	562,500
1023,67	318,519
1023,83	-737,500
1023,99	231,579
1024,16	-342,308
1024,32	-1344,444
1024,48	-1260,000
1024,64	280,952
1024,80	569,565
1024,96	448,718
1025,12	580,952
1025,29	676,190
1025,45	426,316
1025,61	777,778
1025,77	-2920,000
1025,93	-5800,000
1026,09	-1785,714
1026,26	716,667
1026,42	818,750
1026,58	406,061
1026,74	1516,667
1026,90	576,000
1027,06	400,000
1027,22	900,000
1027,38	328,846
1027,55	4733,333
1027,71	1950,000
1027,87	-432,000
1028,03	1180,000
1028,19	346,875
1028,35	640,000
1028,51	1880,000
1028,67	1066,667
1028,83	-2525,000
1029,00	-321,429
1029,16	1420,000
1029,32	-400,000
1029,48	331,111
1029,64	402,778
1029,80	5550,000
1029,96	913,333
1030,12	647,826
1030,28	-2666,667
1030,44	-569,231
1030,61	-516,667
1030,77	-257,143
1030,93	-900,000
1031,09	1950,000
1031,25	-14600,000
1031,41	-293,333
1031,57	403,846
1031,73	762,500
1031,89	-1209,091
1032,05	-355,556
1032,21	972,727
1032,37	-192,593
1032,53	-1000,000
1032,69	-337,500
1032,86	548,148
1033,02	-315,000
1033,18	-562,500
1033,34	605,263
1033,50	-4900,000
1033,66	-253,659
1033,82	639,130
1033,98	-392,593
1034,14	237,179
1034,30	377,419
1034,46	-3333,333
1034,62	555,000
1034,78	-609,524
1034,94	250,000
1035,10	-715,385
1035,26	-167,442
1035,42	-375,862
1035,58	-522,222
1035,74	1408,333
1035,90	-730,769
1036,06	-1633,333
1036,22	1566,667
1036,38	-700,000
1036,54	-358,333
1036,70	-233,333
1036,86	9900,000
1037,02	577,778
1037,18	736,842
1037,34	180,952
1037,50	-229,268
1037,66	-594,118
1037,82	2740,000
1037,98	-462,963
1038,14	-412,000
1038,30	-1375,000
1038,46	-571,429
1038,62	560,870
1038,78	-3500,000
1038,94	-557,895
1039,10	609,091
1039,26	377,778
1039,42	-925,000
1039,58	2000,000
1039,74	-721,053
1039,90	443,750
1040,06	-319,231
>>>>>End Processed Spectral Data<<<<<
