SpectraSuite Data File
++++++++++++++++++++++++++++++++++++
Date: Wed Feb 01 16:25:24 EET 2017
User: optolab
Dark Spectrum Present: Yes
Reference Spectrum Present: Yes
Number of Sampled Component Spectra: 1
Spectrometers: USB4C02475
Integration Time (usec): 100000 (USB4C02475)
Spectra Averaged: 1 (USB4C02475)
Boxcar Smoothing: 0 (USB4C02475)
Correct for Electrical Dark: No (USB4C02475)
Strobe/Lamp Enabled: No (USB4C02475)
Correct for Detector Non-linearity: No (USB4C02475)
Correct for Stray Light: No (USB4C02475)
Number of Pixels in Processed Spectrum: 3648
>>>>>Begin Processed Spectral Data<<<<<
344,91	4250,000
345,13	4250,000
345,35	4250,000
345,57	0,000
345,79	473,684
346,00	-1922,222
346,22	-1900,000
346,44	417,647
346,66	-583,333
346,87	-10700,000
347,09	451,515
347,31	-359,091
347,53	-320,513
347,74	278,462
347,96	378,788
348,18	831,579
348,40	364,516
348,61	829,412
348,83	359,524
349,05	298,039
349,27	-5400,000
349,48	800,000
349,70	-362,069
349,92	461,290
350,14	239,623
350,35	322,000
350,57	3225,000
350,79	568,000
351,01	-871,429
351,22	400,000
351,44	884,615
351,66	-520,000
351,87	-657,143
352,09	292,308
352,31	265,574
352,53	257,813
352,74	372,222
352,96	233,766
353,18	600,000
353,40	652,000
353,61	297,778
353,83	320,588
354,05	954,545
354,26	1700,000
354,48	244,000
354,70	460,606
354,92	-368,966
355,13	248,485
355,35	334,091
355,57	616,667
355,78	224,096
356,00	-4125,000
356,22	542,308
356,44	4450,000
356,65	309,091
356,87	542,308
357,09	733,333
357,30	264,444
357,52	263,793
357,74	805,000
357,95	320,513
358,17	295,082
358,39	288,710
358,60	413,514
358,82	570,833
359,04	607,407
359,26	505,714
359,47	11100,000
359,69	357,500
359,91	451,515
360,12	666,667
360,34	758,333
360,56	-114,815
360,77	2950,000
360,99	761,905
361,21	268,000
361,42	4850,000
361,64	183,673
361,86	278,462
362,07	-648,387
362,29	218,667
362,51	-758,824
362,72	604,000
362,94	447,059
363,16	353,488
363,37	-878,571
363,59	480,769
363,81	345,455
364,02	916,667
364,24	637,500
364,46	2200,000
364,67	1045,455
364,89	2171,429
365,11	175,714
365,32	527,586
365,54	302,778
365,76	334,694
365,97	323,529
366,19	236,207
366,41	822,727
366,62	507,407
366,84	302,326
367,05	312,245
367,27	2266,667
367,49	-938,462
367,70	564,706
367,92	286,885
368,14	247,917
368,35	-11000,000
368,57	568,000
368,79	444,828
369,00	365,217
369,22	-2025,000
369,43	203,529
369,65	240,323
369,87	464,865
370,08	189,157
370,30	273,214
370,51	303,279
370,73	284,444
370,95	266,129
371,16	288,095
371,38	460,000
371,60	1187,500
371,81	168,750
372,03	920,000
372,24	553,333
372,46	284,906
372,68	238,571
372,89	390,909
373,11	565,385
373,32	379,545
373,54	-1069,231
373,76	738,462
373,97	980,000
374,19	695,455
374,40	217,187
374,62	-4166,667
374,84	4750,000
375,05	489,286
375,27	364,000
375,48	-12000,000
375,70	178,667
375,92	273,214
376,13	353,125
376,35	227,397
376,56	906,250
376,78	225,000
376,99	367,857
377,21	250,000
377,43	283,333
377,64	207,246
377,86	444,828
378,07	361,538
378,29	-1750,000
378,51	625,806
378,72	356,250
378,94	-1177,778
379,15	393,939
379,37	817,647
379,58	276,923
379,80	920,000
380,01	831,250
380,23	288,235
380,45	2120,000
380,66	5066,667
380,88	275,000
381,09	280,000
381,31	151,111
381,52	260,784
381,74	1355,556
381,95	527,273
382,17	580,769
382,39	638,095
382,60	275,510
382,82	435,897
383,03	365,385
383,25	451,613
383,46	288,636
383,68	440,741
383,89	620,000
384,11	358,065
384,32	-2866,667
384,54	594,444
384,76	-3600,000
384,97	384,848
385,19	551,724
385,40	274,510
385,62	256,140
385,83	300,000
386,05	227,451
386,26	310,000
386,48	211,494
386,69	289,583
386,91	635,000
387,12	286,441
387,34	270,690
387,55	241,935
387,77	515,625
387,98	500,000
388,20	169,565
388,41	444,118
388,63	13700,000
388,84	195,082
389,06	300,000
389,27	847,368
389,49	400,000
389,70	353,061
389,92	440,000
390,13	232,653
390,35	354,902
390,56	290,741
390,78	577,778
390,99	990,000
391,21	715,789
391,42	362,222
391,64	302,439
391,85	220,690
392,07	261,364
392,28	201,333
392,50	227,273
392,71	-1100,000
392,93	280,769
393,14	469,444
393,36	297,959
393,57	138,346
393,79	1055,556
394,00	300,000
394,22	157,534
394,43	166,265
394,65	286,047
394,86	1175,000
395,08	585,714
395,29	196,226
395,50	538,462
395,72	605,556
395,93	785,714
396,15	205,634
396,36	166,176
396,58	248,333
396,79	322,500
397,01	226,000
397,22	200,000
397,44	159,091
397,65	212,281
397,87	316,667
398,08	200,000
398,29	350,000
398,51	178,571
398,72	260,976
398,94	210,769
399,15	417,143
399,37	256,140
399,58	186,813
399,80	418,182
400,01	274,074
400,22	323,810
400,44	220,988
400,65	446,429
400,87	188,235
401,08	202,857
401,30	245,652
401,51	243,860
401,72	392,308
401,94	188,608
402,15	695,000
402,37	152,941
402,58	516,667
402,80	251,429
403,01	256,338
403,22	1254,545
403,44	200,000
403,65	228,571
403,87	152,857
404,08	338,462
404,30	174,118
404,51	-3466,667
404,72	198,571
404,94	139,216
405,15	220,000
405,37	184,810
405,58	171,765
405,79	178,049
406,01	334,146
406,22	232,759
406,44	242,553
406,65	256,140
406,86	175,000
407,08	129,114
407,29	116,505
407,51	181,707
407,72	166,667
407,93	163,043
408,15	119,658
408,36	190,698
408,58	148,454
408,79	112,500
409,00	178,125
409,22	173,016
409,43	187,342
409,64	95,652
409,86	107,547
410,07	101,538
410,29	79,851
410,50	95,035
410,71	89,286
410,93	82,803
411,14	113,178
411,35	85,714
411,57	73,684
411,78	47,656
412,00	79,618
412,21	127,742
412,42	75,132
412,64	68,670
412,85	69,588
413,06	54,878
413,28	54,054
413,49	46,445
413,70	63,406
413,92	62,451
414,13	34,025
414,34	48,659
414,56	39,161
414,77	76,793
414,98	48,993
415,20	32,180
415,41	44,759
415,63	40,050
415,84	45,000
416,05	28,571
416,27	31,266
416,48	30,899
416,69	38,938
416,91	29,459
417,12	20,588
417,33	31,158
417,55	24,748
417,76	43,121
417,97	23,444
418,19	14,712
418,40	21,064
418,61	20,741
418,83	22,000
419,04	20,347
419,25	17,445
419,46	23,008
419,68	19,206
419,89	18,033
420,10	19,184
420,32	16,314
420,53	14,702
420,74	16,773
420,96	11,625
421,17	17,206
421,38	14,255
421,60	13,245
421,81	10,706
422,02	11,703
422,23	11,268
422,45	9,752
422,66	13,652
422,87	11,857
423,09	10,564
423,30	10,800
423,51	8,110
423,73	10,953
423,94	9,384
424,15	8,844
424,36	9,353
424,58	8,187
424,79	9,057
425,00	5,449
425,22	8,253
425,43	8,073
425,64	8,656
425,85	4,897
426,07	8,294
426,28	5,301
426,49	7,153
426,71	5,955
426,92	5,442
427,13	4,571
427,34	5,372
427,56	6,269
427,77	5,068
427,98	5,251
428,19	4,086
428,41	5,040
428,62	4,545
428,83	4,881
429,04	5,970
429,26	5,452
429,47	4,721
429,68	3,124
429,89	3,314
430,11	4,299
430,32	3,419
430,53	3,476
430,74	4,139
430,96	3,390
431,17	3,667
431,38	3,127
431,59	3,963
431,81	3,974
432,02	4,246
432,23	3,937
432,44	3,699
432,66	2,657
432,87	3,210
433,08	3,495
433,29	2,421
433,51	2,054
433,72	3,181
433,93	1,624
434,14	2,650
434,35	2,506
434,57	2,426
434,78	1,869
434,99	2,616
435,20	2,739
435,42	1,827
435,63	1,315
435,84	2,779
436,05	2,414
436,26	1,635
436,48	2,175
436,69	2,008
436,90	2,113
437,11	1,440
437,32	1,481
437,54	1,990
437,75	1,725
437,96	2,450
438,17	1,436
438,38	2,300
438,60	1,478
438,81	1,495
439,02	1,398
439,23	1,257
439,44	1,309
439,66	1,644
439,87	1,566
440,08	1,206
440,29	1,624
440,50	1,352
440,72	1,357
440,93	1,394
441,14	1,564
441,35	1,738
441,56	1,213
441,77	1,362
441,99	1,218
442,20	1,177
442,41	0,805
442,62	0,853
442,83	1,270
443,04	1,231
443,26	1,133
443,47	1,525
443,68	1,415
443,89	1,395
444,10	1,254
444,31	1,321
444,53	1,483
444,74	1,384
444,95	1,688
445,16	1,389
445,37	1,529
445,58	1,543
445,80	1,490
446,01	1,742
446,22	1,544
446,43	1,456
446,64	1,338
446,85	1,633
447,06	1,696
447,28	1,616
447,49	1,953
447,70	2,015
447,91	2,543
448,12	3,097
448,33	4,497
448,54	6,849
448,76	11,395
448,97	18,501
449,18	28,061
449,39	40,283
449,60	54,438
449,81	67,021
450,02	78,205
450,23	84,400
450,45	88,171
450,66	89,808
450,87	90,753
451,08	92,202
451,29	92,282
451,50	93,860
451,71	94,467
451,92	94,940
452,13	94,993
452,35	97,470
452,56	97,285
452,77	98,131
452,98	97,497
453,19	98,247
453,40	96,979
453,61	98,384
453,82	98,267
454,03	97,798
454,25	97,806
454,46	97,125
454,67	95,783
454,88	96,011
455,09	97,011
455,30	96,455
455,51	96,866
455,72	96,550
455,93	97,218
456,14	96,257
456,35	97,637
456,56	96,907
456,78	97,632
456,99	98,421
457,20	98,375
457,41	96,562
457,62	97,274
457,83	95,974
458,04	97,740
458,25	98,249
458,46	97,164
458,67	97,643
458,88	97,657
459,09	97,383
459,30	96,831
459,51	96,436
459,73	97,378
459,94	98,011
460,15	96,861
460,36	96,116
460,57	95,949
460,78	94,903
460,99	94,474
461,20	95,380
461,41	95,267
461,62	95,114
461,83	96,080
462,04	95,323
462,25	95,459
462,46	95,144
462,67	95,950
462,88	95,776
463,09	95,649
463,30	96,412
463,51	97,388
463,72	95,824
463,93	95,117
464,15	94,882
464,36	94,062
464,57	94,422
464,78	92,974
464,99	92,222
465,20	92,251
465,41	90,862
465,62	90,852
465,83	89,795
466,04	90,459
466,25	89,570
466,46	90,725
466,67	91,308
466,88	93,602
467,09	93,096
467,30	94,241
467,51	94,418
467,72	95,858
467,93	95,229
468,14	95,237
468,35	96,530
468,56	96,134
468,77	95,965
468,98	95,679
469,19	94,646
469,40	94,646
469,61	93,870
469,82	93,336
470,03	93,299
470,24	92,215
470,45	92,877
470,66	92,040
470,87	93,459
471,08	93,699
471,29	93,897
471,50	95,571
471,71	94,615
471,92	94,786
472,13	97,014
472,34	96,974
472,55	96,110
472,76	97,008
472,97	96,573
473,18	95,186
473,39	95,301
473,60	95,964
473,81	96,132
474,01	95,068
474,22	95,513
474,43	95,374
474,64	96,498
474,85	95,903
475,06	95,369
475,27	96,820
475,48	96,700
475,69	96,468
475,90	95,906
476,11	97,539
476,32	98,013
476,53	96,808
476,74	95,640
476,95	95,460
477,16	94,275
477,37	92,605
477,58	92,819
477,79	92,782
478,00	92,520
478,21	90,781
478,41	88,748
478,62	83,279
478,83	74,226
479,04	63,957
479,25	50,118
479,46	38,524
479,67	27,499
479,88	19,284
480,09	12,752
480,30	8,865
480,51	6,099
480,72	4,315
480,93	3,001
481,14	2,257
481,34	1,856
481,55	1,383
481,76	0,916
481,97	1,324
482,18	0,922
482,39	1,134
482,60	1,038
482,81	1,104
483,02	0,969
483,23	0,871
483,44	1,075
483,65	1,028
483,85	0,826
484,06	1,097
484,27	0,743
484,48	0,822
484,69	1,074
484,90	0,983
485,11	0,819
485,32	0,919
485,53	0,960
485,73	0,838
485,94	0,798
486,15	0,913
486,36	0,723
486,57	0,977
486,78	0,908
486,99	0,951
487,20	0,849
487,41	0,902
487,61	0,719
487,82	0,823
488,03	0,676
488,24	0,743
488,45	0,762
488,66	0,778
488,87	0,601
489,08	0,569
489,28	0,860
489,49	1,002
489,70	0,729
489,91	0,841
490,12	0,660
490,33	0,889
490,54	0,617
490,74	0,647
490,95	0,641
491,16	0,773
491,37	0,880
491,58	0,600
491,79	0,636
492,00	0,551
492,20	0,481
492,41	0,644
492,62	0,634
492,83	0,725
493,04	0,643
493,25	0,674
493,45	0,645
493,66	0,773
493,87	0,612
494,08	0,632
494,29	0,546
494,50	0,593
494,70	0,684
494,91	0,658
495,12	0,590
495,33	0,657
495,54	0,628
495,75	0,755
495,95	0,592
496,16	0,631
496,37	0,548
496,58	0,808
496,79	0,643
496,99	0,583
497,20	0,593
497,41	0,762
497,62	0,536
497,83	0,770
498,04	0,751
498,24	0,693
498,45	0,556
498,66	0,669
498,87	0,587
499,08	0,612
499,28	0,688
499,49	0,583
499,70	0,680
499,91	0,591
500,12	0,663
500,32	0,459
500,53	0,696
500,74	0,708
500,95	0,564
501,15	0,679
501,36	0,729
501,57	0,680
501,78	0,801
501,99	0,755
502,19	0,437
502,40	0,571
502,61	0,483
502,82	0,706
503,02	0,681
503,23	0,675
503,44	0,667
503,65	0,784
503,86	0,580
504,06	0,632
504,27	0,778
504,48	0,683
504,69	0,751
504,89	0,644
505,10	0,682
505,31	0,696
505,52	0,619
505,72	0,606
505,93	0,587
506,14	0,800
506,35	0,527
506,55	0,829
506,76	0,783
506,97	0,624
507,18	0,677
507,38	0,806
507,59	0,666
507,80	0,830
508,01	0,567
508,21	0,618
508,42	0,930
508,63	0,778
508,84	0,587
509,04	0,666
509,25	0,619
509,46	0,756
509,67	0,653
509,87	0,684
510,08	0,811
510,29	0,902
510,49	0,721
510,70	0,699
510,91	0,737
511,12	0,954
511,32	0,646
511,53	0,845
511,74	0,610
511,94	0,961
512,15	0,525
512,36	0,662
512,57	0,716
512,77	0,697
512,98	0,699
513,19	0,605
513,39	0,608
513,60	0,581
513,81	0,748
514,01	0,580
514,22	1,041
514,43	0,844
514,64	0,827
514,84	0,878
515,05	0,682
515,26	0,700
515,46	0,844
515,67	0,649
515,88	0,773
516,08	0,803
516,29	0,948
516,50	0,847
516,70	0,738
516,91	0,855
517,12	0,973
517,32	0,920
517,53	0,756
517,74	0,874
517,95	0,765
518,15	1,002
518,36	0,689
518,57	0,852
518,77	0,785
518,98	0,983
519,19	0,966
519,39	1,019
519,60	1,086
519,80	1,184
520,01	1,043
520,22	0,993
520,42	1,303
520,63	1,121
520,84	0,897
521,04	1,056
521,25	1,384
521,46	1,318
521,66	1,128
521,87	1,122
522,08	1,402
522,28	1,428
522,49	1,586
522,70	2,353
522,90	3,868
523,11	5,681
523,31	9,796
523,52	15,539
523,73	23,675
523,93	32,818
524,14	43,726
524,35	51,886
524,55	58,988
524,76	64,085
524,97	69,835
525,17	75,985
525,38	79,842
525,58	85,411
525,79	88,223
526,00	90,305
526,20	91,018
526,41	91,387
526,61	92,261
526,82	91,765
527,03	91,707
527,23	92,823
527,44	93,416
527,64	94,665
527,85	95,673
528,06	95,297
528,26	96,567
528,47	97,775
528,68	97,085
528,88	97,281
529,09	96,959
529,29	98,623
529,50	98,786
529,70	99,440
529,91	98,689
530,12	99,705
530,32	98,321
530,53	98,194
530,73	98,029
530,94	98,280
531,15	98,589
531,35	98,193
531,56	99,044
531,76	97,196
531,97	98,899
532,17	98,935
532,38	97,593
532,59	98,682
532,79	98,666
533,00	98,554
533,20	98,994
533,41	99,733
533,61	99,613
533,82	99,139
534,03	98,275
534,23	99,865
534,44	101,264
534,64	99,193
534,85	100,098
535,05	101,291
535,26	101,386
535,46	100,962
535,67	100,515
535,88	101,273
536,08	101,171
536,29	101,150
536,49	100,392
536,70	101,257
536,90	100,758
537,11	100,768
537,31	101,142
537,52	100,782
537,72	100,897
537,93	100,596
538,13	100,168
538,34	101,552
538,55	101,049
538,75	100,583
538,96	100,835
539,16	101,226
539,37	99,668
539,57	101,061
539,78	99,697
539,98	100,566
540,19	99,666
540,39	99,814
540,60	99,355
540,80	99,267
541,01	100,024
541,21	100,314
541,42	99,065
541,62	98,334
541,83	99,731
542,03	100,454
542,24	100,060
542,44	99,446
542,65	98,786
542,85	100,156
543,06	99,260
543,26	98,737
543,47	99,660
543,67	99,653
543,88	100,571
544,08	99,980
544,29	99,401
544,49	99,174
544,70	98,579
544,90	98,282
545,11	98,461
545,31	97,559
545,52	97,243
545,72	96,755
545,93	96,659
546,13	95,809
546,34	96,844
546,54	96,647
546,75	96,769
546,95	96,531
547,15	97,851
547,36	98,211
547,56	97,225
547,77	98,511
547,97	98,706
548,18	98,792
548,38	98,934
548,59	99,257
548,79	99,751
549,00	100,749
549,20	101,161
549,41	100,569
549,61	100,464
549,81	100,280
550,02	99,045
550,22	98,406
550,43	98,827
550,63	98,335
550,84	97,212
551,04	97,838
551,25	97,738
551,45	96,689
551,65	97,581
551,86	98,267
552,06	97,637
552,27	97,932
552,47	97,417
552,68	98,893
552,88	97,313
553,08	97,537
553,29	97,920
553,49	97,137
553,70	98,106
553,90	97,766
554,11	97,680
554,31	96,926
554,51	97,098
554,72	96,388
554,92	95,617
555,13	95,601
555,33	94,761
555,53	94,756
555,74	93,259
555,94	92,670
556,15	93,312
556,35	93,055
556,56	93,173
556,76	94,044
556,96	93,750
557,17	93,143
557,37	93,682
557,58	92,180
557,78	86,778
557,98	81,700
558,19	73,821
558,39	66,175
558,59	56,755
558,80	47,788
559,00	38,387
559,21	30,177
559,41	22,193
559,61	16,631
559,82	11,390
560,02	7,739
560,23	5,728
560,43	3,867
560,63	2,846
560,84	2,069
561,04	1,591
561,24	1,352
561,45	0,922
561,65	1,019
561,85	0,987
562,06	0,859
562,26	0,714
562,47	0,964
562,67	0,648
562,87	0,808
563,08	0,689
563,28	0,601
563,48	0,889
563,69	0,631
563,89	0,719
564,09	0,881
564,30	0,879
564,50	0,881
564,70	0,744
564,91	0,776
565,11	0,587
565,31	0,838
565,52	0,625
565,72	0,758
565,92	0,964
566,13	0,608
566,33	0,584
566,53	0,574
566,74	0,687
566,94	0,629
567,14	0,615
567,35	0,414
567,55	0,558
567,75	0,769
567,96	0,742
568,16	0,465
568,36	0,666
568,57	0,654
568,77	0,525
568,97	0,560
569,18	0,748
569,38	0,813
569,58	0,588
569,79	0,764
569,99	0,499
570,19	0,527
570,39	0,628
570,60	0,394
570,80	0,651
571,00	0,690
571,21	0,523
571,41	0,586
571,61	0,691
571,82	0,689
572,02	0,600
572,22	0,741
572,42	0,430
572,63	0,656
572,83	0,440
573,03	0,478
573,24	0,674
573,44	0,454
573,64	0,745
573,84	0,692
574,05	0,649
574,25	0,683
574,45	0,536
574,66	0,575
574,86	0,673
575,06	0,580
575,26	0,411
575,47	0,650
575,67	0,584
575,87	0,632
576,07	0,499
576,28	0,669
576,48	0,575
576,68	0,544
576,88	0,329
577,09	0,494
577,29	0,412
577,49	0,580
577,69	0,608
577,90	0,628
578,10	0,483
578,30	0,559
578,50	0,445
578,71	0,765
578,91	0,442
579,11	0,504
579,31	0,572
579,52	0,466
579,72	0,469
579,92	0,424
580,12	0,474
580,33	0,625
580,53	0,519
580,73	0,478
580,93	0,582
581,13	0,416
581,34	0,620
581,54	0,648
581,74	0,549
581,94	0,720
582,15	0,371
582,35	0,359
582,55	0,641
582,75	0,557
582,95	0,570
583,16	0,475
583,36	0,646
583,56	0,510
583,76	0,476
583,96	0,576
584,17	0,412
584,37	0,750
584,57	0,517
584,77	0,545
584,97	0,708
585,18	0,474
585,38	0,508
585,58	0,542
585,78	0,540
585,98	0,584
586,19	0,535
586,39	0,649
586,59	0,552
586,79	0,483
586,99	0,481
587,20	0,456
587,40	0,531
587,60	0,358
587,80	0,559
588,00	0,534
588,20	0,459
588,41	0,751
588,61	0,568
588,81	0,579
589,01	0,432
589,21	0,509
589,41	0,690
589,62	0,790
589,82	0,496
590,02	0,429
590,22	0,695
590,42	0,487
590,62	0,406
590,83	0,388
591,03	0,439
591,23	0,418
591,43	0,646
591,63	0,678
591,83	0,469
592,03	0,516
592,24	0,520
592,44	0,609
592,64	0,545
592,84	0,586
593,04	0,636
593,24	0,546
593,44	0,590
593,65	0,565
593,85	0,553
594,05	0,266
594,25	0,692
594,45	0,388
594,65	0,537
594,85	0,704
595,06	0,523
595,26	0,546
595,46	0,324
595,66	0,596
595,86	0,736
596,06	0,425
596,26	0,516
596,46	0,570
596,66	0,626
596,87	0,650
597,07	0,501
597,27	0,524
597,47	0,607
597,67	0,748
597,87	0,698
598,07	0,393
598,27	0,621
598,47	0,614
598,67	0,663
598,88	0,453
599,08	0,530
599,28	0,633
599,48	0,654
599,68	0,822
599,88	0,618
600,08	0,686
600,28	0,773
600,48	0,480
600,68	0,550
600,88	0,612
601,09	0,472
601,29	0,533
601,49	0,689
601,69	0,677
601,89	0,570
602,09	0,574
602,29	0,648
602,49	0,605
602,69	0,530
602,89	0,657
603,09	0,547
603,29	0,579
603,49	0,548
603,69	0,693
603,90	0,568
604,10	0,719
604,30	0,793
604,50	0,629
604,70	0,712
604,90	0,582
605,10	0,685
605,30	0,626
605,50	0,722
605,70	0,719
605,90	0,683
606,10	0,612
606,30	0,592
606,50	0,680
606,70	0,639
606,90	0,621
607,10	0,668
607,30	0,564
607,50	0,690
607,70	0,777
607,90	0,709
608,10	0,506
608,30	0,685
608,50	0,913
608,70	0,878
608,90	1,107
609,11	1,162
609,31	1,022
609,51	0,959
609,71	1,075
609,91	0,994
610,11	1,187
610,31	0,926
610,51	1,382
610,71	1,294
610,91	1,389
611,11	1,900
611,31	2,225
611,51	2,762
611,71	4,001
611,91	5,919
612,11	8,052
612,31	12,378
612,51	15,982
612,71	21,873
612,91	28,190
613,11	35,049
613,31	41,061
613,51	47,425
613,71	52,795
613,91	58,677
614,11	63,476
614,31	67,322
614,50	72,469
614,70	74,980
614,90	78,374
615,10	80,545
615,30	83,318
615,50	84,412
615,70	85,927
615,90	88,243
616,10	87,837
616,30	88,323
616,50	89,513
616,70	90,279
616,90	91,889
617,10	92,597
617,30	94,246
617,50	95,284
617,70	96,142
617,90	96,685
618,10	96,576
618,30	97,844
618,50	97,734
618,70	99,007
618,90	98,981
619,10	98,482
619,30	97,920
619,49	98,488
619,69	97,616
619,89	97,576
620,09	97,982
620,29	98,513
620,49	97,201
620,69	98,049
620,89	98,119
621,09	97,867
621,29	99,102
621,49	97,446
621,69	97,367
621,89	98,087
622,09	97,500
622,29	97,619
622,48	98,491
622,68	96,441
622,88	96,071
623,08	96,422
623,28	95,528
623,48	95,881
623,68	96,715
623,88	95,555
624,08	94,856
624,28	95,697
624,48	95,198
624,67	94,033
624,87	95,519
625,07	95,743
625,27	95,411
625,47	96,737
625,67	96,687
625,87	95,942
626,07	96,074
626,27	95,941
626,47	96,985
626,66	96,246
626,86	96,653
627,06	97,417
627,26	96,479
627,46	97,246
627,66	97,352
627,86	97,009
628,06	96,882
628,25	95,404
628,45	96,581
628,65	96,802
628,85	95,778
629,05	95,946
629,25	95,782
629,45	96,271
629,65	96,994
629,84	96,217
630,04	97,358
630,24	97,052
630,44	96,679
630,64	98,575
630,84	97,902
631,04	98,377
631,23	99,292
631,43	99,491
631,63	99,130
631,83	100,268
632,03	100,177
632,23	100,056
632,42	101,326
632,62	100,987
632,82	100,948
633,02	100,059
633,22	102,320
633,42	100,853
633,62	100,686
633,81	101,708
634,01	100,269
634,21	100,771
634,41	100,727
634,61	100,009
634,80	100,084
635,00	100,809
635,20	101,073
635,40	99,731
635,60	100,127
635,80	99,663
635,99	100,889
636,19	100,127
636,39	100,978
636,59	99,558
636,79	100,310
636,98	101,132
637,18	100,720
637,38	100,774
637,58	101,865
637,78	100,124
637,97	101,775
638,17	100,795
638,37	102,366
638,57	100,460
638,77	100,974
638,96	101,057
639,16	101,049
639,36	101,017
639,56	100,877
639,76	101,962
639,95	102,563
640,15	100,619
640,35	101,808
640,55	101,668
640,75	101,146
640,94	102,111
641,14	101,537
641,34	101,883
641,54	101,641
641,73	99,898
641,93	102,131
642,13	100,675
642,33	101,243
642,53	101,053
642,72	101,224
642,92	101,314
643,12	101,408
643,32	100,488
643,51	101,939
643,71	100,626
643,91	100,500
644,11	100,761
644,30	99,067
644,50	100,362
644,70	100,021
644,90	100,057
645,09	100,597
645,29	98,752
645,49	99,720
645,69	97,237
645,88	99,288
646,08	99,131
646,28	98,126
646,48	99,466
646,67	98,438
646,87	97,672
647,07	99,074
647,26	99,199
647,46	98,620
647,66	100,415
647,86	99,939
648,05	100,145
648,25	99,288
648,45	99,863
648,65	98,526
648,84	100,303
649,04	100,809
649,24	99,304
649,43	100,265
649,63	100,866
649,83	98,765
650,03	101,560
650,22	100,024
650,42	99,210
650,62	100,856
650,81	101,713
651,01	100,040
651,21	98,482
651,40	99,782
651,60	99,798
651,80	100,633
652,00	97,786
652,19	97,809
652,39	100,115
652,59	97,648
652,78	99,033
652,98	100,241
653,18	98,450
653,37	98,643
653,57	97,913
653,77	97,525
653,96	97,461
654,16	96,996
654,36	98,986
654,55	98,369
654,75	96,947
654,95	98,120
655,14	98,602
655,34	98,712
655,54	97,033
655,73	96,345
655,93	97,536
656,13	97,465
656,32	96,294
656,52	98,078
656,72	97,079
656,91	96,112
657,11	94,312
657,31	95,691
657,50	96,475
657,70	95,719
657,90	95,196
658,09	95,523
658,29	97,376
658,49	94,592
658,68	94,979
658,88	94,602
659,07	93,759
659,27	94,567
659,47	94,398
659,66	93,011
659,86	95,118
660,06	93,998
660,25	93,076
660,45	93,462
660,64	93,959
660,84	90,956
661,04	93,529
661,23	91,278
661,43	89,705
661,63	91,019
661,82	88,982
662,02	90,448
662,21	88,016
662,41	85,968
662,61	84,191
662,80	81,966
663,00	78,606
663,19	74,914
663,39	69,379
663,59	64,788
663,78	59,050
663,98	52,873
664,17	46,604
664,37	41,141
664,57	35,772
664,76	29,912
664,96	25,097
665,15	21,095
665,35	17,647
665,55	14,040
665,74	12,270
665,94	10,046
666,13	8,934
666,33	7,012
666,53	6,455
666,72	4,872
666,92	4,465
667,11	4,253
667,31	3,389
667,50	3,505
667,70	3,424
667,90	2,766
668,09	2,685
668,29	2,411
668,48	2,005
668,68	1,973
668,87	1,582
669,07	2,268
669,26	1,648
669,46	1,230
669,66	1,716
669,85	1,811
670,05	1,046
670,24	1,637
670,44	1,218
670,63	1,323
670,83	1,457
671,02	1,419
671,22	1,420
671,42	0,950
671,61	0,745
671,81	1,002
672,00	1,219
672,20	0,998
672,39	0,994
672,59	0,590
672,78	1,186
672,98	0,935
673,17	1,016
673,37	0,972
673,56	0,905
673,76	0,985
673,95	1,188
674,15	0,729
674,34	0,895
674,54	0,626
674,73	0,917
674,93	0,950
675,13	0,777
675,32	0,623
675,52	1,088
675,71	1,011
675,91	0,780
676,10	0,710
676,30	0,627
676,49	0,618
676,69	0,994
676,88	1,012
677,08	0,877
677,27	0,649
677,47	0,908
677,66	0,890
677,86	0,820
678,05	0,954
678,24	0,475
678,44	1,088
678,63	0,800
678,83	0,813
679,02	0,777
679,22	0,436
679,41	0,840
679,61	0,769
679,80	0,781
680,00	0,769
680,19	0,657
680,39	0,777
680,58	0,436
680,78	0,668
680,97	0,752
681,17	0,598
681,36	0,520
681,56	0,978
681,75	0,789
681,94	0,594
682,14	0,944
682,33	0,546
682,53	0,903
682,72	0,814
682,92	0,668
683,11	0,800
683,31	0,400
683,50	0,630
683,69	0,607
683,89	0,632
684,08	0,485
684,28	0,480
684,47	0,594
684,67	0,611
684,86	0,382
685,06	0,582
685,25	0,579
685,44	0,445
685,64	0,379
685,83	0,477
686,03	0,403
686,22	0,465
686,42	0,592
686,61	0,570
686,80	0,498
687,00	0,425
687,19	0,805
687,39	0,519
687,58	0,373
687,77	0,487
687,97	0,617
688,16	0,368
688,36	0,383
688,55	0,486
688,74	0,483
688,94	0,488
689,13	0,411
689,33	0,495
689,52	0,455
689,71	0,595
689,91	0,452
690,10	0,416
690,30	0,546
690,49	0,505
690,68	0,433
690,88	0,576
691,07	0,326
691,27	0,455
691,46	0,308
691,65	0,379
691,85	0,552
692,04	0,448
692,23	0,324
692,43	0,416
692,62	0,521
692,82	0,688
693,01	0,523
693,20	0,482
693,40	0,402
693,59	0,567
693,78	0,464
693,98	0,338
694,17	0,338
694,36	0,682
694,56	0,565
694,75	0,247
694,94	0,523
695,14	0,573
695,33	0,487
695,53	0,494
695,72	0,518
695,91	0,441
696,11	0,560
696,30	0,333
696,49	0,316
696,69	0,512
696,88	0,408
697,07	0,327
697,27	0,501
697,46	0,568
697,65	0,315
697,85	0,367
698,04	0,722
698,23	0,772
698,43	0,732
698,62	0,463
698,81	0,582
699,01	1,158
699,20	0,587
699,39	0,770
699,58	1,053
699,78	0,771
699,97	0,935
700,16	0,933
700,36	0,512
700,55	1,171
700,74	1,140
700,94	1,251
701,13	0,991
701,32	1,296
701,52	1,604
701,71	0,843
701,90	1,629
702,09	1,462
702,29	1,719
702,48	1,847
702,67	1,147
702,87	0,996
703,06	1,863
703,25	1,714
703,44	2,072
703,64	1,799
703,83	2,296
704,02	1,749
704,22	1,679
704,41	1,585
704,60	2,053
704,79	1,580
704,99	2,479
705,18	2,409
705,37	2,317
705,56	2,343
705,76	1,916
705,95	1,592
706,14	1,603
706,33	2,732
706,53	2,920
706,72	1,578
706,91	2,839
707,11	2,937
707,30	3,196
707,49	3,914
707,68	1,863
707,88	3,198
708,07	1,205
708,26	3,059
708,45	2,501
708,64	3,658
708,84	3,960
709,03	3,486
709,22	2,497
709,41	4,822
709,61	3,118
709,80	4,739
709,99	3,352
710,18	3,887
710,38	4,580
710,57	2,505
710,76	3,747
710,95	3,964
711,14	4,275
711,34	4,229
711,53	4,722
711,72	4,946
711,91	3,341
712,11	5,298
712,30	4,475
712,49	4,917
712,68	4,760
712,87	6,819
713,07	6,351
713,26	3,991
713,45	5,058
713,64	5,746
713,83	5,230
714,03	6,557
714,22	5,720
714,41	5,019
714,60	5,258
714,79	4,818
714,99	6,447
715,18	5,387
715,37	7,646
715,56	5,944
715,75	4,603
715,94	6,211
716,14	2,788
716,33	4,256
716,52	6,232
716,71	5,866
716,90	6,799
717,10	6,879
717,29	4,286
717,48	7,787
717,67	6,467
717,86	7,973
718,05	4,017
718,24	4,554
718,44	7,578
718,63	5,986
718,82	11,209
719,01	8,172
719,20	7,091
719,39	5,299
719,59	5,739
719,78	4,060
719,97	9,066
720,16	6,443
720,35	8,287
720,54	8,815
720,73	5,218
720,93	10,036
721,12	7,011
721,31	8,549
721,50	8,902
721,69	7,820
721,88	8,673
722,07	6,728
722,27	6,179
722,46	6,618
722,65	6,623
722,84	6,358
723,03	4,195
723,22	7,321
723,41	9,857
723,60	10,860
723,79	12,549
723,99	10,309
724,18	12,713
724,37	8,388
724,56	10,348
724,75	11,586
724,94	12,729
725,13	13,235
725,32	10,646
725,51	12,302
725,71	8,239
725,90	9,859
726,09	12,938
726,28	13,793
726,47	7,910
726,66	15,721
726,85	9,939
727,04	11,838
727,23	10,040
727,42	14,146
727,61	5,397
727,81	12,826
728,00	9,442
728,19	10,526
728,38	7,235
728,57	11,321
728,76	11,900
728,95	14,397
729,14	12,797
729,33	17,234
729,52	14,511
729,71	18,025
729,90	11,022
730,09	11,565
730,28	14,319
730,48	13,341
730,67	14,389
730,86	10,075
731,05	14,836
731,24	10,037
731,43	9,811
731,62	17,794
731,81	9,022
732,00	7,878
732,19	4,981
732,38	14,660
732,57	12,943
732,76	17,619
732,95	10,133
733,14	9,363
733,33	10,165
733,52	18,523
733,71	10,217
733,90	17,866
734,09	9,738
734,28	17,517
734,47	10,263
734,66	16,282
734,85	18,440
735,04	17,984
735,23	15,608
735,42	20,173
735,61	17,600
735,81	17,793
736,00	17,470
736,19	19,083
736,38	15,852
736,57	22,423
736,76	15,814
736,95	19,394
737,14	15,502
737,33	22,953
737,52	16,290
737,71	15,545
737,90	16,490
738,09	21,012
738,28	13,716
738,47	13,072
738,66	18,594
738,85	14,261
739,04	23,090
739,22	20,270
739,41	17,419
739,60	17,559
739,79	14,555
739,98	12,160
740,17	20,578
740,36	22,857
740,55	28,924
740,74	18,261
740,93	22,561
741,12	24,081
741,31	17,831
741,50	17,891
741,69	17,593
741,88	10,200
742,07	22,563
742,26	20,787
742,45	23,123
742,64	17,266
742,83	14,894
743,02	22,883
743,21	27,364
743,40	22,841
743,59	12,295
743,78	17,249
743,97	25,940
744,16	24,834
744,34	21,260
744,53	18,033
744,72	31,185
744,91	9,053
745,10	27,273
745,29	24,586
745,48	22,505
745,67	24,033
745,86	11,972
746,05	25,342
746,24	31,155
746,43	37,825
746,62	14,516
746,81	28,082
747,00	27,975
747,18	31,648
747,37	24,094
747,56	24,270
747,75	25,602
747,94	34,573
748,13	28,311
748,32	32,906
748,51	31,151
748,70	27,098
748,89	23,671
749,08	17,143
749,26	22,673
749,45	35,765
749,64	25,558
749,83	23,919
750,02	31,215
750,21	26,686
750,40	25,260
750,59	26,415
750,78	28,698
750,96	24,860
751,15	22,131
751,34	31,414
751,53	36,453
751,72	30,997
751,91	14,795
752,10	23,765
752,29	31,921
752,47	32,865
752,66	32,676
752,85	33,746
753,04	34,700
753,23	8,940
753,42	29,787
753,61	30,719
753,80	28,184
753,98	17,193
754,17	39,264
754,36	36,723
754,55	17,241
754,74	42,486
754,93	27,666
755,12	32,000
755,30	26,593
755,49	34,557
755,68	46,398
755,87	21,622
756,06	29,609
756,25	31,429
756,43	31,724
756,62	33,531
756,81	23,102
757,00	44,638
757,19	35,616
757,38	34,385
757,56	33,871
757,75	30,065
757,94	43,218
758,13	29,545
758,32	39,394
758,51	44,118
758,69	33,200
758,88	43,544
759,07	31,541
759,26	26,977
759,45	30,131
759,63	48,327
759,82	37,710
760,01	36,120
760,20	31,128
760,39	41,418
760,57	45,041
760,76	56,306
760,95	36,574
761,14	41,224
761,33	44,063
761,51	45,878
761,70	59,655
761,89	34,016
762,08	40,930
762,27	38,828
762,45	38,132
762,64	46,886
762,83	56,195
763,02	45,116
763,21	28,017
763,39	51,429
763,58	34,340
763,77	47,104
763,96	44,177
764,14	45,833
764,33	59,341
764,52	71,674
764,71	45,291
764,89	36,765
765,08	57,328
765,27	44,981
765,46	39,130
765,65	41,048
765,83	25,541
766,02	31,915
766,21	62,983
766,40	56,667
766,58	51,220
766,77	57,711
766,96	58,182
767,15	58,937
767,33	39,766
767,52	67,683
767,71	58,261
767,90	34,831
768,08	49,416
768,27	51,000
768,46	43,750
768,64	68,394
768,83	51,562
769,02	70,000
769,21	48,908
769,39	48,256
769,58	54,335
769,77	67,050
769,96	68,063
770,14	62,585
770,33	59,346
770,52	47,619
770,70	28,667
770,89	77,181
771,08	40,254
771,27	72,680
771,45	59,211
771,64	70,833
771,83	56,075
772,01	27,108
772,20	79,899
772,39	40,000
772,57	75,194
772,76	57,037
772,95	51,064
773,14	69,355
773,32	52,903
773,51	60,697
773,70	75,625
773,88	91,257
774,07	60,209
774,26	47,518
774,44	52,439
774,63	65,482
774,82	68,902
775,00	62,000
775,19	55,200
775,38	64,740
775,56	69,271
775,75	69,277
775,94	68,354
776,12	53,591
776,31	40,000
776,50	71,023
776,68	65,789
776,87	59,091
777,06	88,966
777,24	85,556
777,43	69,872
777,62	96,324
777,80	48,649
777,99	72,000
778,18	71,782
778,36	69,600
778,55	84,298
778,74	111,111
778,92	79,290
779,11	96,667
779,29	73,585
779,48	79,592
779,67	77,519
779,85	57,724
780,04	63,243
780,23	87,770
780,41	73,437
780,60	42,105
780,79	93,220
780,97	88,816
781,16	60,606
781,34	111,340
781,53	116,239
781,72	76,642
781,90	61,719
782,09	47,097
782,28	75,182
782,46	65,926
782,65	53,571
782,83	125,843
783,02	102,500
783,21	97,333
783,39	96,522
783,58	89,941
783,76	59,777
783,95	83,636
784,14	62,914
784,32	86,577
784,51	114,655
784,69	93,220
784,88	157,658
785,06	77,311
785,25	94,904
785,44	94,245
785,62	91,429
785,81	114,085
785,99	133,813
786,18	87,162
786,37	94,815
786,55	114,679
786,74	67,105
786,92	79,688
787,11	86,667
787,29	61,194
787,48	76,667
787,67	77,108
787,85	81,034
788,04	66,832
788,22	51,639
788,41	103,529
788,59	106,422
788,78	76,970
788,96	85,849
789,15	146,316
789,34	110,000
789,52	88,496
789,71	92,248
789,89	187,234
790,08	65,068
790,26	54,286
790,45	65,152
790,63	91,667
790,82	78,788
791,00	81,250
791,19	94,624
791,38	122,917
791,56	107,895
791,75	109,174
791,93	129,885
792,12	86,391
792,30	114,400
792,49	95,798
792,67	90,299
792,86	85,271
793,04	94,393
793,23	70,000
793,41	107,595
793,60	117,172
793,78	121,053
793,97	132,051
794,15	77,273
794,34	96,703
794,52	142,857
794,71	90,123
794,89	84,444
795,08	104,854
795,26	97,778
795,45	137,313
795,63	107,576
795,82	114,019
796,00	88,991
796,19	80,833
796,37	96,350
796,56	166,667
796,74	111,504
796,93	111,236
797,11	143,038
797,30	91,667
797,48	87,586
797,67	110,000
797,85	137,755
798,04	150,000
798,22	89,683
798,41	104,902
798,59	138,947
798,77	155,385
798,96	91,398
799,14	106,897
799,33	106,107
799,51	98,462
799,70	93,289
799,88	101,515
800,07	67,763
800,25	96,552
800,44	93,939
800,62	127,059
800,80	100,000
800,99	169,841
801,17	83,621
801,36	88,966
801,54	146,875
801,73	93,939
801,91	95,082
802,10	103,571
802,28	137,383
802,46	120,988
802,65	96,552
802,83	126,966
803,02	102,105
803,20	125,781
803,39	55,172
803,57	155,422
803,75	82,432
803,94	99,160
804,12	81,667
804,31	114,159
804,49	81,731
804,67	88,000
804,86	76,786
805,04	83,784
805,23	73,103
805,41	99,180
805,59	92,623
805,78	91,667
805,96	96,154
806,15	89,844
806,33	105,882
806,51	89,381
806,70	230,000
806,88	82,927
807,07	57,937
807,25	60,377
807,43	82,781
807,62	95,935
807,80	116,129
807,99	84,921
808,17	103,546
808,35	96,491
808,54	58,065
808,72	82,400
808,90	152,632
809,09	112,500
809,27	119,820
809,46	120,536
809,64	81,373
809,82	87,356
810,01	98,485
810,19	69,000
810,37	88,462
810,56	121,951
810,74	70,199
810,92	113,636
811,11	123,529
811,29	97,872
811,48	134,343
811,66	97,674
811,84	83,486
812,03	112,727
812,21	75,641
812,39	109,322
812,58	101,961
812,76	91,589
812,94	106,000
813,13	92,063
813,31	80,000
813,49	133,696
813,68	102,609
813,86	127,551
814,04	124,272
814,23	135,354
814,41	86,765
814,59	88,701
814,78	54,412
814,96	106,306
815,14	102,222
815,33	88,406
815,51	93,333
815,69	70,370
815,87	93,043
816,06	111,875
816,24	93,377
816,42	44,872
816,61	96,610
816,79	163,855
816,97	118,919
817,16	50,323
817,34	72,414
817,52	104,138
817,70	167,460
817,89	87,603
818,07	77,586
818,25	94,595
818,44	86,047
818,62	89,655
818,80	106,294
818,98	80,000
819,17	107,692
819,35	100,000
819,53	89,109
819,72	68,605
819,90	80,838
820,08	58,442
820,26	105,263
820,45	95,181
820,63	78,125
820,81	94,631
820,99	96,992
821,18	48,889
821,36	82,381
821,54	69,767
821,73	80,000
821,91	67,021
822,09	73,529
822,27	72,589
822,46	51,875
822,64	73,510
822,82	60,488
823,00	81,081
823,19	81,818
823,37	101,429
823,55	64,706
823,73	70,000
823,91	72,928
824,10	101,676
824,28	74,815
824,46	59,302
824,64	56,863
824,83	75,610
825,01	85,507
825,19	57,714
825,37	64,583
825,56	89,375
825,74	74,762
825,92	67,978
826,10	94,410
826,28	74,497
826,47	86,179
826,65	53,378
826,83	85,484
827,01	65,152
827,19	77,215
827,38	74,093
827,56	67,308
827,74	50,813
827,92	86,829
828,10	65,217
828,29	53,333
828,47	67,544
828,65	45,405
828,83	73,737
829,01	79,333
829,20	60,127
829,38	57,676
829,56	65,992
829,74	69,697
829,92	49,485
830,10	63,964
830,29	57,838
830,47	54,688
830,65	32,143
830,83	59,429
831,01	47,500
831,20	45,545
831,38	45,854
831,56	59,514
831,74	79,429
831,92	49,432
832,10	62,273
832,29	41,706
832,47	46,903
832,65	71,915
832,83	46,047
833,01	40,316
833,19	50,679
833,37	53,333
833,56	59,624
833,74	62,348
833,92	53,540
834,10	65,482
834,28	56,923
834,46	55,363
834,64	53,516
834,83	34,130
835,01	68,093
835,19	44,076
835,37	52,191
835,55	54,152
835,73	55,882
835,91	48,649
836,09	35,685
836,28	38,168
836,46	47,018
836,64	62,295
836,82	33,955
837,00	47,959
837,18	48,221
837,36	36,364
837,54	41,288
837,72	22,709
837,91	39,357
838,09	33,600
838,27	56,777
838,45	59,871
838,63	37,627
838,81	46,382
838,99	54,007
839,17	55,663
839,35	41,111
839,53	51,678
839,72	33,898
839,90	29,787
840,08	33,654
840,26	41,640
840,44	26,852
840,62	31,987
840,80	30,864
840,98	35,952
841,16	26,690
841,34	40,290
841,52	37,380
841,70	30,640
841,89	38,710
842,07	35,135
842,25	26,623
842,43	44,839
842,61	40,751
842,79	32,317
842,97	15,854
843,15	46,132
843,33	33,492
843,51	37,232
843,69	22,222
843,87	30,728
844,05	35,310
844,23	31,351
844,41	22,864
844,59	38,068
844,77	19,308
844,95	34,466
845,13	40,710
845,31	29,330
845,50	38,402
845,68	23,575
845,86	34,434
846,04	40,247
846,22	33,652
846,40	24,672
846,58	24,933
846,76	28,678
846,94	32,452
847,12	24,171
847,30	39,862
847,48	26,859
847,66	35,610
847,84	27,157
848,02	28,690
848,20	29,139
848,38	32,143
848,56	25,591
848,74	14,256
848,92	23,173
849,10	33,705
849,28	25,490
849,46	25,000
849,64	27,381
849,82	25,000
850,00	22,998
850,18	19,400
850,36	29,605
850,54	31,166
850,72	24,948
850,90	24,574
851,08	21,811
851,26	37,449
851,44	32,129
851,62	24,724
851,80	28,628
851,98	38,683
852,16	30,658
852,34	32,638
852,52	26,243
852,70	18,675
852,87	19,619
853,05	31,463
853,23	25,882
853,41	14,315
853,59	21,887
853,77	26,190
853,95	23,941
854,13	18,835
854,31	24,607
854,49	17,435
854,67	30,075
854,85	19,826
855,03	25,479
855,21	21,658
855,39	18,624
855,57	25,725
855,75	19,562
855,93	20,848
856,11	31,579
856,28	23,611
856,46	9,967
856,64	22,816
856,82	12,740
857,00	18,858
857,18	20,031
857,36	27,059
857,54	22,128
857,72	19,866
857,90	13,015
858,08	20,833
858,26	17,125
858,44	15,528
858,61	21,490
858,79	22,016
858,97	14,756
859,15	14,307
859,33	18,405
859,51	16,773
859,69	13,839
859,87	19,619
860,05	20,921
860,23	15,000
860,40	17,051
860,58	13,937
860,76	16,384
860,94	12,672
861,12	17,422
861,30	21,067
861,48	18,980
861,66	17,979
861,84	25,559
862,01	21,524
862,19	18,970
862,37	21,137
862,55	20,195
862,73	14,946
862,91	16,034
863,09	15,605
863,27	12,953
863,44	13,113
863,62	13,745
863,80	9,642
863,98	12,388
864,16	12,947
864,34	13,636
864,52	18,337
864,69	15,301
864,87	16,091
865,05	15,573
865,23	14,734
865,41	12,634
865,59	16,069
865,76	14,729
865,94	14,434
866,12	13,250
866,30	14,601
866,48	19,202
866,66	18,113
866,83	9,737
867,01	11,377
867,19	15,677
867,37	11,645
867,55	14,929
867,73	14,351
867,90	12,319
868,08	17,647
868,26	11,288
868,44	12,768
868,62	10,240
868,79	10,281
868,97	14,499
869,15	12,314
869,33	11,797
869,51	11,677
869,69	11,783
869,86	16,821
870,04	14,921
870,22	13,528
870,40	10,303
870,57	15,700
870,75	11,877
870,93	11,238
871,11	13,327
871,29	7,215
871,46	8,862
871,64	14,936
871,82	14,927
872,00	13,155
872,18	11,985
872,35	11,943
872,53	13,422
872,71	11,453
872,89	11,956
873,06	9,133
873,24	10,478
873,42	11,201
873,60	7,438
873,77	10,854
873,95	7,680
874,13	12,880
874,31	10,963
874,49	8,370
874,66	10,911
874,84	7,815
875,02	12,531
875,20	7,190
875,37	6,814
875,55	9,060
875,73	9,664
875,91	7,656
876,08	9,554
876,26	8,493
876,44	6,550
876,61	10,840
876,79	11,526
876,97	9,427
877,15	12,748
877,32	8,976
877,50	9,778
877,68	10,156
877,86	7,917
878,03	9,823
878,21	9,956
878,39	8,000
878,56	11,431
878,74	5,423
878,92	7,715
879,10	8,358
879,27	9,709
879,45	10,851
879,63	6,894
879,80	6,934
879,98	7,473
880,16	8,702
880,34	6,347
880,51	7,309
880,69	6,734
880,87	6,598
881,04	7,415
881,22	9,552
881,40	4,533
881,57	4,620
881,75	6,760
881,93	8,660
882,10	7,623
882,28	6,721
882,46	7,038
882,63	8,857
882,81	7,701
882,99	7,040
883,16	7,779
883,34	8,127
883,52	5,539
883,69	8,511
883,87	6,193
884,05	4,728
884,22	5,795
884,40	7,598
884,58	5,754
884,75	6,025
884,93	6,859
885,11	6,257
885,28	5,255
885,46	5,912
885,64	4,084
885,81	6,695
885,99	6,960
886,17	7,161
886,34	5,401
886,52	4,920
886,70	5,918
886,87	6,732
887,05	5,183
887,22	4,100
887,40	7,248
887,58	5,771
887,75	6,530
887,93	7,010
888,11	4,350
888,28	4,931
888,46	4,251
888,63	6,751
888,81	6,185
888,99	1,374
889,16	4,565
889,34	6,852
889,51	6,813
889,69	4,701
889,87	4,699
890,04	4,439
890,22	4,503
890,39	3,538
890,57	6,242
890,75	4,660
890,92	5,885
891,10	6,106
891,27	4,809
891,45	4,042
891,63	6,158
891,80	4,789
891,98	6,310
892,15	3,596
892,33	5,870
892,51	3,952
892,68	3,050
892,86	2,105
893,03	5,562
893,21	5,012
893,38	4,764
893,56	3,275
893,74	5,098
893,91	5,873
894,09	4,932
894,26	6,034
894,44	5,423
894,61	4,687
894,79	3,254
894,96	4,032
895,14	5,180
895,32	4,602
895,49	3,605
895,67	4,009
895,84	6,986
896,02	4,744
896,19	2,889
896,37	5,312
896,54	3,130
896,72	4,348
896,89	4,205
897,07	4,931
897,25	4,955
897,42	4,202
897,60	5,152
897,77	4,689
897,95	5,307
898,12	4,282
898,30	3,480
898,47	3,485
898,65	3,647
898,82	2,265
899,00	4,187
899,17	4,054
899,35	4,588
899,52	2,876
899,70	2,628
899,87	3,662
900,05	6,241
900,22	4,227
900,40	5,039
900,57	5,344
900,75	1,904
900,92	3,940
901,10	3,914
901,27	4,051
901,45	4,361
901,62	4,202
901,80	4,146
901,97	3,753
902,15	4,514
902,32	3,846
902,50	2,427
902,67	3,116
902,85	3,779
903,02	6,124
903,20	2,911
903,37	4,274
903,54	4,697
903,72	2,435
903,89	4,417
904,07	4,467
904,24	3,639
904,42	4,057
904,59	2,719
904,77	3,019
904,94	2,824
905,12	2,704
905,29	4,246
905,47	4,748
905,64	2,726
905,81	3,606
905,99	3,548
906,16	5,072
906,34	4,190
906,51	3,590
906,69	3,726
906,86	4,862
907,03	2,933
907,21	3,085
907,38	2,948
907,56	3,947
907,73	4,189
907,91	3,962
908,08	2,716
908,25	1,951
908,43	3,591
908,60	1,772
908,78	3,901
908,95	3,236
909,13	3,938
909,30	2,128
909,47	3,290
909,65	4,747
909,82	4,322
910,00	3,120
910,17	3,731
910,34	3,521
910,52	2,952
910,69	4,446
910,87	3,719
911,04	3,445
911,21	4,574
911,39	4,433
911,56	3,754
911,73	3,475
911,91	3,997
912,08	2,730
912,26	3,321
912,43	2,818
912,60	3,749
912,78	2,678
912,95	4,504
913,13	3,506
913,30	3,831
913,47	3,549
913,65	2,265
913,82	3,001
913,99	3,651
914,17	3,063
914,34	3,529
914,51	4,704
914,69	3,695
914,86	3,905
915,03	3,399
915,21	3,494
915,38	2,928
915,56	3,506
915,73	2,417
915,90	3,351
916,08	3,770
916,25	2,650
916,42	1,922
916,60	3,366
916,77	2,529
916,94	3,197
917,12	4,018
917,29	3,817
917,46	3,255
917,64	3,121
917,81	2,761
917,98	2,712
918,16	3,788
918,33	3,012
918,50	2,986
918,67	1,977
918,85	3,647
919,02	2,563
919,19	3,862
919,37	1,794
919,54	2,629
919,71	3,611
919,89	2,793
920,06	2,182
920,23	2,745
920,41	3,064
920,58	2,806
920,75	3,464
920,92	1,931
921,10	2,755
921,27	1,622
921,44	3,244
921,62	2,269
921,79	2,821
921,96	2,456
922,13	2,852
922,31	2,133
922,48	2,625
922,65	2,332
922,82	2,551
923,00	2,468
923,17	1,347
923,34	2,144
923,52	2,942
923,69	3,007
923,86	2,190
924,03	2,165
924,21	2,200
924,38	2,725
924,55	3,149
924,72	3,554
924,90	2,463
925,07	3,021
925,24	1,767
925,41	2,389
925,59	1,863
925,76	2,966
925,93	2,243
926,10	2,655
926,28	2,082
926,45	3,062
926,62	2,559
926,79	2,334
926,96	2,785
927,14	2,587
927,31	2,078
927,48	2,829
927,65	2,709
927,83	2,616
928,00	1,506
928,17	2,909
928,34	2,779
928,51	2,371
928,69	2,302
928,86	2,372
929,03	2,775
929,20	2,982
929,37	2,888
929,55	2,013
929,72	2,554
929,89	1,591
930,06	2,158
930,23	2,145
930,41	2,641
930,58	2,941
930,75	2,390
930,92	1,773
931,09	1,987
931,27	2,022
931,44	1,585
931,61	3,160
931,78	2,055
931,95	1,686
932,12	2,501
932,30	2,104
932,47	2,565
932,64	2,498
932,81	2,224
932,98	2,101
933,16	2,539
933,33	2,386
933,50	2,731
933,67	3,381
933,84	2,072
934,01	2,055
934,18	2,643
934,36	1,800
934,53	1,919
934,70	2,467
934,87	2,017
935,04	2,704
935,21	2,326
935,38	1,948
935,56	1,863
935,73	2,671
935,90	1,123
936,07	2,638
936,24	2,308
936,41	2,546
936,58	1,195
936,76	2,856
936,93	1,418
937,10	1,603
937,27	2,436
937,44	1,825
937,61	2,459
937,78	1,963
937,95	1,361
938,13	2,076
938,30	2,017
938,47	2,631
938,64	2,374
938,81	1,964
938,98	2,119
939,15	1,829
939,32	2,394
939,49	1,977
939,66	2,108
939,84	2,045
940,01	2,129
940,18	2,359
940,35	2,280
940,52	1,847
940,69	3,072
940,86	1,510
941,03	1,435
941,20	2,938
941,37	2,460
941,54	1,206
941,71	0,910
941,89	1,727
942,06	1,429
942,23	2,641
942,40	2,163
942,57	3,148
942,74	2,113
942,91	1,488
943,08	3,201
943,25	2,511
943,42	2,964
943,59	2,296
943,76	3,250
943,93	1,638
944,10	1,927
944,27	1,422
944,44	2,629
944,61	2,006
944,79	2,081
944,96	3,894
945,13	2,176
945,30	2,055
945,47	2,753
945,64	2,699
945,81	3,435
945,98	2,884
946,15	3,402
946,32	2,495
946,49	3,265
946,66	3,177
946,83	2,828
947,00	2,095
947,17	2,107
947,34	2,263
947,51	2,982
947,68	2,763
947,85	2,416
948,02	3,076
948,19	4,378
948,36	3,219
948,53	3,228
948,70	4,402
948,87	3,881
949,04	2,799
949,21	1,973
949,38	4,374
949,55	2,392
949,72	3,967
949,89	3,459
950,06	1,997
950,23	3,368
950,40	3,692
950,57	2,236
950,74	4,870
950,91	4,056
951,08	3,422
951,25	5,583
951,42	6,970
951,59	2,719
951,76	4,062
951,93	4,314
952,10	4,607
952,27	3,507
952,44	3,121
952,61	4,952
952,77	3,835
952,94	4,037
953,11	7,069
953,28	6,654
953,45	5,550
953,62	5,542
953,79	4,782
953,96	7,073
954,13	6,311
954,30	6,206
954,47	4,821
954,64	4,843
954,81	5,730
954,98	4,129
955,15	5,813
955,32	6,492
955,49	4,585
955,65	8,575
955,82	9,402
955,99	6,016
956,16	7,950
956,33	7,671
956,50	7,551
956,67	5,742
956,84	9,630
957,01	7,878
957,18	11,738
957,35	7,609
957,52	8,893
957,68	6,750
957,85	10,894
958,02	9,475
958,19	13,316
958,36	13,298
958,53	11,613
958,70	6,878
958,87	8,121
959,04	14,507
959,21	10,707
959,37	13,636
959,54	15,325
959,71	6,524
959,88	14,709
960,05	15,784
960,22	5,444
960,39	16,667
960,56	7,722
960,72	10,414
960,89	23,447
961,06	16,178
961,23	9,461
961,40	17,172
961,57	11,555
961,74	13,924
961,90	17,031
962,07	18,569
962,24	20,000
962,41	16,918
962,58	23,580
962,75	19,292
962,92	20,935
963,08	18,000
963,25	20,901
963,42	12,802
963,59	24,380
963,76	24,270
963,93	21,053
964,10	28,051
964,26	26,974
964,43	27,649
964,60	28,238
964,77	29,398
964,94	30,398
965,10	33,631
965,27	33,159
965,44	28,571
965,61	25,620
965,78	22,045
965,95	35,629
966,11	40,248
966,28	28,625
966,45	35,514
966,62	47,077
966,79	46,531
966,95	41,194
967,12	42,587
967,29	47,222
967,46	29,167
967,63	29,057
967,79	61,712
967,96	48,918
968,13	35,500
968,30	35,887
968,47	50,515
968,63	57,207
968,80	65,138
968,97	58,173
969,14	55,814
969,31	57,222
969,47	50,000
969,64	59,596
969,81	35,233
969,98	75,824
970,14	73,620
970,31	72,956
970,48	70,833
970,65	93,491
970,81	65,753
970,98	95,620
971,15	101,020
971,32	56,250
971,48	84,354
971,65	92,308
971,82	110,784
971,99	142,529
972,15	94,366
972,32	85,586
972,49	76,224
972,66	166,364
972,82	131,395
972,99	104,065
973,16	122,989
973,33	96,429
973,49	93,684
973,66	82,796
973,83	133,981
974,00	146,512
974,16	117,647
974,33	149,123
974,50	121,053
974,67	177,895
974,83	133,333
975,00	145,263
975,17	128,571
975,33	153,933
975,50	144,776
975,67	293,878
975,84	173,134
976,00	104,494
976,17	190,164
976,34	92,000
976,50	138,202
976,67	140,777
976,84	2733,333
977,00	148,980
977,17	244,444
977,34	190,110
977,50	135,821
977,67	226,786
977,84	209,677
978,01	206,383
978,17	811,111
978,34	341,667
978,51	223,529
978,67	176,316
978,84	140,625
979,01	337,838
979,17	164,103
979,34	111,644
979,51	255,102
979,67	179,012
979,84	297,959
980,01	262,222
980,17	245,070
980,34	533,333
980,51	175,362
980,67	172,941
980,84	366,667
981,01	685,000
981,17	612,000
981,34	1066,667
981,50	202,941
981,67	235,593
981,84	6600,000
982,00	376,667
982,17	190,476
982,34	143,333
982,50	766,667
982,67	170,833
982,84	2220,000
983,00	1316,667
983,17	229,851
983,33	160,345
983,50	1820,000
983,67	-317,241
983,83	360,606
984,00	-1900,000
984,17	816,667
984,33	-6150,000
984,50	354,286
984,66	269,565
984,83	196,104
985,00	-366,667
985,16	568,966
985,33	800,000
985,49	705,556
985,66	294,118
985,83	339,130
985,99	423,077
986,16	-3300,000
986,32	785,714
986,49	10600,000
986,66	484,848
986,82	908,333
986,99	326,415
987,15	-489,474
987,32	-203,571
987,49	234,000
987,65	6950,000
987,82	283,333
987,98	267,347
988,15	510,000
988,31	1030,000
988,48	-1833,333
988,65	369,048
988,81	350,000
988,98	292,683
989,14	285,714
989,31	528,571
989,47	326,471
989,64	-830,769
989,80	762,500
989,97	335,135
990,14	-378,261
990,30	-481,818
990,47	385,714
990,63	277,778
990,80	210,000
990,96	-665,000
991,13	437,500
991,29	472,414
991,46	0,000
991,62	-976,923
991,79	675,000
991,95	10600,000
992,12	-1650,000
992,29	-731,250
992,45	157,647
992,62	269,767
992,78	265,909
992,95	-520,000
993,11	410,714
993,28	1260,000
993,44	-1350,000
993,61	-731,250
993,77	-3000,000
993,94	-4300,000
994,10	-122,667
994,27	868,421
994,43	325,581
994,60	0,000
994,76	3100,000
994,93	665,000
995,09	-635,294
995,26	1244,444
995,42	264,706
995,59	552,381
995,75	938,462
995,92	1571,429
996,08	441,667
996,25	-1637,500
996,41	-6250,000
996,58	753,333
996,74	277,273
996,91	586,207
997,07	0,000
997,23	15200,000
997,40	-16900,000
997,56	-930,769
997,73	-1600,000
997,89	436,842
998,06	1061,538
998,22	-627,778
998,39	548,000
998,55	1566,667
998,72	-1700,000
998,88	-366,667
999,05	-155,128
999,21	328,571
999,37	-460,000
999,54	-1066,667
999,70	-430,000
999,87	693,750
1000,03	428,205
1000,20	302,083
1000,36	0,000
1000,52	504,167
1000,69	-542,857
1000,85	-940,000
1001,02	-608,333
1001,18	2875,000
1001,35	830,769
1001,51	976,471
1001,67	-1353,846
1001,84	-2900,000
1002,00	327,027
1002,17	1054,545
1002,33	-2875,000
1002,50	400,000
1002,66	-953,846
1002,82	420,000
1002,99	1228,571
1003,15	-2142,857
1003,32	-981,818
1003,48	382,143
1003,64	946,667
1003,81	544,444
1003,97	-5500,000
1004,14	1281,818
1004,30	400,000
1004,46	-820,000
1004,63	1035,714
1004,79	300,000
1004,95	853,333
1005,12	4950,000
1005,28	503,448
1005,45	443,243
1005,61	386,207
1005,77	-314,583
1005,94	-585,714
1006,10	-5600,000
1006,26	1115,385
1006,43	-338,462
1006,59	-1254,545
1006,76	700,000
1006,92	1544,444
1007,08	12900,000
1007,25	-303,704
1007,41	389,655
1007,57	5000,000
1007,74	1270,000
1007,90	-479,310
1008,06	308,696
1008,23	752,941
1008,39	-768,750
1008,55	-438,462
1008,72	-1785,714
1008,88	0,000
1009,04	412,195
1009,21	-323,684
1009,37	-866,667
1009,53	302,381
1009,70	3133,333
1009,86	-578,571
1010,02	3933,333
1010,19	1081,818
1010,35	239,706
1010,51	-5600,000
1010,68	-1325,000
1010,84	-247,727
1011,00	662,500
1011,17	-400,000
1011,33	0,000
1011,49	-946,667
1011,66	957,143
1011,82	461,290
1011,98	907,143
1012,14	-772,727
1012,31	382,051
1012,47	0,000
1012,63	1900,000
1012,80	900,000
1012,96	-950,000
1013,12	-1566,667
1013,29	538,889
1013,45	436,585
1013,61	4800,000
1013,77	-157,143
1013,94	1960,000
1014,10	203,390
1014,26	-3400,000
1014,43	-444,000
1014,59	555,000
1014,75	-516,667
1014,91	-686,667
1015,08	383,333
1015,24	11400,000
1015,40	923,529
1015,56	-14800,000
1015,73	261,905
1015,89	854,545
1016,05	3100,000
1016,21	-1275,000
1016,38	863,158
1016,54	1453,846
1016,70	-3366,667
1016,86	337,500
1017,03	1143,750
1017,19	-761,538
1017,35	-711,765
1017,51	-1980,000
1017,68	-500,000
1017,84	-2142,857
1018,00	373,810
1018,16	434,615
1018,33	-1471,429
1018,49	-1225,000
1018,65	-286,486
1018,81	305,128
1018,97	-1585,714
1019,14	-3933,333
1019,30	-369,231
1019,46	0,000
1019,62	-517,647
1019,79	-3766,667
1019,95	1008,333
1020,11	6100,000
1020,27	-411,111
1020,43	-388,462
1020,60	1983,333
1020,76	838,889
1020,92	926,667
1021,08	715,000
1021,24	1410,000
1021,41	1400,000
1021,57	2150,000
1021,73	1107,692
1021,89	2540,000
1022,05	-460,714
1022,21	810,000
1022,38	-766,667
1022,54	-2300,000
1022,70	311,111
1022,86	-1512,500
1023,02	441,667
1023,19	2380,000
1023,35	4700,000
1023,51	408,333
1023,67	437,037
1023,83	-725,000
1023,99	271,053
1024,16	-503,846
1024,32	-1088,889
1024,48	-860,000
1024,64	354,762
1024,80	478,261
1024,96	330,769
1025,12	376,190
1025,29	552,381
1025,45	350,000
1025,61	1144,444
1025,77	-2740,000
1025,93	-9700,000
1026,09	-1971,429
1026,26	1133,333
1026,42	843,750
1026,58	400,000
1026,74	2250,000
1026,90	364,000
1027,06	378,571
1027,22	885,714
1027,38	286,538
1027,55	4233,333
1027,71	1250,000
1027,87	-356,000
1028,03	1100,000
1028,19	371,875
1028,35	650,000
1028,51	1240,000
1028,67	866,667
1028,83	-3025,000
1029,00	-321,429
1029,16	1020,000
1029,32	-339,286
1029,48	262,222
1029,64	380,556
1029,80	5800,000
1029,96	726,667
1030,12	617,391
1030,28	-2733,333
1030,44	-807,692
1030,61	-508,333
1030,77	-242,857
1030,93	-926,667
1031,09	1800,000
1031,25	-9800,000
1031,41	-426,667
1031,57	384,615
1031,73	506,250
1031,89	-1127,273
1032,05	-448,148
1032,21	936,364
1032,37	-162,963
1032,53	-1021,429
1032,69	-433,333
1032,86	425,926
1033,02	-115,000
1033,18	-706,250
1033,34	547,368
1033,50	-6000,000
1033,66	-263,415
1033,82	434,783
1033,98	-451,852
1034,14	184,615
1034,30	383,871
1034,46	-4133,333
1034,62	785,000
1034,78	-600,000
1034,94	292,105
1035,10	-938,462
1035,26	-206,977
1035,42	-306,897
1035,58	-488,889
1035,74	866,667
1035,90	-830,769
1036,06	-1433,333
1036,22	1850,000
1036,38	-747,059
1036,54	-629,167
1036,70	-209,091
1036,86	11600,000
1037,02	616,667
1037,18	810,526
1037,34	170,476
1037,50	-187,805
1037,66	-788,235
1037,82	2260,000
1037,98	-400,000
1038,14	-312,000
1038,30	-1300,000
1038,46	-714,286
1038,62	495,652
1038,78	-4300,000
1038,94	-363,158
1039,10	513,636
1039,26	437,037
1039,42	-808,333
1039,58	1742,857
1039,74	-673,684
1039,90	350,000
1040,06	-388,462
>>>>>End Processed Spectral Data<<<<<
