SpectraSuite Data File
++++++++++++++++++++++++++++++++++++
Date: Wed Feb 01 15:51:25 EET 2017
User: optolab
Dark Spectrum Present: Yes
Reference Spectrum Present: Yes
Number of Sampled Component Spectra: 1
Spectrometers: USB4C02475
Integration Time (usec): 100000 (USB4C02475)
Spectra Averaged: 1 (USB4C02475)
Boxcar Smoothing: 0 (USB4C02475)
Correct for Electrical Dark: No (USB4C02475)
Strobe/Lamp Enabled: No (USB4C02475)
Correct for Detector Non-linearity: No (USB4C02475)
Correct for Stray Light: No (USB4C02475)
Number of Pixels in Processed Spectrum: 3648
>>>>>Begin Processed Spectral Data<<<<<
344,91	2900,000
345,13	2900,000
345,35	2900,000
345,57	0,000
345,79	415,789
346,00	-1255,556
346,22	-1742,857
346,44	270,588
346,66	-587,500
346,87	-8900,000
347,09	393,939
347,31	-327,273
347,53	-307,692
347,74	221,538
347,96	466,667
348,18	652,632
348,40	364,516
348,61	1023,529
348,83	402,381
349,05	217,647
349,27	-2550,000
349,48	592,308
349,70	-248,276
349,92	422,581
350,14	326,415
350,35	344,000
350,57	2550,000
350,79	540,000
351,01	-900,000
351,22	290,741
351,44	776,923
351,66	-440,000
351,87	-533,333
352,09	211,538
352,31	219,672
352,53	262,500
352,74	363,889
352,96	225,974
353,18	647,368
353,40	324,000
353,61	282,222
353,83	350,000
354,05	1109,091
354,26	2050,000
354,48	250,000
354,70	372,727
354,92	-289,655
355,13	201,010
355,35	256,818
355,57	516,667
355,78	167,470
356,00	-3475,000
356,22	419,231
356,44	5100,000
356,65	356,818
356,87	507,692
357,09	516,667
357,30	346,667
357,52	258,621
357,74	780,000
357,95	328,205
358,17	178,689
358,39	258,065
358,60	327,027
358,82	404,167
359,04	511,111
359,26	431,429
359,47	10400,000
359,69	277,500
359,91	396,970
360,12	395,238
360,34	558,333
360,56	-133,333
360,77	2775,000
360,99	595,238
361,21	302,000
361,42	4250,000
361,64	171,429
361,86	289,231
362,07	-470,968
362,29	230,667
362,51	-741,176
362,72	504,000
362,94	423,529
363,16	290,698
363,37	-842,857
363,59	396,154
363,81	309,091
364,02	750,000
364,24	583,333
364,46	3533,333
364,67	872,727
364,89	2157,143
365,11	187,143
365,32	500,000
365,54	300,000
365,76	295,918
365,97	388,235
366,19	170,690
366,41	509,091
366,62	351,852
366,84	244,186
367,05	359,184
367,27	1833,333
367,49	-676,923
367,70	635,294
367,92	198,361
368,14	295,833
368,35	-10700,000
368,57	516,000
368,79	472,414
369,00	317,391
369,22	-1262,500
369,43	261,176
369,65	314,516
369,87	429,730
370,08	127,711
370,30	273,214
370,51	231,148
370,73	215,556
370,95	266,129
371,16	226,190
371,38	316,667
371,60	1537,500
371,81	150,000
372,03	840,000
372,24	466,667
372,46	288,679
372,68	168,571
372,89	421,212
373,11	461,538
373,32	406,818
373,54	-830,769
373,76	876,923
373,97	753,333
374,19	554,545
374,40	257,812
374,62	-2400,000
374,84	4250,000
375,05	400,000
375,27	392,000
375,48	-8900,000
375,70	170,667
375,92	232,143
376,13	403,125
376,35	227,397
376,56	1018,750
376,78	255,556
376,99	285,714
377,21	335,417
377,43	234,848
377,64	186,957
377,86	444,828
378,07	361,538
378,29	-1837,500
378,51	406,452
378,72	195,833
378,94	-933,333
379,15	336,364
379,37	700,000
379,58	267,692
379,80	886,667
380,01	643,750
380,23	331,373
380,45	1940,000
380,66	3300,000
380,88	379,545
381,09	174,286
381,31	185,556
381,52	331,373
381,74	1333,333
381,95	500,000
382,17	419,231
382,39	557,143
382,60	224,490
382,82	410,256
383,03	269,231
383,25	390,323
383,46	338,636
383,68	377,778
383,89	675,000
384,11	309,677
384,32	-3500,000
384,54	522,222
384,76	-3800,000
384,97	412,121
385,19	406,897
385,40	245,098
385,62	170,175
385,83	292,857
386,05	278,431
386,26	344,000
386,48	218,391
386,69	350,000
386,91	515,000
387,12	208,475
387,34	227,586
387,55	187,097
387,77	503,125
387,98	507,692
388,20	211,957
388,41	364,706
388,63	7200,000
388,84	213,115
389,06	314,286
389,27	584,211
389,49	244,444
389,70	193,878
389,92	366,667
390,13	263,265
390,35	315,686
390,56	185,185
390,78	407,407
390,99	1250,000
391,21	763,158
391,42	306,667
391,64	329,268
391,85	218,966
392,07	179,545
392,28	120,000
392,50	300,000
392,71	-1187,500
392,93	211,538
393,14	419,444
393,36	240,816
393,57	140,602
393,79	1244,444
394,00	331,915
394,22	164,384
394,43	155,422
394,65	248,837
394,86	1537,500
395,08	733,333
395,29	241,509
395,50	500,000
395,72	705,556
395,93	738,095
396,15	197,183
396,36	235,294
396,58	183,333
396,79	302,500
397,01	266,000
397,22	294,444
397,44	168,182
397,65	112,281
397,87	226,190
398,08	220,408
398,29	325,000
398,51	239,286
398,72	268,293
398,94	180,000
399,15	342,857
399,37	228,070
399,58	179,121
399,80	504,545
400,01	209,259
400,22	419,048
400,44	161,728
400,65	542,857
400,87	195,588
401,08	122,857
401,30	202,174
401,51	219,298
401,72	207,692
401,94	120,253
402,15	490,000
402,37	158,824
402,58	711,111
402,80	188,571
403,01	260,563
403,22	1072,727
403,44	175,362
403,65	246,429
403,87	212,857
404,08	387,179
404,30	188,235
404,51	-2333,333
404,72	181,429
404,94	148,039
405,15	172,000
405,37	177,215
405,58	202,353
405,79	160,976
406,01	273,171
406,22	215,517
406,44	163,830
406,65	198,246
406,86	210,417
407,08	167,089
407,29	146,602
407,51	167,073
407,72	149,074
407,93	140,217
408,15	85,470
408,36	255,814
408,58	146,392
408,79	63,333
409,00	146,875
409,22	192,063
409,43	150,633
409,64	72,671
409,86	73,585
410,07	76,154
410,29	73,134
410,50	112,057
410,71	118,750
410,93	67,516
411,14	112,403
411,35	72,619
411,57	63,816
411,78	104,688
412,00	80,892
412,21	96,129
412,42	88,889
412,64	71,674
412,85	45,361
413,06	66,463
413,28	57,658
413,49	44,076
413,70	57,246
413,92	61,265
414,13	33,195
414,34	51,341
414,56	42,308
414,77	64,979
414,98	38,591
415,20	51,211
415,41	45,042
415,63	43,284
415,84	39,444
416,05	33,516
416,27	30,233
416,48	37,079
416,69	31,195
416,91	22,432
417,12	22,727
417,33	32,632
417,55	26,358
417,76	26,489
417,97	23,651
418,19	21,869
418,40	22,340
418,61	22,593
418,83	21,636
419,04	18,454
419,25	18,536
419,46	23,308
419,68	21,429
419,89	15,499
420,10	24,490
420,32	17,559
420,53	17,490
420,74	20,966
420,96	15,500
421,17	15,012
421,38	20,022
421,60	16,336
421,81	15,034
422,02	16,823
422,23	17,934
422,45	19,779
422,66	27,303
422,87	29,730
423,09	33,360
423,30	35,862
423,51	43,780
423,73	49,737
423,94	48,179
424,15	53,946
424,36	61,603
424,58	63,625
424,79	75,515
425,00	81,053
425,22	87,229
425,43	93,653
425,64	90,215
425,85	97,769
426,07	100,518
426,28	97,015
426,49	94,820
426,71	94,366
426,92	93,496
427,13	93,582
427,34	96,066
427,56	102,372
427,77	94,507
427,98	97,722
428,19	97,616
428,41	97,882
428,62	99,446
428,83	98,712
429,04	97,774
429,26	96,665
429,47	96,515
429,68	98,546
429,89	98,106
430,11	98,940
430,32	97,914
430,53	95,682
430,74	100,168
430,96	99,133
431,17	98,872
431,38	100,458
431,59	98,490
431,81	98,396
432,02	96,288
432,23	98,385
432,44	98,313
432,66	99,639
432,87	100,000
433,08	96,444
433,29	95,120
433,51	94,165
433,72	97,268
433,93	94,527
434,14	94,220
434,35	95,853
434,57	93,196
434,78	96,212
434,99	94,751
435,20	92,382
435,42	94,756
435,63	92,789
435,84	95,583
436,05	92,189
436,26	95,966
436,48	95,219
436,69	96,467
436,90	95,182
437,11	94,598
437,32	95,663
437,54	94,760
437,75	95,400
437,96	95,154
438,17	93,239
438,38	95,773
438,60	94,139
438,81	93,696
439,02	96,529
439,23	94,527
439,44	93,716
439,66	95,496
439,87	94,633
440,08	94,858
440,29	94,446
440,50	94,640
440,72	94,080
440,93	95,410
441,14	94,534
441,35	95,734
441,56	94,651
441,77	94,510
441,99	95,256
442,20	95,270
442,41	95,210
442,62	95,743
442,83	94,656
443,04	94,901
443,26	94,759
443,47	95,777
443,68	95,063
443,89	94,128
444,10	95,184
444,31	96,118
444,53	95,018
444,74	96,382
444,95	95,768
445,16	97,083
445,37	96,774
445,58	96,521
445,80	96,216
446,01	97,387
446,22	97,311
446,43	97,117
446,64	97,738
446,85	97,925
447,06	98,199
447,28	96,924
447,49	97,214
447,70	96,580
447,91	97,303
448,12	96,521
448,33	95,867
448,54	97,629
448,76	95,048
448,97	95,197
449,18	94,566
449,39	92,915
449,60	94,163
449,81	93,938
450,02	94,882
450,23	94,682
450,45	94,559
450,66	95,189
450,87	96,390
451,08	96,952
451,29	96,744
451,50	97,105
451,71	96,986
451,92	96,783
452,13	97,121
452,35	97,697
452,56	96,440
452,77	96,684
452,98	94,316
453,19	96,261
453,40	94,926
453,61	95,459
453,82	93,726
454,03	94,762
454,25	94,459
454,46	94,471
454,67	93,224
454,88	93,465
455,09	93,516
455,30	91,934
455,51	92,524
455,72	90,259
455,93	89,206
456,14	87,731
456,35	88,046
456,56	84,348
456,78	82,677
456,99	80,898
457,20	78,832
457,41	75,908
457,62	74,268
457,83	71,082
458,04	69,300
458,25	67,503
458,46	64,428
458,67	61,551
458,88	58,531
459,09	54,391
459,30	49,363
459,51	43,295
459,73	35,966
459,94	29,045
460,15	21,761
460,36	15,575
460,57	10,572
460,78	6,453
460,99	3,948
461,20	2,544
461,41	1,813
461,62	1,339
461,83	1,158
462,04	1,080
462,25	1,052
462,46	0,842
462,67	0,698
462,88	0,734
463,09	0,976
463,30	0,828
463,51	1,024
463,72	0,926
463,93	0,809
464,15	0,767
464,36	0,772
464,57	0,589
464,78	0,757
464,99	0,686
465,20	0,701
465,41	0,768
465,62	0,633
465,83	0,631
466,04	0,636
466,25	0,686
466,46	0,604
466,67	0,525
466,88	0,680
467,09	0,824
467,30	0,674
467,51	0,699
467,72	0,753
467,93	0,662
468,14	0,716
468,35	0,573
468,56	0,600
468,77	0,672
468,98	0,816
469,19	0,634
469,40	0,680
469,61	0,770
469,82	0,547
470,03	0,851
470,24	0,894
470,45	0,787
470,66	0,572
470,87	0,563
471,08	0,704
471,29	0,764
471,50	0,717
471,71	0,649
471,92	0,692
472,13	0,738
472,34	0,672
472,55	0,798
472,76	0,856
472,97	0,673
473,18	0,654
473,39	0,743
473,60	0,635
473,81	0,680
474,01	0,762
474,22	0,797
474,43	0,898
474,64	0,761
474,85	0,656
475,06	0,627
475,27	0,638
475,48	0,765
475,69	0,619
475,90	0,786
476,11	0,816
476,32	0,622
476,53	0,816
476,74	0,927
476,95	0,725
477,16	0,776
477,37	0,790
477,58	0,763
477,79	0,937
478,00	0,751
478,21	0,705
478,41	0,938
478,62	0,459
478,83	0,714
479,04	1,048
479,25	0,696
479,46	0,689
479,67	0,904
479,88	1,033
480,09	0,848
480,30	0,899
480,51	1,058
480,72	0,986
480,93	0,942
481,14	0,815
481,34	0,686
481,55	0,740
481,76	0,695
481,97	0,931
482,18	0,809
482,39	0,847
482,60	0,825
482,81	0,793
483,02	0,649
483,23	0,780
483,44	0,868
483,65	0,896
483,85	0,714
484,06	0,674
484,27	0,735
484,48	0,762
484,69	0,818
484,90	1,050
485,11	0,853
485,32	0,847
485,53	0,885
485,73	0,926
485,94	0,814
486,15	0,855
486,36	0,603
486,57	0,957
486,78	1,015
486,99	0,857
487,20	0,760
487,41	0,815
487,61	0,792
487,82	0,803
488,03	0,790
488,24	0,935
488,45	0,774
488,66	1,002
488,87	0,782
489,08	0,933
489,28	0,892
489,49	1,197
489,70	0,879
489,91	1,098
490,12	1,122
490,33	0,960
490,54	0,882
490,74	1,087
490,95	1,120
491,16	1,046
491,37	1,090
491,58	0,883
491,79	1,153
492,00	1,274
492,20	0,966
492,41	1,029
492,62	0,886
492,83	1,177
493,04	1,316
493,25	1,337
493,45	1,385
493,66	1,806
493,87	2,169
494,08	3,425
494,29	4,984
494,50	7,773
494,70	11,438
494,91	16,275
495,12	21,602
495,33	27,433
495,54	33,853
495,75	40,325
495,95	44,945
496,16	50,192
496,37	54,528
496,58	57,153
496,79	59,504
496,99	60,457
497,20	62,482
497,41	63,884
497,62	65,565
497,83	68,483
498,04	70,744
498,24	74,621
498,45	78,256
498,66	82,115
498,87	85,010
499,08	87,000
499,28	90,587
499,49	90,749
499,70	91,883
499,91	92,508
500,12	91,521
500,32	91,269
500,53	91,483
500,74	90,373
500,95	89,779
501,15	90,081
501,36	89,758
501,57	90,359
501,78	89,866
501,99	90,888
502,19	91,414
502,40	92,408
502,61	93,646
502,82	93,461
503,02	94,350
503,23	95,032
503,44	95,980
503,65	95,373
503,86	95,071
504,06	95,925
504,27	96,418
504,48	96,084
504,69	96,018
504,89	95,396
505,10	95,333
505,31	95,057
505,52	95,022
505,72	95,266
505,93	95,973
506,14	95,783
506,35	96,505
506,55	96,664
506,76	96,463
506,97	97,376
507,18	98,553
507,38	98,847
507,59	96,929
507,80	97,808
508,01	96,345
508,21	95,894
508,42	97,393
508,63	96,577
508,84	96,522
509,04	96,103
509,25	96,565
509,46	95,874
509,67	95,133
509,87	96,661
510,08	95,813
510,29	96,221
510,49	96,239
510,70	95,891
510,91	95,905
511,12	96,172
511,32	95,979
511,53	95,786
511,74	95,304
511,94	95,901
512,15	94,364
512,36	96,123
512,57	96,414
512,77	97,406
512,98	96,847
513,19	96,898
513,39	97,901
513,60	97,793
513,81	98,613
514,01	97,641
514,22	97,942
514,43	97,837
514,64	97,361
514,84	97,914
515,05	97,503
515,26	97,051
515,46	97,831
515,67	96,692
515,88	96,435
516,08	95,717
516,29	95,496
516,50	94,788
516,70	94,808
516,91	93,784
517,12	94,167
517,32	95,048
517,53	93,975
517,74	94,488
517,95	93,838
518,15	93,744
518,36	93,791
518,57	94,033
518,77	95,566
518,98	95,176
519,19	95,147
519,39	94,298
519,60	94,897
519,80	96,432
520,01	95,534
520,22	95,999
520,42	96,140
520,63	94,961
520,84	94,665
521,04	94,907
521,25	94,576
521,46	94,376
521,66	94,714
521,87	94,229
522,08	94,457
522,28	93,655
522,49	94,085
522,70	93,791
522,90	94,335
523,11	95,670
523,31	95,773
523,52	96,117
523,73	97,141
523,93	96,381
524,14	96,779
524,35	96,466
524,55	96,564
524,76	96,104
524,97	96,157
525,17	97,342
525,38	95,656
525,58	96,215
525,79	96,132
526,00	96,787
526,20	96,264
526,41	97,162
526,61	97,894
526,82	98,517
527,03	97,423
527,23	96,555
527,44	96,273
527,64	96,521
527,85	96,970
528,06	96,056
528,26	95,257
528,47	94,868
528,68	94,662
528,88	94,151
529,09	94,850
529,29	94,717
529,50	95,912
529,70	96,634
529,91	95,549
530,12	95,724
530,32	95,424
530,53	96,351
530,73	96,069
530,94	98,157
531,15	97,191
531,35	97,418
531,56	97,587
531,76	97,354
531,97	97,261
532,17	98,434
532,38	96,492
532,59	96,589
532,79	97,445
533,00	96,995
533,20	96,955
533,41	95,776
533,61	95,715
533,82	94,711
534,03	93,743
534,23	94,644
534,44	94,117
534,64	91,549
534,85	91,862
535,05	92,214
535,26	92,059
535,46	91,209
535,67	91,443
535,88	90,694
536,08	89,079
536,29	88,616
536,49	87,708
536,70	85,801
536,90	84,613
537,11	83,194
537,31	81,043
537,52	80,202
537,72	79,488
537,93	77,216
538,13	75,330
538,34	76,535
538,55	76,326
538,75	76,122
538,96	75,937
539,16	75,439
539,37	75,566
539,57	75,968
539,78	74,148
539,98	72,190
540,19	69,161
540,39	65,811
540,60	61,424
540,80	56,460
541,01	50,947
541,21	45,907
541,42	38,082
541,62	31,580
541,83	25,456
542,03	19,355
542,24	14,118
542,44	9,895
542,65	7,329
542,85	5,029
543,06	4,016
543,26	2,834
543,47	2,202
543,67	1,976
543,88	1,854
544,08	1,387
544,29	1,543
544,49	1,252
544,70	1,183
544,90	1,490
545,11	1,133
545,31	1,332
545,52	1,088
545,72	1,349
545,93	1,087
546,13	1,331
546,34	1,043
546,54	1,195
546,75	1,107
546,95	1,111
547,15	1,160
547,36	1,130
547,56	1,222
547,77	1,132
547,97	1,180
548,18	1,086
548,38	1,125
548,59	1,146
548,79	1,011
549,00	0,895
549,20	1,054
549,41	1,031
549,61	1,179
549,81	1,082
550,02	1,297
550,22	1,115
550,43	0,949
550,63	1,116
550,84	1,004
551,04	1,071
551,25	1,146
551,45	1,048
551,65	1,057
551,86	1,209
552,06	1,277
552,27	1,030
552,47	1,247
552,68	1,217
552,88	0,994
553,08	0,946
553,29	1,134
553,49	0,981
553,70	1,121
553,90	0,788
554,11	1,040
554,31	1,061
554,51	0,965
554,72	0,985
554,92	1,098
555,13	1,081
555,33	1,245
555,53	1,063
555,74	1,012
555,94	1,133
556,15	0,899
556,35	0,898
556,56	1,060
556,76	1,126
556,96	0,882
557,17	1,166
557,37	1,058
557,58	1,059
557,78	0,867
557,98	0,952
558,19	0,998
558,39	1,029
558,59	1,045
558,80	1,116
559,00	0,949
559,21	0,929
559,41	0,805
559,61	0,927
559,82	1,003
560,02	0,935
560,23	1,023
560,43	0,872
560,63	1,118
560,84	1,033
561,04	1,017
561,24	0,964
561,45	0,866
561,65	0,849
561,85	1,182
562,06	1,064
562,26	0,767
562,47	0,983
562,67	0,921
562,87	1,030
563,08	0,970
563,28	0,931
563,48	1,057
563,69	0,933
563,89	0,967
564,09	0,978
564,30	0,965
564,50	1,054
564,70	1,108
564,91	1,114
565,11	0,851
565,31	0,950
565,52	1,066
565,72	0,944
565,92	1,107
566,13	0,875
566,33	0,936
566,53	0,874
566,74	1,071
566,94	1,024
567,14	0,869
567,35	0,902
567,55	1,019
567,75	1,114
567,96	0,998
568,16	0,855
568,36	1,021
568,57	1,192
568,77	1,079
568,97	1,001
569,18	1,211
569,38	1,164
569,58	1,024
569,79	1,136
569,99	1,158
570,19	1,259
570,39	1,365
570,60	1,133
570,80	1,325
571,00	1,422
571,21	1,403
571,41	1,775
571,61	2,056
571,82	2,415
572,02	3,358
572,22	4,546
572,42	6,277
572,63	8,706
572,83	11,825
573,03	16,023
573,24	21,629
573,44	27,269
573,64	34,751
573,84	42,143
574,05	49,652
574,25	56,927
574,45	63,170
574,66	68,705
574,86	73,776
575,06	76,476
575,26	78,713
575,47	80,379
575,67	81,144
575,87	83,204
576,07	83,459
576,28	83,338
576,48	84,104
576,68	83,835
576,88	84,063
577,09	84,823
577,29	85,499
577,49	87,330
577,69	86,853
577,90	87,272
578,10	87,340
578,30	87,250
578,50	88,937
578,71	88,104
578,91	88,591
579,11	88,928
579,31	88,907
579,52	90,431
579,72	89,733
579,92	90,050
580,12	91,918
580,33	92,926
580,53	93,517
580,73	93,729
580,93	94,178
581,13	95,333
581,34	95,867
581,54	94,442
581,74	95,661
581,94	96,164
582,15	95,047
582,35	94,331
582,55	92,989
582,75	93,012
582,95	93,057
583,16	93,538
583,36	91,564
583,56	92,174
583,76	92,130
583,96	92,300
584,17	93,604
584,37	93,946
584,57	93,534
584,77	93,696
584,97	94,907
585,18	95,114
585,38	96,430
585,58	96,063
585,78	96,138
585,98	95,841
586,19	96,696
586,39	96,994
586,59	98,254
586,79	97,740
586,99	97,932
587,20	96,971
587,40	97,944
587,60	97,507
587,80	97,389
588,00	97,331
588,20	97,140
588,41	98,973
588,61	97,502
588,81	97,634
589,01	98,043
589,21	97,078
589,41	96,832
589,62	97,596
589,82	98,176
590,02	97,831
590,22	97,718
590,42	98,445
590,62	98,334
590,83	96,860
591,03	97,036
591,23	97,534
591,43	96,374
591,63	96,160
591,83	97,213
592,03	96,074
592,24	96,271
592,44	96,369
592,64	95,940
592,84	96,933
593,04	96,023
593,24	96,069
593,44	96,990
593,65	97,105
593,85	97,251
594,05	96,520
594,25	96,992
594,45	96,691
594,65	96,438
594,85	96,957
595,06	97,089
595,26	96,422
595,46	97,044
595,66	96,101
595,86	95,703
596,06	96,131
596,26	96,523
596,46	96,367
596,66	96,323
596,87	95,676
597,07	96,806
597,27	97,123
597,47	97,415
597,67	97,090
597,87	96,926
598,07	96,404
598,27	96,897
598,47	97,261
598,67	97,694
598,88	98,123
599,08	96,701
599,28	96,895
599,48	97,198
599,68	97,260
599,88	97,064
600,08	96,433
600,28	97,290
600,48	97,783
600,68	96,440
600,88	96,380
601,09	96,118
601,29	95,024
601,49	96,213
601,69	95,593
601,89	94,924
602,09	95,095
602,29	94,868
602,49	94,445
602,69	95,308
602,89	94,665
603,09	95,482
603,29	95,126
603,49	95,284
603,69	94,091
603,90	94,167
604,10	93,902
604,30	94,369
604,50	94,681
604,70	93,688
604,90	94,992
605,10	94,464
605,30	94,515
605,50	94,368
605,70	95,077
605,90	94,462
606,10	94,330
606,30	93,558
606,50	94,079
606,70	94,470
606,90	92,800
607,10	92,464
607,30	91,519
607,50	90,444
607,70	88,714
607,90	88,108
608,10	86,584
608,30	85,174
608,50	85,629
608,70	83,415
608,90	83,502
609,11	82,947
609,31	82,073
609,51	83,186
609,71	83,054
609,91	84,417
610,11	84,632
610,31	85,005
610,51	85,216
610,71	87,081
610,91	86,220
611,11	85,898
611,31	85,606
611,51	83,677
611,71	81,574
611,91	80,014
612,11	76,991
612,31	73,993
612,51	69,131
612,71	65,073
612,91	61,201
613,11	56,103
613,31	52,182
613,51	47,093
613,71	41,992
613,91	36,948
614,11	31,567
614,31	26,986
614,50	22,318
614,70	17,328
614,90	13,773
615,10	10,220
615,30	7,591
615,50	5,402
615,70	3,953
615,90	3,163
616,10	2,393
616,30	2,088
616,50	1,643
616,70	1,365
616,90	1,329
617,10	1,117
617,30	0,956
617,50	1,180
617,70	1,020
617,90	1,015
618,10	0,991
618,30	0,800
618,50	1,037
618,70	0,816
618,90	0,791
619,10	0,866
619,30	1,056
619,49	0,911
619,69	0,958
619,89	0,776
620,09	0,892
620,29	1,038
620,49	0,884
620,69	0,884
620,89	0,877
621,09	0,901
621,29	1,064
621,49	0,851
621,69	0,945
621,89	0,866
622,09	0,672
622,29	0,929
622,48	0,788
622,68	0,765
622,88	0,727
623,08	0,806
623,28	0,808
623,48	0,796
623,68	0,695
623,88	0,711
624,08	0,874
624,28	0,483
624,48	0,777
624,67	0,991
624,87	0,643
625,07	0,615
625,27	0,632
625,47	0,962
625,67	0,881
625,87	0,767
626,07	0,733
626,27	0,726
626,47	0,794
626,66	0,841
626,86	0,753
627,06	0,744
627,26	0,744
627,46	0,630
627,66	0,830
627,86	0,685
628,06	0,601
628,25	0,748
628,45	0,724
628,65	0,707
628,85	0,713
629,05	0,858
629,25	0,629
629,45	0,615
629,65	0,564
629,84	0,705
630,04	0,706
630,24	0,778
630,44	0,579
630,64	0,778
630,84	0,697
631,04	0,624
631,23	0,647
631,43	0,633
631,63	0,706
631,83	0,719
632,03	0,729
632,23	0,767
632,42	0,782
632,62	0,864
632,82	0,666
633,02	0,772
633,22	0,808
633,42	0,612
633,62	0,603
633,81	0,912
634,01	0,690
634,21	0,857
634,41	0,805
634,61	0,928
634,80	0,729
635,00	0,804
635,20	0,851
635,40	1,115
635,60	0,970
635,80	0,827
635,99	0,753
636,19	0,668
636,39	1,125
636,59	0,945
636,79	1,079
636,98	1,006
637,18	0,879
637,38	1,180
637,58	1,049
637,78	1,151
637,97	0,865
638,17	1,184
638,37	1,099
638,57	0,920
638,77	1,083
638,96	1,230
639,16	0,818
639,36	1,028
639,56	1,342
639,76	1,239
639,95	1,062
640,15	0,979
640,35	1,122
640,55	0,951
640,75	0,950
640,94	0,879
641,14	1,116
641,34	1,168
641,54	0,918
641,73	0,979
641,93	1,043
642,13	0,993
642,33	1,406
642,53	0,897
642,72	1,165
642,92	1,241
643,12	1,154
643,32	1,350
643,51	1,195
643,71	1,047
643,91	1,075
644,11	1,453
644,30	1,281
644,50	1,178
644,70	0,970
644,90	1,010
645,09	1,422
645,29	0,853
645,49	1,292
645,69	1,536
645,88	1,266
646,08	1,289
646,28	1,591
646,48	1,536
646,67	1,320
646,87	1,362
647,07	1,344
647,26	1,279
647,46	1,252
647,66	1,403
647,86	1,479
648,05	1,127
648,25	1,723
648,45	1,596
648,65	1,428
648,84	1,513
649,04	1,697
649,24	1,678
649,43	1,498
649,63	2,016
649,83	1,688
650,03	2,185
650,22	2,208
650,42	2,763
650,62	3,023
650,81	3,926
651,01	4,278
651,21	5,852
651,40	7,328
651,60	9,573
651,80	12,070
652,00	15,744
652,19	19,022
652,39	23,985
652,59	27,619
652,78	33,363
652,98	38,179
653,18	43,043
653,37	49,037
653,57	52,931
653,77	57,487
653,96	60,888
654,16	64,423
654,36	67,495
654,55	70,177
654,75	71,757
654,95	73,307
655,14	75,093
655,34	77,444
655,54	76,989
655,73	76,797
655,93	79,797
656,13	81,315
656,32	82,056
656,52	82,703
656,72	84,357
656,91	85,140
657,11	83,802
657,31	84,027
657,50	86,278
657,70	87,001
657,90	86,329
658,09	88,372
658,29	87,422
658,49	87,858
658,68	88,803
658,88	89,421
659,07	88,388
659,27	88,510
659,47	89,733
659,66	89,808
659,86	91,962
660,06	92,357
660,25	91,779
660,45	93,480
660,64	93,154
660,84	92,558
661,04	94,254
661,23	94,553
661,43	94,727
661,63	93,406
661,82	94,301
662,02	94,332
662,21	94,679
662,41	94,108
662,61	95,244
662,80	95,690
663,00	95,650
663,19	95,541
663,39	96,274
663,59	95,497
663,78	94,810
663,98	95,126
664,17	96,529
664,37	96,229
664,57	96,516
664,76	96,420
664,96	95,956
665,15	95,274
665,35	95,525
665,55	94,570
665,74	95,881
665,94	96,189
666,13	95,432
666,33	95,943
666,53	93,968
666,72	92,931
666,92	93,273
667,11	96,193
667,31	93,355
667,50	94,039
667,70	94,123
667,90	94,640
668,09	95,549
668,29	94,929
668,48	96,238
668,68	94,547
668,87	95,954
669,07	95,593
669,26	94,967
669,46	95,955
669,66	96,303
669,85	95,463
670,05	94,768
670,24	94,068
670,44	94,579
670,63	94,043
670,83	95,828
671,02	94,057
671,22	93,916
671,42	92,879
671,61	94,266
671,81	94,358
672,00	94,119
672,20	94,334
672,39	95,336
672,59	93,940
672,78	93,672
672,98	92,945
673,17	95,143
673,37	94,226
673,56	93,577
673,76	93,368
673,95	93,274
674,15	93,427
674,34	93,849
674,54	93,576
674,73	93,676
674,93	93,137
675,13	92,397
675,32	91,731
675,52	91,431
675,71	91,057
675,91	90,802
676,10	90,555
676,30	90,063
676,49	90,514
676,69	88,928
676,88	89,103
677,08	87,212
677,27	88,932
677,47	87,616
677,66	89,341
677,86	88,086
678,05	87,742
678,24	88,517
678,44	88,167
678,63	86,848
678,83	89,120
679,02	88,418
679,22	87,540
679,41	88,636
679,61	88,175
679,80	88,903
680,00	88,413
680,19	89,084
680,39	87,818
680,58	87,298
680,78	86,428
680,97	86,676
681,17	84,381
681,36	85,043
681,56	82,788
681,75	82,006
681,94	80,319
682,14	79,334
682,33	76,695
682,53	75,000
682,72	74,245
682,92	71,615
683,11	69,996
683,31	69,272
683,50	66,663
683,69	66,055
683,89	64,659
684,08	62,799
684,28	62,785
684,47	61,602
684,67	59,967
684,86	58,623
685,06	58,782
685,25	56,877
685,44	56,895
685,64	54,647
685,83	53,641
686,03	52,659
686,22	50,520
686,42	47,375
686,61	45,566
686,80	42,876
687,00	40,395
687,19	37,961
687,39	34,678
687,58	32,578
687,77	30,578
687,97	28,381
688,16	26,665
688,36	25,489
688,55	24,595
688,74	23,541
688,94	22,733
689,13	21,327
689,33	20,029
689,52	18,879
689,71	17,366
689,91	16,027
690,10	14,472
690,30	13,215
690,49	10,999
690,68	8,828
690,88	7,137
691,07	5,239
691,27	4,037
691,46	3,065
691,65	2,593
691,85	1,791
692,04	1,562
692,23	1,192
692,43	0,954
692,62	0,909
692,82	0,846
693,01	0,657
693,20	0,884
693,40	0,568
693,59	0,695
693,78	0,639
693,98	0,448
694,17	0,509
694,36	0,509
694,56	0,713
694,75	0,481
694,94	0,782
695,14	0,569
695,33	0,510
695,53	0,799
695,72	0,724
695,91	0,479
696,11	0,609
696,30	0,522
696,49	0,653
696,69	0,698
696,88	0,397
697,07	0,443
697,27	0,569
697,46	0,550
697,65	0,382
697,85	0,507
698,04	0,967
698,23	0,589
698,43	0,685
698,62	0,589
698,81	0,582
699,01	1,342
699,20	0,854
699,39	0,825
699,58	1,077
699,78	0,922
699,97	0,745
700,16	0,790
700,36	0,621
700,55	1,265
700,74	0,966
700,94	1,410
701,13	0,991
701,32	0,938
701,52	1,755
701,71	1,000
701,90	1,560
702,09	1,726
702,29	1,948
702,48	1,632
702,67	1,377
702,87	1,157
703,06	1,589
703,25	1,143
703,44	1,715
703,64	1,285
703,83	2,125
704,02	1,701
704,22	1,729
704,41	1,685
704,60	2,289
704,79	1,317
704,99	1,944
705,18	2,353
705,37	1,819
705,56	2,266
705,76	2,489
705,95	1,995
706,14	2,124
706,33	2,540
706,53	3,114
706,72	2,848
706,91	2,862
707,11	2,820
707,30	3,629
707,49	3,694
707,68	2,165
707,88	2,891
708,07	2,541
708,26	2,501
708,45	1,767
708,64	3,300
708,84	3,089
709,03	4,696
709,22	2,106
709,41	3,521
709,61	4,249
709,80	3,435
709,99	4,229
710,18	3,918
710,38	4,049
710,57	3,020
710,76	3,069
710,95	2,643
711,14	5,023
711,34	5,018
711,53	3,953
711,72	4,009
711,91	3,263
712,11	5,298
712,30	6,218
712,49	4,796
712,68	3,507
712,87	5,210
713,07	4,785
713,26	2,532
713,45	5,447
713,64	4,098
713,83	5,051
714,03	6,419
714,22	5,052
714,41	5,066
714,60	5,745
714,79	3,147
714,99	5,020
715,18	5,182
715,37	7,139
715,56	6,152
715,75	5,753
715,94	6,576
716,14	4,471
716,33	5,496
716,52	3,259
716,71	6,872
716,90	6,062
717,10	6,254
717,29	5,257
717,48	7,787
717,67	4,942
717,86	6,242
718,05	3,537
718,24	8,808
718,44	6,088
718,63	7,677
718,82	7,242
719,01	7,299
719,20	5,778
719,39	7,473
719,59	2,701
719,78	7,645
719,97	7,601
720,16	6,443
720,35	8,638
720,54	7,828
720,73	5,575
720,93	10,681
721,12	3,542
721,31	10,417
721,50	7,270
721,69	7,893
721,88	9,879
722,07	8,945
722,27	5,935
722,46	7,748
722,65	8,749
722,84	9,498
723,03	8,305
723,22	9,895
723,41	10,615
723,60	12,531
723,79	10,339
723,99	8,935
724,18	11,817
724,37	7,730
724,56	14,451
724,75	7,754
724,94	10,636
725,13	13,322
725,32	7,985
725,51	8,963
725,71	8,523
725,90	12,958
726,09	13,387
726,28	8,947
726,47	10,254
726,66	9,581
726,85	9,939
727,04	9,450
727,23	9,940
727,42	15,805
727,61	7,196
727,81	13,973
728,00	12,792
728,19	6,178
728,38	5,400
728,57	10,377
728,76	13,883
728,95	10,379
729,14	9,287
729,33	13,063
729,52	13,161
729,71	11,366
729,90	12,285
730,09	7,827
730,28	16,282
730,48	10,789
730,67	14,994
730,86	5,846
731,05	11,098
731,24	13,709
731,43	13,082
731,62	15,915
731,81	8,259
732,00	11,690
732,19	5,492
732,38	6,937
732,57	12,670
732,76	13,333
732,95	9,200
733,14	5,462
733,33	9,066
733,52	16,344
733,71	13,665
733,90	15,296
734,09	9,488
734,28	14,069
734,47	6,842
734,66	14,247
734,85	7,801
735,04	14,714
735,23	18,254
735,42	15,130
735,61	18,800
735,81	14,621
736,00	24,699
736,19	17,012
736,38	10,519
736,57	21,031
736,76	9,612
736,95	13,182
737,14	17,021
737,33	20,385
737,52	17,496
737,71	14,904
737,90	17,700
738,09	17,945
738,28	17,544
738,47	15,359
738,66	16,406
738,85	8,763
739,04	20,034
739,22	15,878
739,41	18,871
739,60	15,217
739,79	11,473
739,98	11,071
740,17	19,898
740,36	19,107
740,55	22,575
740,74	15,130
740,93	22,764
741,12	16,176
741,31	18,566
741,50	6,026
741,69	7,963
741,88	25,200
742,07	21,300
742,26	11,610
742,45	14,625
742,64	18,345
742,83	14,043
743,02	21,081
743,21	20,724
743,40	16,699
743,59	17,418
743,78	19,651
743,97	20,677
744,16	18,182
744,34	23,819
744,53	13,115
744,72	28,898
744,91	12,842
745,10	29,175
745,29	23,404
745,48	30,333
745,67	21,181
745,86	15,258
746,05	24,429
746,24	26,144
746,43	26,005
746,62	12,673
746,81	23,516
747,00	19,833
747,18	24,835
747,37	25,373
747,56	15,056
747,75	26,039
747,94	34,573
748,13	29,452
748,32	30,556
748,51	22,122
748,70	19,424
748,89	18,357
749,08	16,571
749,26	16,706
749,45	21,412
749,64	21,588
749,83	17,812
750,02	19,337
750,21	16,716
750,40	25,000
750,59	23,113
750,78	32,840
750,96	22,905
751,15	21,858
751,34	29,581
751,53	35,222
751,72	23,450
751,91	25,479
752,10	9,568
752,29	31,638
752,47	20,787
752,66	24,789
752,85	30,341
753,04	37,224
753,23	24,172
753,42	37,082
753,61	24,837
753,80	26,287
753,98	27,018
754,17	28,528
754,36	27,966
754,55	14,734
754,74	39,884
754,93	19,308
755,12	35,733
755,30	35,180
755,49	31,498
755,68	36,023
755,87	30,931
756,06	32,682
756,25	29,841
756,43	31,724
756,62	30,267
756,81	28,713
757,00	26,087
757,19	22,945
757,38	38,170
757,56	34,194
757,75	25,817
757,94	30,284
758,13	17,532
758,32	33,712
758,51	35,294
758,69	27,200
758,88	41,141
759,07	31,541
759,26	36,279
759,45	29,258
759,63	37,546
759,82	39,394
760,01	16,722
760,20	32,685
760,39	51,493
760,57	49,174
760,76	17,117
760,95	36,111
761,14	26,531
761,33	37,812
761,51	39,785
761,70	50,345
761,89	31,148
762,08	33,953
762,27	45,421
762,45	51,751
762,64	22,344
762,83	32,743
763,02	38,140
763,21	34,052
763,39	48,571
763,58	45,660
763,77	31,274
763,96	51,406
764,14	44,583
764,33	36,630
764,52	40,343
764,71	52,915
764,89	36,765
765,08	30,603
765,27	31,970
765,46	33,152
765,65	43,231
765,83	20,346
766,02	40,000
766,21	50,829
766,40	35,714
766,58	48,780
766,77	41,791
766,96	56,364
767,15	57,971
767,33	37,427
767,52	60,976
767,71	40,870
767,90	30,899
768,08	41,634
768,27	41,000
768,46	48,828
768,64	71,503
768,83	44,271
769,02	34,000
769,21	26,638
769,39	45,349
769,58	41,618
769,77	56,705
769,96	49,215
770,14	15,646
770,33	40,187
770,52	38,624
770,70	44,000
770,89	79,195
771,08	48,305
771,27	64,948
771,45	46,930
771,64	68,229
771,83	61,215
772,01	60,241
772,20	69,347
772,39	38,667
772,57	9,302
772,76	42,963
772,95	66,667
773,14	66,129
773,32	40,000
773,51	60,697
773,70	90,000
773,88	78,142
774,07	65,445
774,26	43,262
774,44	56,707
774,63	85,787
774,82	60,976
775,00	49,333
775,19	30,400
775,38	86,127
775,56	53,125
775,75	77,711
775,94	68,354
776,12	43,094
776,31	69,412
776,50	55,114
776,68	48,947
776,87	46,023
777,06	86,897
777,24	70,556
777,43	67,308
777,62	67,647
777,80	62,838
777,99	70,857
778,18	58,416
778,36	78,400
778,55	39,669
778,74	79,167
778,92	68,047
779,11	75,833
779,29	57,233
779,48	38,776
779,67	79,845
779,85	91,057
780,04	56,216
780,23	66,187
780,41	67,188
780,60	52,105
780,79	64,972
780,97	80,263
781,16	52,727
781,34	95,876
781,53	78,632
781,72	81,022
781,90	41,406
782,09	58,065
782,28	65,693
782,46	80,000
782,65	84,286
782,83	104,494
783,02	85,000
783,21	88,667
783,39	77,391
783,58	59,763
783,76	68,156
783,95	80,000
784,14	78,146
784,32	75,839
784,51	84,483
784,69	94,915
784,88	73,874
785,06	73,109
785,25	80,892
785,44	76,978
785,62	66,429
785,81	163,380
785,99	66,906
786,18	83,784
786,37	76,296
786,55	57,798
786,74	68,421
786,92	81,250
787,11	65,833
787,29	58,209
787,48	62,000
787,67	93,976
787,85	93,103
788,04	60,396
788,22	75,410
788,41	154,118
788,59	89,908
788,78	83,636
788,96	111,321
789,15	126,316
789,34	120,909
789,52	49,558
789,71	75,969
789,89	131,915
790,08	89,041
790,26	48,571
790,45	40,152
790,63	105,556
790,82	68,485
791,00	55,556
791,19	78,495
791,38	102,778
791,56	85,088
791,75	122,018
791,93	72,414
792,12	62,722
792,30	84,800
792,49	84,874
792,67	88,806
792,86	90,698
793,04	80,374
793,23	69,167
793,41	132,911
793,60	98,990
793,78	75,439
793,97	97,436
794,15	67,273
794,34	82,418
794,52	118,182
794,71	146,914
794,89	114,444
795,08	92,233
795,26	85,556
795,45	149,254
795,63	118,939
795,82	71,028
796,00	77,982
796,19	98,333
796,37	79,562
796,56	112,903
796,74	110,619
796,93	125,843
797,11	116,456
797,30	50,833
797,48	95,172
797,67	120,833
797,85	134,694
798,04	102,083
798,22	90,476
798,41	84,314
798,59	118,947
798,77	129,231
798,96	73,118
799,14	92,241
799,33	105,344
799,51	104,615
799,70	81,208
799,88	136,364
800,07	82,237
800,25	73,793
800,44	106,061
800,62	90,588
800,80	126,087
800,99	158,730
801,17	78,448
801,36	71,724
801,54	113,542
801,73	66,667
801,91	83,607
802,10	67,857
802,28	112,150
802,46	103,704
802,65	85,057
802,83	143,820
803,02	125,263
803,20	117,969
803,39	70,690
803,57	128,916
803,75	84,459
803,94	98,319
804,12	62,500
804,31	53,982
804,49	85,577
804,67	69,600
804,86	84,821
805,04	105,405
805,23	68,276
805,41	88,525
805,59	60,656
805,78	69,697
805,96	76,282
806,15	107,031
806,33	97,479
806,51	84,956
806,70	175,000
806,88	72,358
807,07	78,571
807,25	62,264
807,43	101,325
807,62	77,236
807,80	101,075
807,99	83,333
808,17	78,014
808,35	73,684
808,54	115,054
808,72	84,800
808,90	88,158
809,09	103,333
809,27	103,604
809,46	93,750
809,64	75,490
809,82	74,713
810,01	90,909
810,19	107,000
810,37	79,231
810,56	114,634
810,74	83,444
810,92	78,788
811,11	147,059
811,29	68,794
811,48	127,273
811,66	86,047
811,84	109,174
812,03	84,545
812,21	100,000
812,39	94,915
812,58	76,471
812,76	66,355
812,94	82,000
813,13	93,651
813,31	79,167
813,49	147,826
813,68	80,870
813,86	140,816
814,04	104,854
814,23	125,253
814,41	63,971
814,59	75,706
814,78	83,088
814,96	87,387
815,14	127,778
815,33	60,870
815,51	88,889
815,69	79,012
815,87	108,696
816,06	66,875
816,24	94,702
816,42	56,410
816,61	88,136
816,79	148,193
816,97	89,189
817,16	50,323
817,34	79,310
817,52	69,655
817,70	138,889
817,89	97,521
818,07	97,414
818,25	94,595
818,44	84,302
818,62	82,759
818,80	68,531
818,98	79,048
819,17	61,538
819,35	81,176
819,53	97,030
819,72	72,093
819,90	70,060
820,08	43,506
820,26	105,263
820,45	87,349
820,63	78,125
820,81	63,087
820,99	54,887
821,18	62,222
821,36	76,190
821,54	70,349
821,73	68,649
821,91	42,553
822,09	57,647
822,27	52,792
822,46	65,000
822,64	53,642
822,82	69,268
823,00	65,766
823,19	59,091
823,37	69,286
823,55	81,176
823,73	88,000
823,91	41,436
824,10	55,307
824,28	71,111
824,46	50,581
824,64	38,235
824,83	60,976
825,01	58,696
825,19	50,286
825,37	63,542
825,56	45,000
825,74	66,190
825,92	77,528
826,10	85,093
826,28	65,101
826,47	61,789
826,65	79,730
826,83	43,011
827,01	53,030
827,19	56,329
827,38	84,456
827,56	63,942
827,74	52,846
827,92	64,390
828,10	53,804
828,29	66,667
828,47	71,491
828,65	52,432
828,83	53,535
829,01	45,333
829,20	25,949
829,38	64,730
829,56	64,372
829,74	77,273
829,92	46,392
830,10	62,613
830,29	54,054
830,47	75,000
830,65	35,714
830,83	54,286
831,01	44,583
831,20	36,634
831,38	52,195
831,56	42,105
831,74	52,000
831,92	57,955
832,10	50,000
832,29	46,445
832,47	31,858
832,65	67,660
832,83	52,558
833,01	37,945
833,19	42,534
833,37	48,148
833,56	48,357
833,74	51,417
833,92	23,894
834,10	54,315
834,28	32,308
834,46	52,595
834,64	47,656
834,83	41,980
835,01	45,914
835,19	26,540
835,37	34,263
835,55	39,350
835,73	42,647
835,91	47,876
836,09	34,440
836,28	59,160
836,46	55,789
836,64	58,607
836,82	38,060
837,00	45,918
837,18	56,917
837,36	54,545
837,54	35,606
837,72	13,546
837,91	31,727
838,09	39,200
838,27	44,322
838,45	44,337
838,63	28,814
838,81	40,461
838,99	46,690
839,17	42,071
839,35	40,000
839,53	38,255
839,72	43,220
839,90	27,356
840,08	43,910
840,26	31,861
840,44	31,173
840,62	40,067
840,80	22,840
840,98	32,628
841,16	23,488
841,34	40,580
841,52	34,185
841,70	30,303
841,89	39,677
842,07	32,973
842,25	20,455
842,43	41,613
842,61	45,576
842,79	38,720
842,97	43,293
843,15	25,215
843,33	34,917
843,51	23,866
843,69	28,056
843,87	26,415
844,05	30,458
844,23	35,676
844,41	18,844
844,59	27,841
844,77	23,919
844,95	33,981
845,13	31,148
845,31	25,140
845,50	25,515
845,68	29,534
845,86	33,726
846,04	20,988
846,22	28,162
846,40	16,535
846,58	17,426
846,76	25,935
846,94	25,000
847,12	24,645
847,30	25,806
847,48	26,379
847,66	28,780
847,84	22,335
848,02	31,393
848,20	24,503
848,38	25,840
848,56	30,108
848,74	20,661
848,92	14,823
849,10	30,357
849,28	20,261
849,46	15,187
849,64	14,524
849,82	25,962
850,00	21,561
850,18	24,249
850,36	27,851
850,54	27,803
850,72	25,988
850,90	30,414
851,08	16,049
851,26	29,555
851,44	29,518
851,62	17,439
851,80	17,097
851,98	24,486
852,16	29,630
852,34	24,478
852,52	19,483
852,70	20,080
852,87	16,190
853,05	23,848
853,23	25,098
853,41	12,679
853,59	24,340
853,77	25,794
853,95	21,398
854,13	18,447
854,31	20,593
854,49	16,232
854,67	21,992
854,85	21,739
855,03	23,372
855,21	25,042
855,39	23,322
855,57	26,087
855,75	19,393
855,93	11,484
856,11	25,518
856,28	21,181
856,46	17,647
856,64	23,786
856,82	15,707
857,00	18,858
857,18	23,474
857,36	15,126
857,54	18,243
857,72	15,025
857,90	11,532
858,08	17,747
858,26	14,526
858,44	12,422
858,61	10,919
858,79	22,481
858,97	13,897
859,15	13,090
859,33	12,270
859,51	16,613
859,69	11,607
859,87	17,570
860,05	18,550
860,23	13,636
860,40	19,816
860,58	12,931
860,76	16,667
860,94	14,046
861,12	16,431
861,30	19,973
861,48	15,581
861,66	16,493
861,84	19,413
862,01	18,316
862,19	15,989
862,37	17,347
862,55	14,485
862,73	14,674
862,91	13,219
863,09	15,215
863,27	10,306
863,44	13,510
863,62	11,220
863,80	13,721
863,98	17,625
864,16	11,714
864,34	12,727
864,52	12,528
864,69	13,012
864,87	11,323
865,05	14,028
865,23	15,821
865,41	12,277
865,59	14,586
865,76	12,145
865,94	10,508
866,12	15,742
866,30	9,325
866,48	11,721
866,66	11,931
866,83	9,956
867,01	10,778
867,19	11,310
867,37	6,963
867,55	14,050
867,73	13,212
867,90	11,232
868,08	12,963
868,26	10,148
868,44	9,657
868,62	12,017
868,79	7,900
868,97	12,473
869,15	7,749
869,33	10,364
869,51	13,588
869,69	10,010
869,86	11,897
870,04	10,265
870,22	3,746
870,40	7,778
870,57	12,500
870,75	12,931
870,93	12,071
871,11	12,106
871,29	8,232
871,46	6,344
871,64	7,418
871,82	11,610
872,00	10,287
872,18	11,436
872,35	12,210
872,53	9,357
872,71	7,122
872,89	9,917
873,06	9,502
873,24	10,570
873,42	5,466
873,60	8,999
873,77	7,651
873,95	8,010
874,13	10,555
874,31	8,645
874,49	9,765
874,66	9,880
874,84	6,483
875,02	10,496
875,20	11,901
875,37	6,388
875,55	4,911
875,73	6,816
875,91	7,969
876,08	7,564
876,26	7,744
876,44	5,831
876,61	10,458
876,79	10,592
876,97	8,405
877,15	11,527
877,32	6,457
877,50	9,091
877,68	7,289
877,86	7,302
878,03	6,293
878,21	7,965
878,39	9,852
878,56	9,440
878,74	7,303
878,92	6,602
879,10	7,692
879,27	6,588
879,45	11,186
879,63	5,355
879,80	6,662
879,98	6,050
880,16	6,526
880,34	5,334
880,51	9,701
880,69	6,925
880,87	6,529
881,04	4,771
881,22	8,037
881,40	1,674
881,57	5,639
881,75	5,995
881,93	5,442
882,10	8,008
882,28	2,240
882,46	6,059
882,63	7,475
882,81	7,816
882,99	5,483
883,16	6,473
883,34	6,167
883,52	6,135
883,69	6,678
883,87	6,479
884,05	4,787
884,22	5,967
884,40	7,063
884,58	4,246
884,75	4,809
884,93	8,168
885,11	5,223
885,28	4,379
885,46	3,569
885,64	5,916
885,81	6,906
885,99	4,957
886,17	6,116
886,34	5,663
886,52	6,214
886,70	4,856
886,87	7,198
887,05	4,014
887,22	4,100
887,40	7,856
887,58	6,318
887,75	7,876
887,93	6,546
888,11	2,768
888,28	4,410
888,46	3,658
888,63	6,939
888,81	4,948
888,99	1,659
889,16	3,519
889,34	6,111
889,51	4,717
889,69	3,291
889,87	3,430
890,04	2,511
890,22	5,575
890,39	1,592
890,57	7,282
890,75	5,387
890,92	4,904
891,10	6,490
891,27	4,506
891,45	2,875
891,63	4,814
891,80	4,441
891,98	5,936
892,15	4,484
892,33	3,774
892,51	3,245
892,68	2,556
892,86	3,733
893,03	3,072
893,21	4,694
893,38	3,491
893,56	6,017
893,74	5,257
893,91	4,139
894,09	5,493
894,26	5,172
894,44	3,551
894,61	5,120
894,79	4,843
894,96	3,917
895,14	3,717
895,32	4,828
895,49	4,147
895,67	3,231
895,84	5,351
896,02	3,719
896,19	2,481
896,37	4,452
896,54	4,529
896,72	4,016
896,89	4,463
897,07	2,744
897,25	4,767
897,42	3,723
897,60	4,794
897,77	4,969
897,95	4,446
898,12	1,805
898,30	3,796
898,47	4,492
898,65	3,439
898,82	2,093
899,00	3,350
899,17	3,985
899,35	4,238
899,52	2,772
899,70	4,046
899,87	3,139
900,05	4,321
900,22	3,643
900,40	3,269
900,57	4,969
900,75	2,493
900,92	3,905
901,10	3,981
901,27	3,410
901,45	3,403
901,62	3,832
901,80	3,741
901,97	2,135
902,15	4,287
902,32	3,581
902,50	3,000
902,67	2,580
902,85	3,408
903,02	4,931
903,20	2,610
903,37	5,008
903,54	3,897
903,72	3,587
903,89	3,856
904,07	3,097
904,24	3,119
904,42	3,613
904,59	2,911
904,77	3,246
904,94	3,213
905,12	2,638
905,29	4,757
905,47	2,823
905,64	3,740
905,81	2,767
905,99	3,171
906,16	3,100
906,34	3,524
906,51	4,050
906,69	3,322
906,86	3,337
907,03	3,850
907,21	1,680
907,38	2,119
907,56	2,531
907,73	3,947
907,91	2,847
908,08	3,387
908,25	2,286
908,43	2,313
908,60	1,622
908,78	3,842
908,95	4,105
909,13	3,461
909,30	0,821
909,47	2,996
909,65	3,560
909,82	2,999
910,00	3,091
910,17	2,544
910,34	3,146
910,52	3,126
910,69	3,144
910,87	4,376
911,04	2,796
911,21	3,854
911,39	2,202
911,56	2,521
911,73	2,905
911,91	3,497
912,08	3,370
912,26	2,093
912,43	2,052
912,60	3,912
912,78	2,624
912,95	3,509
913,13	2,409
913,30	2,900
913,47	3,847
913,65	1,946
913,82	3,399
913,99	2,784
914,17	2,884
914,34	3,684
914,51	3,805
914,69	2,548
914,86	4,085
915,03	2,601
915,21	2,228
915,38	2,546
915,56	2,951
915,73	2,925
915,90	3,376
916,08	3,472
916,25	2,358
916,42	1,922
916,60	3,078
916,77	2,629
916,94	2,490
917,12	3,528
917,29	3,425
917,46	1,419
917,64	2,716
917,81	2,689
917,98	1,642
918,16	3,129
918,33	2,253
918,50	3,395
918,67	2,192
918,85	2,865
919,02	2,113
919,19	3,653
919,37	2,761
919,54	2,698
919,71	2,461
919,89	1,717
920,06	1,978
920,23	1,792
920,41	2,270
920,58	1,652
920,75	2,024
920,92	2,249
921,10	1,120
921,27	1,371
921,44	2,192
921,62	1,335
921,79	2,755
921,96	2,323
922,13	2,398
922,31	1,935
922,48	2,365
922,65	2,203
922,82	2,379
923,00	2,382
923,17	1,026
923,34	2,080
923,52	2,148
923,69	2,414
923,86	1,832
924,03	2,165
924,21	1,692
924,38	3,584
924,55	2,750
924,72	3,043
924,90	1,747
925,07	2,173
925,24	2,777
925,41	1,247
925,59	1,515
925,76	1,856
925,93	2,201
926,10	1,606
926,28	2,388
926,45	3,144
926,62	2,375
926,79	2,108
926,96	2,886
927,14	3,239
927,31	1,108
927,48	2,267
927,65	2,428
927,83	1,932
928,00	1,838
928,17	1,939
928,34	2,184
928,51	2,450
928,69	1,717
928,86	2,897
929,03	2,965
929,20	1,373
929,37	2,622
929,55	1,759
929,72	2,766
929,89	2,089
930,06	1,719
930,23	1,752
930,41	1,895
930,58	2,139
930,75	1,946
930,92	1,603
931,09	2,560
931,27	1,209
931,44	1,642
931,61	2,113
931,78	1,882
931,95	1,283
932,12	1,680
932,30	1,308
932,47	2,223
932,64	1,784
932,81	2,243
932,98	0,829
933,16	1,512
933,33	2,212
933,50	1,927
933,67	1,841
933,84	0,747
934,01	1,890
934,18	1,657
934,36	1,893
934,53	1,260
934,70	2,203
934,87	2,148
935,04	2,871
935,21	1,218
935,38	1,525
935,56	1,015
935,73	1,708
935,90	0,939
936,07	2,491
936,24	2,308
936,41	2,380
936,58	1,250
936,76	2,322
936,93	1,344
937,10	1,750
937,27	1,520
937,44	1,515
937,61	2,570
937,78	1,981
937,95	1,641
938,13	1,889
938,30	1,834
938,47	2,137
938,64	1,447
938,81	1,204
938,98	1,235
939,15	2,168
939,32	1,843
939,49	2,033
939,66	2,767
939,84	2,758
940,01	1,688
940,18	1,895
940,35	1,820
940,52	0,789
940,69	2,431
940,86	1,394
941,03	1,881
941,20	1,652
941,37	2,308
941,54	1,166
941,71	0,475
941,89	1,786
942,06	2,045
942,23	1,360
942,40	1,658
942,57	2,479
942,74	2,515
942,91	1,509
943,08	2,313
943,25	2,573
943,42	2,207
943,59	2,276
943,76	3,186
943,93	2,058
944,10	1,737
944,27	1,597
944,44	2,166
944,61	0,906
944,79	1,656
944,96	3,449
945,13	2,109
945,30	1,119
945,47	2,184
945,64	2,584
945,81	2,554
945,98	3,001
946,15	2,878
946,32	2,947
946,49	3,001
946,66	2,044
946,83	2,332
947,00	2,070
947,17	1,821
947,34	3,369
947,51	2,262
947,68	1,966
947,85	1,020
948,02	3,021
948,19	3,549
948,36	2,830
948,53	3,116
948,70	3,837
948,87	3,995
949,04	1,856
949,21	1,943
949,38	3,445
949,55	2,726
949,72	2,860
949,89	2,530
950,06	2,390
950,23	3,116
950,40	4,410
950,57	1,626
950,74	4,387
950,91	2,853
951,08	3,713
951,25	3,114
951,42	3,852
951,59	0,793
951,76	5,284
951,93	4,000
952,10	3,932
952,27	2,949
952,44	1,856
952,61	2,830
952,77	3,536
952,94	5,146
953,11	5,538
953,28	1,908
953,45	3,528
953,62	5,157
953,79	3,348
953,96	5,010
954,13	4,397
954,30	6,509
954,47	3,964
954,64	4,258
954,81	5,281
954,98	5,413
955,15	4,807
955,32	6,015
955,49	2,701
955,65	6,582
955,82	7,846
955,99	5,749
956,16	7,162
956,33	4,254
956,50	3,519
956,67	7,283
956,84	7,037
957,01	3,822
957,18	8,321
957,35	7,919
957,52	9,312
957,68	7,417
957,85	7,574
958,02	9,991
958,19	11,140
958,36	9,929
958,53	9,862
958,70	9,231
958,87	7,436
959,04	11,679
959,21	12,020
959,37	10,714
959,54	11,136
959,71	3,102
959,88	9,879
960,05	10,486
960,22	7,456
960,39	15,467
960,56	10,127
960,72	11,794
960,89	20,532
961,06	14,268
961,23	10,480
961,40	14,141
961,57	14,836
961,74	11,076
961,90	9,844
962,07	17,656
962,24	12,195
962,41	14,908
962,58	18,417
962,75	15,929
962,92	22,056
963,08	18,182
963,25	12,072
963,42	8,213
963,59	14,669
963,76	30,112
963,93	17,391
964,10	21,842
964,26	15,570
964,43	21,189
964,60	24,611
964,77	15,904
964,94	23,295
965,10	36,607
965,27	25,849
965,44	21,818
965,61	23,691
965,78	29,073
965,95	29,641
966,11	30,031
966,28	31,227
966,45	34,268
966,62	39,385
966,79	25,714
966,95	34,627
967,12	40,063
967,29	36,458
967,46	37,500
967,63	31,698
967,79	39,640
967,96	41,991
968,13	32,500
968,30	36,290
968,47	54,296
968,63	57,207
968,80	49,541
968,97	52,885
969,14	45,349
969,31	54,444
969,47	34,706
969,64	66,162
969,81	41,451
969,98	75,824
970,14	42,331
970,31	81,761
970,48	40,833
970,65	87,574
970,81	67,123
970,98	73,723
971,15	55,102
971,32	80,469
971,48	59,184
971,65	53,077
971,82	70,588
971,99	50,575
972,15	76,761
972,32	92,793
972,49	89,510
972,66	96,364
972,82	87,209
972,99	82,927
973,16	95,402
973,33	87,500
973,49	78,947
973,66	133,333
973,83	86,408
974,00	97,674
974,16	154,902
974,33	133,333
974,50	97,895
974,67	177,895
974,83	125,000
975,00	97,895
975,17	124,176
975,33	117,978
975,50	101,493
975,67	195,918
975,84	200,000
976,00	149,438
976,17	93,443
976,34	62,000
976,50	144,944
976,67	101,942
976,84	2200,000
977,00	173,469
977,17	137,778
977,34	171,429
977,50	152,239
977,67	125,000
977,84	235,484
978,01	138,298
978,17	633,333
978,34	200,000
978,51	191,176
978,67	178,947
978,84	128,906
979,01	335,135
979,17	230,769
979,34	94,521
979,51	220,408
979,67	116,049
979,84	232,653
980,01	271,111
980,17	205,634
980,34	244,444
980,51	191,304
980,67	169,412
980,84	513,333
981,01	645,000
981,17	468,000
981,34	933,333
981,50	202,941
981,67	254,237
981,84	5350,000
982,00	306,667
982,17	192,857
982,34	97,778
982,50	526,667
982,67	161,458
982,84	2200,000
983,00	1366,667
983,17	188,060
983,33	150,000
983,50	1420,000
983,67	-168,966
983,83	363,636
984,00	-1642,857
984,17	683,333
984,33	-4200,000
984,50	434,286
984,66	321,739
984,83	183,117
985,00	-462,500
985,16	362,069
985,33	758,824
985,49	655,556
985,66	452,941
985,83	278,261
985,99	310,256
986,16	-2550,000
986,32	478,571
986,49	10100,000
986,66	381,818
986,82	791,667
986,99	233,962
987,15	-405,263
987,32	-275,000
987,49	160,000
987,65	5100,000
987,82	295,833
987,98	244,898
988,15	453,333
988,31	1010,000
988,48	-1566,667
988,65	307,143
988,81	250,000
988,98	295,122
989,14	288,095
989,31	471,429
989,47	261,765
989,64	-823,077
989,80	881,250
989,97	294,595
990,14	-245,652
990,30	-450,000
990,47	342,857
990,63	330,556
990,80	172,000
990,96	-310,000
991,13	428,125
991,29	489,655
991,46	0,000
991,62	-576,923
991,79	483,333
991,95	11300,000
992,12	-1170,000
992,29	-562,500
992,45	215,294
992,62	213,953
992,78	281,818
992,95	-446,667
993,11	507,143
993,28	1030,000
993,44	-1180,000
993,61	-625,000
993,77	-1875,000
993,94	-5366,667
994,10	-108,000
994,27	668,421
994,43	334,884
994,60	0,000
994,76	3000,000
994,93	480,000
995,09	-741,176
995,26	1100,000
995,42	221,569
995,59	514,286
995,75	700,000
995,92	1671,429
996,08	322,222
996,25	-1012,500
996,41	-6350,000
996,58	833,333
996,74	297,727
996,91	413,793
997,07	0,000
997,23	8600,000
997,40	-18200,000
997,56	-800,000
997,73	-1475,000
997,89	410,526
998,06	938,462
998,22	-505,556
998,39	484,000
998,55	1533,333
998,72	-1150,000
998,88	-380,000
999,05	-108,974
999,21	276,190
999,37	-773,333
999,54	-916,667
999,70	-416,667
999,87	700,000
1000,03	312,821
1000,20	306,250
1000,36	0,000
1000,52	475,000
1000,69	-580,952
1000,85	-950,000
1001,02	-520,833
1001,18	2600,000
1001,35	1015,385
1001,51	564,706
1001,67	-853,846
1001,84	-1660,000
1002,00	272,973
1002,17	981,818
1002,33	-2350,000
1002,50	419,048
1002,66	-769,231
1002,82	322,500
1002,99	1014,286
1003,15	-1685,714
1003,32	-954,545
1003,48	225,000
1003,64	753,333
1003,81	440,741
1003,97	-4000,000
1004,14	1100,000
1004,30	283,333
1004,46	-666,667
1004,63	928,571
1004,79	352,778
1004,95	940,000
1005,12	5300,000
1005,28	520,690
1005,45	427,027
1005,61	417,241
1005,77	-135,417
1005,94	-333,333
1006,10	-5200,000
1006,26	800,000
1006,43	-226,923
1006,59	-1081,818
1006,76	714,286
1006,92	1222,222
1007,08	9200,000
1007,25	-333,333
1007,41	475,862
1007,57	4100,000
1007,74	1050,000
1007,90	-375,862
1008,06	265,217
1008,23	752,941
1008,39	-400,000
1008,55	-265,385
1008,72	-1328,571
1008,88	0,000
1009,04	407,317
1009,21	-294,737
1009,37	-466,667
1009,53	178,571
1009,70	3300,000
1009,86	-657,143
1010,02	3366,667
1010,19	518,182
1010,35	225,000
1010,51	-6800,000
1010,68	-1837,500
1010,84	-236,364
1011,00	725,000
1011,17	-372,727
1011,33	0,000
1011,49	-853,333
1011,66	778,571
1011,82	377,419
1011,98	864,286
1012,14	-772,727
1012,31	464,103
1012,47	0,000
1012,63	1883,333
1012,80	892,857
1012,96	-687,500
1013,12	-1700,000
1013,29	655,556
1013,45	341,463
1013,61	3866,667
1013,77	-105,357
1013,94	2020,000
1014,10	133,898
1014,26	-2725,000
1014,43	-376,000
1014,59	425,000
1014,75	-466,667
1014,91	-526,667
1015,08	375,000
1015,24	9800,000
1015,40	570,588
1015,56	-11600,000
1015,73	130,952
1015,89	545,455
1016,05	3775,000
1016,21	-1087,500
1016,38	857,895
1016,54	969,231
1016,70	-3266,667
1016,86	318,750
1017,03	806,250
1017,19	-546,154
1017,35	-517,647
1017,51	-2200,000
1017,68	-1070,000
1017,84	-1785,714
1018,00	330,952
1018,16	496,154
1018,33	-1271,429
1018,49	-750,000
1018,65	-232,432
1018,81	310,256
1018,97	-1671,429
1019,14	-2800,000
1019,30	-207,692
1019,46	0,000
1019,62	-158,824
1019,79	-3800,000
1019,95	900,000
1020,11	6150,000
1020,27	-396,296
1020,43	-411,538
1020,60	1283,333
1020,76	733,333
1020,92	686,667
1021,08	775,000
1021,24	1320,000
1021,41	1466,667
1021,57	1400,000
1021,73	900,000
1021,89	2380,000
1022,05	-439,286
1022,21	525,000
1022,38	-700,000
1022,54	-2516,667
1022,70	346,667
1022,86	-1537,500
1023,02	733,333
1023,19	2360,000
1023,35	3766,667
1023,51	425,000
1023,67	381,481
1023,83	-450,000
1023,99	147,368
1024,16	-400,000
1024,32	-1277,778
1024,48	-770,000
1024,64	245,238
1024,80	565,217
1024,96	312,821
1025,12	619,048
1025,29	276,190
1025,45	210,526
1025,61	761,111
1025,77	-2360,000
1025,93	-6500,000
1026,09	-1400,000
1026,26	750,000
1026,42	537,500
1026,58	378,788
1026,74	1716,667
1026,90	332,000
1027,06	239,286
1027,22	792,857
1027,38	221,154
1027,55	2800,000
1027,71	1250,000
1027,87	-280,000
1028,03	830,000
1028,19	328,125
1028,35	490,000
1028,51	1400,000
1028,67	708,333
1028,83	-2700,000
1029,00	-204,762
1029,16	1390,000
1029,32	-128,571
1029,48	242,222
1029,64	302,778
1029,80	5200,000
1029,96	780,000
1030,12	534,783
1030,28	-3033,333
1030,44	-384,615
1030,61	-358,333
1030,77	-231,429
1030,93	-633,333
1031,09	2033,333
1031,25	-7400,000
1031,41	-283,333
1031,57	392,308
1031,73	662,500
1031,89	-827,273
1032,05	-388,889
1032,21	1181,818
1032,37	-162,963
1032,53	-1000,000
1032,69	-362,500
1032,86	448,148
1033,02	-170,000
1033,18	-581,250
1033,34	521,053
1033,50	-4450,000
1033,66	-187,805
1033,82	452,174
1033,98	-448,148
1034,14	174,359
1034,30	409,677
1034,46	-2733,333
1034,62	630,000
1034,78	-457,143
1034,94	315,789
1035,10	-553,846
1035,26	-160,465
1035,42	-196,552
1035,58	-533,333
1035,74	925,000
1035,90	-746,154
1036,06	-683,333
1036,22	1133,333
1036,38	-576,471
1036,54	-437,500
1036,70	-260,606
1036,86	12200,000
1037,02	433,333
1037,18	700,000
1037,34	149,524
1037,50	-195,122
1037,66	-423,529
1037,82	2780,000
1037,98	-407,407
1038,14	-372,000
1038,30	-900,000
1038,46	-571,429
1038,62	478,261
1038,78	-4066,667
1038,94	-436,842
1039,10	409,091
1039,26	385,185
1039,42	-691,667
1039,58	1328,571
1039,74	-505,263
1039,90	390,625
1040,06	-450,000
>>>>>End Processed Spectral Data<<<<<
