SpectraSuite Data File
++++++++++++++++++++++++++++++++++++
Date: Wed Feb 01 15:54:59 EET 2017
User: optolab
Dark Spectrum Present: Yes
Reference Spectrum Present: Yes
Number of Sampled Component Spectra: 1
Spectrometers: USB4C02475
Integration Time (usec): 100000 (USB4C02475)
Spectra Averaged: 1 (USB4C02475)
Boxcar Smoothing: 0 (USB4C02475)
Correct for Electrical Dark: No (USB4C02475)
Strobe/Lamp Enabled: No (USB4C02475)
Correct for Detector Non-linearity: No (USB4C02475)
Correct for Stray Light: No (USB4C02475)
Number of Pixels in Processed Spectrum: 3648
>>>>>Begin Processed Spectral Data<<<<<
344,91	3300,000
345,13	3300,000
345,35	3300,000
345,57	0,000
345,79	415,789
346,00	-1722,222
346,22	-1742,857
346,44	332,353
346,66	-466,667
346,87	-11200,000
347,09	400,000
347,31	-495,455
347,53	-356,410
347,74	230,769
347,96	469,697
348,18	636,842
348,40	341,935
348,61	1047,059
348,83	409,524
349,05	323,529
349,27	-2600,000
349,48	534,615
349,70	-434,483
349,92	432,258
350,14	215,094
350,35	268,000
350,57	2300,000
350,79	656,000
351,01	-923,810
351,22	272,222
351,44	569,231
351,66	-232,000
351,87	-371,429
352,09	205,769
352,31	291,803
352,53	273,438
352,74	411,111
352,96	241,558
353,18	536,842
353,40	428,000
353,61	297,778
353,83	391,176
354,05	1118,182
354,26	2116,667
354,48	228,000
354,70	348,485
354,92	-331,034
355,13	208,081
355,35	386,364
355,57	608,333
355,78	180,723
356,00	-4025,000
356,22	419,231
356,44	5600,000
356,65	300,000
356,87	492,308
357,09	537,500
357,30	248,889
357,52	331,034
357,74	750,000
357,95	325,641
358,17	198,361
358,39	259,677
358,60	345,946
358,82	537,500
359,04	355,556
359,26	391,429
359,47	7400,000
359,69	217,500
359,91	375,758
360,12	557,143
360,34	495,833
360,56	-111,111
360,77	1850,000
360,99	485,714
361,21	300,000
361,42	4900,000
361,64	244,898
361,86	235,385
362,07	-422,581
362,29	184,000
362,51	-517,647
362,72	472,000
362,94	397,059
363,16	183,721
363,37	-778,571
363,59	546,154
363,81	356,818
364,02	794,444
364,24	475,000
364,46	2966,667
364,67	872,727
364,89	2300,000
365,11	167,143
365,32	527,586
365,54	352,778
365,76	291,837
365,97	458,824
366,19	224,138
366,41	777,273
366,62	411,111
366,84	253,488
367,05	314,286
367,27	1700,000
367,49	-661,538
367,70	588,235
367,92	259,016
368,14	212,500
368,35	-13900,000
368,57	436,000
368,79	451,724
369,00	247,826
369,22	-1062,500
369,43	223,529
369,65	253,226
369,87	424,324
370,08	174,699
370,30	208,929
370,51	183,607
370,73	251,111
370,95	201,613
371,16	223,810
371,38	430,000
371,60	1375,000
371,81	195,313
372,03	1093,333
372,24	473,333
372,46	275,472
372,68	152,857
372,89	296,970
373,11	546,154
373,32	388,636
373,54	-907,692
373,76	638,462
373,97	1053,333
374,19	500,000
374,40	279,687
374,62	-4033,333
374,84	3700,000
375,05	371,429
375,27	310,000
375,48	-6500,000
375,70	182,667
375,92	255,357
376,13	359,375
376,35	164,384
376,56	825,000
376,78	265,278
376,99	296,429
377,21	258,333
377,43	204,545
377,64	227,536
377,86	368,966
378,07	220,513
378,29	-1562,500
378,51	487,097
378,72	254,167
378,94	-1033,333
379,15	272,727
379,37	652,941
379,58	216,923
379,80	713,333
380,01	737,500
380,23	221,569
380,45	1940,000
380,66	3533,333
380,88	247,727
381,09	178,571
381,31	176,667
381,52	274,510
381,74	1088,889
381,95	622,727
382,17	453,846
382,39	642,857
382,60	224,490
382,82	346,154
383,03	278,846
383,25	358,065
383,46	338,636
383,68	311,111
383,89	420,000
384,11	441,935
384,32	-3400,000
384,54	622,222
384,76	-3700,000
384,97	427,273
385,19	493,103
385,40	200,000
385,62	236,842
385,83	338,095
386,05	217,647
386,26	300,000
386,48	171,264
386,69	341,667
386,91	720,000
387,12	220,339
387,34	232,759
387,55	191,935
387,77	437,500
387,98	634,615
388,20	201,087
388,41	394,118
388,63	11000,000
388,84	167,213
389,06	292,857
389,27	668,421
389,49	416,667
389,70	312,245
389,92	333,333
390,13	200,000
390,35	264,706
390,56	275,926
390,78	481,481
390,99	900,000
391,21	489,474
391,42	275,556
391,64	300,000
391,85	189,655
392,07	300,000
392,28	169,333
392,50	275,758
392,71	-1050,000
392,93	251,923
393,14	469,444
393,36	263,265
393,57	163,158
393,79	1122,222
394,00	282,979
394,22	190,411
394,43	179,518
394,65	290,698
394,86	1350,000
395,08	704,762
395,29	120,755
395,50	146,154
395,72	394,444
395,93	719,048
396,15	180,282
396,36	176,471
396,58	268,333
396,79	237,500
397,01	286,000
397,22	275,000
397,44	168,182
397,65	171,930
397,87	266,667
398,08	240,816
398,29	400,000
398,51	253,571
398,72	209,756
398,94	243,077
399,15	397,143
399,37	215,789
399,58	169,231
399,80	681,818
400,01	250,000
400,22	147,619
400,44	207,407
400,65	489,286
400,87	202,941
401,08	165,714
401,30	228,261
401,51	189,474
401,72	292,308
401,94	160,759
402,15	530,000
402,37	148,739
402,58	600,000
402,80	191,429
403,01	246,479
403,22	881,818
403,44	208,696
403,65	212,500
403,87	194,286
404,08	361,538
404,30	190,588
404,51	-3066,667
404,72	164,286
404,94	128,431
405,15	196,000
405,37	172,152
405,58	180,000
405,79	175,610
406,01	204,878
406,22	200,000
406,44	246,809
406,65	242,105
406,86	275,000
407,08	146,835
407,29	141,748
407,51	137,805
407,72	127,778
407,93	150,000
408,15	79,487
408,36	251,163
408,58	143,299
408,79	89,167
409,00	157,292
409,22	149,206
409,43	115,190
409,64	69,565
409,86	86,164
410,07	82,308
410,29	79,104
410,50	117,021
410,71	110,714
410,93	83,439
411,14	143,411
411,35	100,000
411,57	136,842
411,78	117,969
412,00	121,019
412,21	109,032
412,42	88,889
412,64	77,682
412,85	100,000
413,06	101,220
413,28	64,414
413,49	99,052
413,70	92,029
413,92	101,976
414,13	73,029
414,34	83,142
414,56	66,434
414,77	110,970
414,98	78,188
415,20	88,581
415,41	84,986
415,63	83,085
415,84	75,833
416,05	82,143
416,27	96,382
416,48	103,652
416,69	98,451
416,91	96,486
417,12	105,080
417,33	102,947
417,55	89,940
417,76	106,571
417,97	92,739
418,19	92,644
418,40	104,894
418,61	96,296
418,83	86,909
419,04	83,754
419,25	88,162
419,46	85,865
419,68	94,603
419,89	89,121
420,10	88,707
420,32	89,539
420,53	88,593
420,74	89,327
420,96	83,000
421,17	84,527
421,38	86,398
421,60	92,163
421,81	89,636
422,02	89,864
422,23	85,446
422,45	83,809
422,66	81,407
422,87	84,481
423,09	81,573
423,30	88,871
423,51	86,457
423,73	82,071
423,94	86,765
424,15	79,932
424,36	83,896
424,58	78,188
424,79	85,259
425,00	83,901
425,22	87,711
425,43	84,911
425,64	85,699
425,85	86,453
426,07	86,470
426,28	88,780
426,49	84,854
426,71	87,128
426,92	83,230
427,13	86,374
427,34	85,914
427,56	88,691
427,77	80,580
427,98	83,900
428,19	83,201
428,41	82,725
428,62	85,809
428,83	81,322
429,04	81,754
429,26	84,221
429,47	84,886
429,68	86,019
429,89	86,774
430,11	83,577
430,32	84,961
430,53	85,171
430,74	85,123
430,96	83,390
431,17	81,231
431,38	82,410
431,59	80,278
431,81	80,800
432,02	78,422
432,23	74,718
432,44	74,302
432,66	73,597
432,87	74,000
433,08	69,192
433,29	67,997
433,51	66,180
433,72	68,134
433,93	63,602
434,14	63,098
434,35	63,401
434,57	60,361
434,78	61,315
434,99	60,992
435,20	58,926
435,42	59,441
435,63	58,829
435,84	60,644
436,05	60,322
436,26	61,037
436,48	60,401
436,69	60,791
436,90	63,244
437,11	62,899
437,32	64,368
437,54	66,715
437,75	66,892
437,96	67,181
438,17	66,530
438,38	69,315
438,60	67,659
438,81	66,444
439,02	67,882
439,23	66,139
439,44	64,305
439,66	63,539
439,87	61,526
440,08	58,487
440,29	56,891
440,50	54,443
440,72	51,579
440,93	49,021
441,14	47,142
441,35	43,857
441,56	40,664
441,77	38,184
441,99	35,637
442,20	33,254
442,41	29,657
442,62	27,263
442,83	25,346
443,04	22,662
443,26	20,453
443,47	18,849
443,68	16,326
443,89	14,914
444,10	13,888
444,31	12,552
444,53	11,689
444,74	10,491
444,95	9,609
445,16	9,130
445,37	7,842
445,58	6,952
445,80	6,343
446,01	5,185
446,22	4,092
446,43	3,333
446,64	3,167
446,85	2,222
447,06	1,842
447,28	1,466
447,49	0,956
447,70	1,158
447,91	1,292
448,12	0,656
448,33	0,983
448,54	0,792
448,76	0,890
448,97	0,887
449,18	0,563
449,39	0,889
449,60	1,063
449,81	0,928
450,02	1,060
450,23	0,749
450,45	0,831
450,66	0,942
450,87	0,925
451,08	0,398
451,29	1,212
451,50	0,672
451,71	0,723
451,92	0,681
452,13	0,586
452,35	1,193
452,56	0,832
452,77	1,101
452,98	0,561
453,19	0,729
453,40	0,768
453,61	0,892
453,82	0,632
454,03	0,769
454,25	0,897
454,46	0,880
454,67	0,954
454,88	0,908
455,09	0,897
455,30	0,937
455,51	0,986
455,72	0,801
455,93	0,889
456,14	0,930
456,35	1,063
456,56	0,944
456,78	0,712
456,99	0,876
457,20	0,894
457,41	0,678
457,62	0,805
457,83	0,625
458,04	0,976
458,25	0,876
458,46	0,841
458,67	0,997
458,88	1,025
459,09	0,568
459,30	0,961
459,51	0,846
459,73	0,658
459,94	1,037
460,15	0,952
460,36	0,684
460,57	0,783
460,78	0,553
460,99	0,400
461,20	0,518
461,41	0,615
461,62	0,540
461,83	0,624
462,04	0,635
462,25	0,819
462,46	0,503
462,67	0,531
462,88	0,610
463,09	0,696
463,30	0,552
463,51	0,723
463,72	0,606
463,93	0,624
464,15	0,578
464,36	0,542
464,57	0,352
464,78	0,685
464,99	0,511
465,20	0,566
465,41	0,537
465,62	0,618
465,83	0,612
466,04	0,584
466,25	0,569
466,46	0,729
466,67	0,506
466,88	0,548
467,09	0,666
467,30	0,505
467,51	0,728
467,72	0,584
467,93	0,636
468,14	0,535
468,35	0,516
468,56	0,647
468,77	0,600
468,98	0,636
469,19	0,572
469,40	0,702
469,61	0,530
469,82	0,529
470,03	0,723
470,24	0,871
470,45	0,706
470,66	0,560
470,87	0,782
471,08	0,833
471,29	0,571
471,50	0,469
471,71	0,496
471,92	0,795
472,13	0,585
472,34	0,684
472,55	0,794
472,76	0,740
472,97	0,769
473,18	0,838
473,39	0,775
473,60	0,961
473,81	0,855
474,01	1,108
474,22	0,978
474,43	1,285
474,64	1,234
474,85	1,347
475,06	1,632
475,27	2,138
475,48	2,737
475,69	3,092
475,90	3,958
476,11	4,623
476,32	5,205
476,53	6,094
476,74	7,083
476,95	7,973
477,16	9,205
477,37	10,608
477,58	12,060
477,79	14,065
478,00	15,768
478,21	17,569
478,41	19,482
478,62	21,918
478,83	23,966
479,04	26,795
479,25	27,870
479,46	30,541
479,67	33,336
479,88	35,613
480,09	37,775
480,30	40,878
480,51	43,825
480,72	46,114
480,93	48,491
481,14	52,164
481,34	54,346
481,55	56,227
481,76	58,091
481,97	60,445
482,18	61,705
482,39	63,510
482,60	64,006
482,81	66,065
483,02	67,541
483,23	68,768
483,44	69,070
483,65	70,495
483,85	71,348
484,06	71,909
484,27	70,912
484,48	70,523
484,69	69,450
484,90	68,140
485,11	67,515
485,32	66,570
485,53	65,494
485,73	66,084
485,94	65,539
486,15	64,657
486,36	65,367
486,57	66,223
486,78	66,896
486,99	67,465
487,20	67,972
487,41	69,636
487,61	71,035
487,82	72,291
488,03	73,893
488,24	75,102
488,45	76,099
488,66	77,818
488,87	78,762
489,08	79,127
489,28	79,890
489,49	81,785
489,70	82,082
489,91	83,874
490,12	84,189
490,33	84,702
490,54	84,702
490,74	85,356
490,95	84,557
491,16	84,710
491,37	84,851
491,58	84,030
491,79	83,693
492,00	84,252
492,20	83,999
492,41	82,935
492,62	82,057
492,83	82,513
493,04	82,070
493,25	81,344
493,45	82,636
493,66	82,403
493,87	82,371
494,08	82,149
494,29	82,986
494,50	83,386
494,70	84,740
494,91	86,519
495,12	85,932
495,33	86,415
495,54	86,650
495,75	87,091
495,95	87,566
496,16	87,486
496,37	87,721
496,58	87,798
496,79	88,240
496,99	88,097
497,20	88,097
497,41	87,354
497,62	88,236
497,83	88,603
498,04	87,041
498,24	86,939
498,45	86,713
498,66	86,971
498,87	87,255
499,08	87,113
499,28	88,458
499,49	87,663
499,70	88,510
499,91	87,587
500,12	87,345
500,32	87,151
500,53	86,976
500,74	86,152
500,95	86,161
501,15	85,737
501,36	85,183
501,57	84,986
501,78	83,843
501,99	82,268
502,19	82,890
502,40	81,922
502,61	81,596
502,82	81,175
503,02	80,467
503,23	80,880
503,44	80,845
503,65	79,855
503,86	79,147
504,06	79,653
504,27	79,701
504,48	80,160
504,69	79,371
504,89	79,119
505,10	78,227
505,31	78,706
505,52	77,831
505,72	77,652
505,93	77,767
506,14	77,729
506,35	77,686
506,55	76,734
506,76	76,499
506,97	77,395
507,18	76,577
507,38	78,021
507,59	76,337
507,80	77,070
508,01	76,990
508,21	76,799
508,42	77,327
508,63	77,924
508,84	78,879
509,04	79,886
509,25	80,390
509,46	80,525
509,67	81,502
509,87	82,553
510,08	83,311
510,29	84,923
510,49	85,018
510,70	85,822
510,91	86,325
511,12	86,767
511,32	88,280
511,53	86,831
511,74	87,939
511,94	87,729
512,15	87,722
512,36	88,429
512,57	88,249
512,77	87,934
512,98	86,837
513,19	86,665
513,39	84,968
513,60	83,724
513,81	82,802
514,01	81,539
514,22	78,956
514,43	77,832
514,64	75,236
514,84	74,432
515,05	72,368
515,26	70,148
515,46	68,123
515,67	66,246
515,88	63,812
516,08	62,233
516,29	60,551
516,50	58,328
516,70	56,880
516,91	55,623
517,12	53,591
517,32	52,118
517,53	50,388
517,74	49,202
517,95	47,331
518,15	46,164
518,36	44,769
518,57	42,878
518,77	42,431
518,98	41,173
519,19	39,482
519,39	37,597
519,60	36,690
519,80	36,109
520,01	34,515
520,22	33,596
520,42	32,394
520,63	30,697
520,84	29,819
521,04	28,048
521,25	27,191
521,46	25,366
521,66	24,298
521,87	22,518
522,08	21,009
522,28	19,719
522,49	17,512
522,70	16,331
522,90	14,223
523,11	12,700
523,31	11,374
523,52	9,697
523,73	8,290
523,93	7,033
524,14	5,445
524,35	4,405
524,55	3,698
524,76	3,065
524,97	2,410
525,17	2,205
525,38	1,522
525,58	1,449
525,79	0,917
526,00	0,892
526,20	0,896
526,41	0,853
526,61	0,678
526,82	0,842
527,03	0,752
527,23	0,972
527,44	0,692
527,64	0,774
527,85	0,583
528,06	0,791
528,26	0,904
528,47	0,785
528,68	0,660
528,88	0,874
529,09	0,777
529,29	0,493
529,50	0,611
529,70	0,870
529,91	0,738
530,12	0,696
530,32	0,558
530,53	0,616
530,73	0,881
530,94	0,602
531,15	0,705
531,35	0,508
531,56	0,529
531,76	0,724
531,97	0,706
532,17	0,563
532,38	0,561
532,59	0,669
532,79	0,818
533,00	0,741
533,20	0,666
533,41	0,596
533,61	0,794
533,82	0,670
534,03	0,483
534,23	0,808
534,44	0,829
534,64	0,701
534,85	0,638
535,05	0,721
535,26	0,406
535,46	0,802
535,67	0,728
535,88	0,632
536,08	0,435
536,29	0,643
536,49	0,788
536,70	0,596
536,90	0,660
537,11	0,711
537,31	0,695
537,52	0,652
537,72	0,698
537,93	0,616
538,13	0,685
538,34	0,839
538,55	0,715
538,75	0,628
538,96	0,745
539,16	0,722
539,37	0,704
539,57	0,747
539,78	0,773
539,98	0,772
540,19	0,796
540,39	0,864
540,60	0,600
540,80	0,729
541,01	0,698
541,21	0,770
541,42	0,691
541,62	0,685
541,83	0,698
542,03	0,723
542,24	0,487
542,44	0,658
542,65	0,561
542,85	0,694
543,06	0,681
543,26	0,571
543,47	0,721
543,67	0,743
543,88	0,983
544,08	0,726
544,29	0,743
544,49	0,642
544,70	0,707
544,90	0,845
545,11	0,635
545,31	0,676
545,52	0,667
545,72	1,031
545,93	0,643
546,13	0,876
546,34	0,734
546,54	0,744
546,75	0,867
546,95	0,912
547,15	0,850
547,36	0,850
547,56	1,074
547,77	0,959
547,97	1,183
548,18	1,010
548,38	1,066
548,59	1,205
548,79	1,243
549,00	1,392
549,20	1,965
549,41	2,252
549,61	2,566
549,81	3,029
550,02	3,600
550,22	4,182
550,43	5,110
550,63	6,079
550,84	6,862
551,04	8,467
551,25	10,028
551,45	11,793
551,65	13,446
551,86	15,706
552,06	17,680
552,27	20,152
552,47	22,765
552,68	25,719
552,88	27,879
553,08	31,313
553,29	34,792
553,49	37,162
553,70	40,928
553,90	43,897
554,11	46,619
554,31	49,620
554,51	50,820
554,72	53,681
554,92	55,392
555,13	57,078
555,33	57,896
555,53	59,343
555,74	60,000
555,94	61,009
556,15	62,246
556,35	62,948
556,56	63,861
556,76	64,113
556,96	64,923
557,17	65,920
557,37	67,134
557,58	69,268
557,78	70,750
557,98	72,415
558,19	73,650
558,39	75,900
558,59	77,427
558,80	79,010
559,00	80,123
559,21	82,206
559,41	82,534
559,61	83,996
559,82	86,140
560,02	85,470
560,23	85,808
560,43	86,085
560,63	85,712
560,84	85,603
561,04	85,434
561,24	85,727
561,45	84,682
561,65	85,148
561,85	84,732
562,06	83,295
562,26	83,678
562,47	84,018
562,67	82,769
562,87	83,705
563,08	83,454
563,28	82,764
563,48	83,103
563,69	83,448
563,89	84,206
564,09	84,463
564,30	85,038
564,50	86,161
564,70	86,833
564,91	87,210
565,11	87,010
565,31	87,845
565,52	88,090
565,72	88,581
565,92	89,061
566,13	88,657
566,33	90,022
566,53	90,110
566,74	90,114
566,94	90,467
567,14	91,025
567,35	89,558
567,55	90,259
567,75	91,993
567,96	90,759
568,16	90,754
568,36	90,853
568,57	90,669
568,77	91,306
568,97	91,127
569,18	91,113
569,38	92,276
569,58	90,536
569,79	91,583
569,99	92,194
570,19	92,016
570,39	92,959
570,60	91,793
570,80	91,916
571,00	93,664
571,21	91,798
571,41	92,690
571,61	92,265
571,82	92,567
572,02	92,926
572,22	93,515
572,42	93,541
572,63	91,822
572,83	93,539
573,03	93,630
573,24	93,877
573,44	93,758
573,64	93,424
573,84	94,201
574,05	93,769
574,25	94,047
574,45	92,710
574,66	92,614
574,86	93,044
575,06	91,810
575,26	91,560
575,47	90,064
575,67	89,761
575,87	90,235
576,07	88,957
576,28	87,945
576,48	86,754
576,68	84,961
576,88	84,406
577,09	83,256
577,29	82,464
577,49	83,143
577,69	81,594
577,90	81,705
578,10	79,991
578,30	80,591
578,50	80,351
578,71	79,301
578,91	79,990
579,11	79,893
579,31	80,312
579,52	80,389
579,72	78,834
579,92	77,429
580,12	78,716
580,33	78,522
580,53	77,183
580,73	76,721
580,93	75,390
581,13	74,195
581,34	73,378
581,54	71,080
581,74	69,882
581,94	68,784
582,15	66,969
582,35	65,091
582,55	63,534
582,75	61,977
582,95	60,021
583,16	58,694
583,36	57,830
583,56	56,421
583,76	54,964
583,96	53,611
584,17	52,988
584,37	52,180
584,57	50,877
584,77	49,278
584,97	48,367
585,18	47,629
585,38	45,861
585,58	45,002
585,78	43,834
585,98	42,381
586,19	41,929
586,39	40,538
586,59	39,346
586,79	38,106
586,99	37,546
587,20	37,077
587,40	37,147
587,60	36,632
587,80	36,374
588,00	35,585
588,20	34,895
588,41	35,928
588,61	35,482
588,81	34,762
589,01	34,953
589,21	34,753
589,41	34,598
589,62	34,235
589,82	33,744
590,02	32,651
590,22	32,687
590,42	32,215
590,62	30,862
590,83	29,134
591,03	27,979
591,23	26,054
591,43	24,625
591,63	22,673
591,83	20,944
592,03	19,236
592,24	18,073
592,44	16,533
592,64	15,100
592,84	13,586
593,04	12,222
593,24	10,490
593,44	9,123
593,65	8,050
593,85	6,722
594,05	5,781
594,25	5,242
594,45	4,052
594,65	3,452
594,85	3,176
595,06	2,603
595,26	2,182
595,46	1,625
595,66	1,475
595,86	1,443
596,06	0,922
596,26	0,928
596,46	0,720
596,66	0,748
596,87	0,704
597,07	0,649
597,27	0,596
597,47	0,497
597,67	0,835
597,87	0,835
598,07	0,537
598,27	0,592
598,47	0,549
598,67	0,659
598,88	0,438
599,08	0,534
599,28	0,342
599,48	0,468
599,68	0,569
599,88	0,457
600,08	0,543
600,28	0,608
600,48	0,425
600,68	0,642
600,88	0,619
601,09	0,458
601,29	0,361
601,49	0,593
601,69	0,570
601,89	0,466
602,09	0,418
602,29	0,571
602,49	0,501
602,69	0,407
602,89	0,496
603,09	0,380
603,29	0,631
603,49	0,429
603,69	0,487
603,90	0,475
604,10	0,568
604,30	0,623
604,50	0,405
604,70	0,534
604,90	0,318
605,10	0,621
605,30	0,443
605,50	0,536
605,70	0,550
605,90	0,466
606,10	0,388
606,30	0,550
606,50	0,692
606,70	0,492
606,90	0,474
607,10	0,563
607,30	0,401
607,50	0,567
607,70	0,487
607,90	0,559
608,10	0,490
608,30	0,446
608,50	0,676
608,70	0,425
608,90	0,433
609,11	0,669
609,31	0,591
609,51	0,425
609,71	0,715
609,91	0,408
610,11	0,568
610,31	0,412
610,51	0,648
610,71	0,340
610,91	0,386
611,11	0,658
611,31	0,508
611,51	0,361
611,71	0,453
611,91	0,482
612,11	0,465
612,31	0,643
612,51	0,500
612,71	0,428
612,91	0,382
613,11	0,667
613,31	0,562
613,51	0,478
613,71	0,480
613,91	0,486
614,11	0,490
614,31	0,533
614,50	0,589
614,70	0,586
614,90	0,435
615,10	0,610
615,30	0,561
615,50	0,411
615,70	0,472
615,90	0,519
616,10	0,657
616,30	0,610
616,50	0,494
616,70	0,484
616,90	0,716
617,10	0,484
617,30	0,453
617,50	0,557
617,70	0,496
617,90	0,466
618,10	0,490
618,30	0,489
618,50	0,771
618,70	0,579
618,90	0,320
619,10	0,492
619,30	0,526
619,49	0,530
619,69	0,603
619,89	0,508
620,09	0,476
620,29	0,716
620,49	0,722
620,69	0,567
620,89	0,433
621,09	0,586
621,29	0,558
621,49	0,524
621,69	0,572
621,89	0,664
622,09	0,422
622,29	0,835
622,48	0,579
622,68	0,382
622,88	0,630
623,08	0,945
623,28	0,866
623,48	0,928
623,68	1,160
623,88	1,284
624,08	1,667
624,28	1,411
624,48	2,035
624,67	2,375
624,87	2,749
625,07	3,426
625,27	3,794
625,47	4,511
625,67	5,478
625,87	5,921
626,07	7,093
626,27	7,766
626,47	9,136
626,66	10,603
626,86	11,770
627,06	13,537
627,26	14,767
627,46	16,474
627,66	18,491
627,86	19,986
628,06	22,510
628,25	23,890
628,45	25,919
628,65	27,791
628,85	29,937
629,05	32,022
629,25	34,256
629,45	35,817
629,65	38,462
629,84	39,922
630,04	41,662
630,24	43,107
630,44	44,338
630,64	46,650
630,84	48,103
631,04	48,769
631,23	50,572
631,43	52,467
631,63	52,751
631,83	54,410
632,03	55,638
632,23	57,428
632,42	58,276
632,62	59,337
632,82	61,095
633,02	62,820
633,22	64,527
633,42	65,756
633,62	66,926
633,81	69,039
634,01	70,467
634,21	72,607
634,41	74,517
634,61	75,865
634,80	77,750
635,00	79,597
635,20	81,589
635,40	82,032
635,60	83,931
635,80	85,286
635,99	86,881
636,19	87,413
636,39	89,618
636,59	88,678
636,79	90,235
636,98	90,286
637,18	90,582
637,38	92,857
637,58	93,166
637,78	92,150
637,97	95,008
638,17	93,653
638,37	94,562
638,57	93,241
638,77	94,473
638,96	94,151
639,16	93,515
639,36	94,306
639,56	94,266
639,76	93,088
639,95	94,088
640,15	93,129
640,35	92,909
640,55	93,265
640,75	91,528
640,94	93,040
641,14	91,670
641,34	91,432
641,54	92,114
641,73	91,263
641,93	90,925
642,13	91,577
642,33	91,667
642,53	89,860
642,72	90,249
642,92	90,586
643,12	91,207
643,32	90,382
643,51	91,971
643,71	90,432
643,91	90,804
644,11	91,170
644,30	88,602
644,50	89,305
644,70	89,812
644,90	87,999
645,09	88,240
645,29	86,458
645,49	85,950
645,69	84,743
645,88	85,005
646,08	84,507
646,28	83,715
646,48	83,016
646,67	81,405
646,87	78,782
647,07	79,518
647,26	77,832
647,46	76,432
647,66	74,981
647,86	74,355
648,05	71,252
648,25	72,101
648,45	69,920
648,65	69,029
648,84	68,868
649,04	67,723
649,24	64,823
649,43	64,886
649,63	64,680
649,83	62,342
650,03	62,888
650,22	62,638
650,42	61,306
650,62	59,813
650,81	60,514
651,01	58,492
651,21	56,990
651,40	57,227
651,60	56,718
651,80	56,922
652,00	54,223
652,19	53,835
652,39	53,225
652,59	51,760
652,78	52,090
652,98	51,379
653,18	50,236
653,37	50,377
653,57	47,776
653,77	47,964
653,96	47,486
654,16	46,075
654,36	46,317
654,55	45,482
654,75	44,190
654,95	44,250
655,14	42,562
655,34	43,047
655,54	41,967
655,73	41,167
655,93	41,925
656,13	40,444
656,32	39,791
656,52	39,766
656,72	38,510
656,91	38,056
657,11	37,369
657,31	35,559
657,50	35,589
657,70	34,612
657,90	33,015
658,09	31,669
658,29	30,579
658,49	27,762
658,68	27,260
658,88	26,208
659,07	24,216
659,27	23,127
659,47	22,166
659,66	20,193
659,86	20,575
660,06	18,679
660,25	17,518
660,45	17,241
660,64	17,024
660,84	15,650
661,04	15,750
661,23	15,490
661,43	15,412
661,63	16,341
661,82	16,233
662,02	16,006
662,21	16,378
662,41	16,087
662,61	17,238
662,80	16,606
663,00	17,227
663,19	17,537
663,39	17,696
663,59	17,636
663,78	16,874
663,98	16,514
664,17	16,706
664,37	16,266
664,57	15,709
664,76	15,208
664,96	14,463
665,15	13,430
665,35	13,398
665,55	12,569
665,74	12,347
665,94	12,615
666,13	11,856
666,33	11,009
666,53	11,093
666,72	10,263
666,92	9,887
667,11	9,104
667,31	8,369
667,50	8,492
667,70	7,449
667,90	7,182
668,09	6,199
668,29	6,024
668,48	5,255
668,68	4,410
668,87	3,866
669,07	3,886
669,26	3,081
669,46	2,404
669,66	2,256
669,85	1,828
670,05	1,414
670,24	1,329
670,44	1,250
670,63	1,378
670,83	1,035
671,02	1,106
671,22	1,669
671,42	0,718
671,61	0,791
671,81	0,909
672,00	1,173
672,20	0,975
672,39	0,584
672,59	0,426
672,78	0,916
672,98	0,471
673,17	0,801
673,37	0,793
673,56	0,464
673,76	0,804
673,95	0,911
674,15	0,375
674,34	0,599
674,54	0,748
674,73	0,711
674,93	0,907
675,13	0,558
675,32	0,763
675,52	0,991
675,71	0,654
675,91	0,753
676,10	0,419
676,30	0,681
676,49	0,516
676,69	0,654
676,88	0,873
677,08	0,825
677,27	0,457
677,47	0,558
677,66	0,890
677,86	0,827
678,05	0,998
678,24	0,559
678,44	0,797
678,63	0,656
678,83	0,555
679,02	0,814
679,22	0,280
679,41	0,687
679,61	0,523
679,80	0,708
680,00	0,547
680,19	0,573
680,39	0,753
680,58	0,460
680,78	0,422
680,97	0,317
681,17	0,354
681,36	0,397
681,56	0,762
681,75	0,630
681,94	0,492
682,14	0,520
682,33	0,513
682,53	0,870
682,72	0,523
682,92	0,756
683,11	0,596
683,31	0,319
683,50	0,641
683,69	0,399
683,89	0,485
684,08	0,522
684,28	0,439
684,47	0,430
684,67	0,375
684,86	0,246
685,06	0,344
685,25	0,080
685,44	0,400
685,64	0,331
685,83	0,346
686,03	0,204
686,22	0,182
686,42	0,053
686,61	0,673
686,80	0,249
687,00	0,341
687,19	0,540
687,39	0,423
687,58	0,260
687,77	0,337
687,97	0,475
688,16	0,265
688,36	0,331
688,55	0,340
688,74	0,492
688,94	0,237
689,13	0,277
689,33	0,371
689,52	0,295
689,71	0,519
689,91	0,187
690,10	0,334
690,30	0,414
690,49	0,263
690,68	0,421
690,88	0,467
691,07	0,286
691,27	0,282
691,46	0,312
691,65	0,371
691,85	0,362
692,04	0,242
692,23	0,248
692,43	0,273
692,62	0,606
692,82	0,304
693,01	0,336
693,20	0,428
693,40	0,203
693,59	0,385
693,78	0,468
693,98	0,393
694,17	0,201
694,36	0,501
694,56	0,609
694,75	0,146
694,94	0,416
695,14	0,628
695,33	0,278
695,53	0,437
695,72	0,384
695,91	0,499
696,11	0,357
696,30	0,225
696,49	0,280
696,69	0,645
696,88	0,511
697,07	0,166
697,27	0,270
697,46	0,421
697,65	0,540
697,85	0,336
698,04	0,402
698,23	0,484
698,43	0,699
698,62	0,161
698,81	0,438
699,01	0,959
699,20	0,572
699,39	0,755
699,58	0,680
699,78	0,872
699,97	0,693
700,16	0,610
700,36	0,603
700,55	0,956
700,74	0,599
700,94	0,973
701,13	0,940
701,32	1,264
701,52	1,389
701,71	0,708
701,90	1,408
702,09	1,036
702,29	1,343
702,48	1,379
702,67	0,484
702,87	0,848
703,06	1,575
703,25	1,328
703,44	1,057
703,64	1,315
703,83	1,815
704,02	1,176
704,22	1,301
704,41	1,034
704,60	1,717
704,79	0,825
704,99	1,801
705,18	2,041
705,37	1,723
705,56	2,324
705,76	2,153
705,95	1,975
706,14	2,374
706,33	2,455
706,53	1,903
706,72	1,490
706,91	2,495
707,11	2,256
707,30	4,062
707,49	3,205
707,68	2,517
707,88	1,637
708,07	0,707
708,26	2,740
708,45	2,093
708,64	2,255
708,84	1,685
709,03	1,901
709,22	2,136
709,41	3,669
709,61	3,760
709,80	3,753
709,99	4,417
710,18	2,963
710,38	3,053
710,57	3,466
710,76	2,819
710,95	2,051
711,14	4,560
711,34	4,875
711,53	4,283
711,72	3,784
711,91	2,836
712,11	5,220
712,30	4,515
712,49	3,910
712,68	4,175
712,87	4,363
713,07	5,350
713,26	2,876
713,45	3,675
713,64	3,029
713,83	4,426
714,03	5,273
714,22	3,241
714,41	5,206
714,60	4,917
714,79	3,835
714,99	4,970
715,18	3,489
715,37	4,000
715,56	5,631
715,75	4,707
715,94	5,741
716,14	5,050
716,33	4,310
716,52	6,232
716,71	4,190
716,90	3,966
717,10	6,424
717,29	4,857
717,48	7,436
717,67	3,783
717,86	4,883
718,05	1,859
718,24	6,531
718,44	8,031
718,63	4,619
718,82	8,564
719,01	4,367
719,20	3,677
719,39	4,144
719,59	4,862
719,78	7,307
719,97	5,718
720,16	5,757
720,35	5,969
720,54	6,629
720,73	2,931
720,93	8,172
721,12	6,494
721,31	8,549
721,50	5,786
721,69	7,531
721,88	8,371
722,07	5,428
722,27	7,886
722,46	5,730
722,65	3,189
722,84	8,948
723,03	5,565
723,22	7,482
723,41	9,520
723,60	10,693
723,79	7,340
723,99	6,701
724,18	12,623
724,37	9,211
724,56	13,292
724,75	6,061
724,94	8,718
725,13	12,370
725,32	4,468
725,51	12,917
725,71	8,807
725,90	7,606
726,09	16,262
726,28	12,395
726,47	7,910
726,66	8,744
726,85	7,070
727,04	10,800
727,23	9,245
727,42	12,585
727,61	5,926
727,81	10,636
728,00	11,168
728,19	6,407
728,38	8,315
728,57	11,740
728,76	9,916
728,95	9,487
729,14	6,569
729,33	10,209
729,52	13,723
729,71	11,596
729,90	8,496
730,09	12,033
730,28	16,051
730,48	10,093
730,67	12,576
730,86	6,965
731,05	10,981
731,24	10,159
731,43	9,811
731,62	14,286
731,81	8,132
732,00	14,358
732,19	6,386
732,38	13,482
732,57	12,125
732,76	17,024
732,95	7,467
733,14	4,941
733,33	8,791
733,52	15,375
733,71	13,793
733,90	15,681
734,09	12,859
734,28	14,897
734,47	9,211
734,66	15,061
734,85	13,475
735,04	15,804
735,23	12,831
735,42	13,833
735,61	18,800
735,81	13,103
736,00	15,211
736,19	14,941
736,38	15,556
736,57	15,738
736,76	9,147
736,95	15,606
737,14	17,933
737,33	14,928
737,52	17,496
737,71	10,577
737,90	21,331
738,09	18,558
738,28	18,022
738,47	12,582
738,66	15,937
738,85	11,512
739,04	21,902
739,22	11,655
739,41	18,226
739,60	12,375
739,79	13,014
739,98	10,526
740,17	18,197
740,36	17,679
740,55	20,811
740,74	12,174
740,93	18,902
741,12	18,199
741,31	15,809
741,50	17,514
741,69	14,815
741,88	14,600
742,07	19,314
742,26	13,670
742,45	14,032
742,64	24,460
742,83	11,489
743,02	12,793
743,21	30,986
743,40	24,952
743,59	20,287
743,78	20,306
743,97	21,241
744,16	5,543
744,34	17,717
744,53	13,115
744,72	22,661
744,91	10,737
745,10	25,370
745,29	18,203
745,48	21,918
745,67	20,774
745,86	13,380
746,05	17,123
746,24	28,976
746,43	30,024
746,62	14,747
746,81	18,265
747,00	13,570
747,18	32,747
747,37	21,535
747,56	16,854
747,75	24,726
747,94	31,291
748,13	25,114
748,32	27,564
748,51	23,928
748,70	28,297
748,89	22,947
749,08	10,000
749,26	25,298
749,45	26,824
749,64	23,077
749,83	15,522
750,02	17,680
750,21	25,220
750,40	23,958
750,59	29,953
750,78	25,444
750,96	24,022
751,15	20,219
751,34	29,843
751,53	27,833
751,72	30,997
751,91	27,671
752,10	19,444
752,29	22,316
752,47	25,562
752,66	30,704
752,85	18,885
753,04	26,183
753,23	16,225
753,42	24,924
753,61	15,359
753,80	33,604
753,98	21,053
754,17	26,074
754,36	32,486
754,55	21,944
754,74	32,370
754,93	29,683
755,12	34,400
755,30	24,654
755,49	34,557
755,68	36,311
755,87	19,820
756,06	27,374
756,25	30,159
756,43	19,655
756,62	24,629
756,81	33,003
757,00	32,174
757,19	26,712
757,38	38,801
757,56	30,323
757,75	32,353
757,94	36,278
758,13	33,117
758,32	28,030
758,51	32,353
758,69	24,400
758,88	32,733
759,07	27,599
759,26	35,814
759,45	24,891
759,63	40,520
759,82	27,946
760,01	19,732
760,20	37,354
760,39	44,403
760,57	36,364
760,76	18,468
760,95	34,722
761,14	31,020
761,33	31,250
761,51	37,276
761,70	49,655
761,89	47,951
762,08	46,512
762,27	38,095
762,45	43,191
762,64	28,205
762,83	34,513
763,02	40,000
763,21	29,741
763,39	35,102
763,58	44,906
763,77	42,857
763,96	47,390
764,14	31,250
764,33	38,462
764,52	61,803
764,71	44,843
764,89	42,157
765,08	28,879
765,27	37,546
765,46	23,913
765,65	31,004
765,83	39,394
766,02	39,149
766,21	45,304
766,40	57,143
766,58	45,528
766,77	42,786
766,96	47,727
767,15	45,411
767,33	43,860
767,52	48,171
767,71	40,435
767,90	42,697
768,08	22,568
768,27	35,500
768,46	53,125
768,64	67,876
768,83	35,417
769,02	48,000
769,21	44,105
769,39	38,953
769,58	56,069
769,77	70,115
769,96	51,309
770,14	33,333
770,33	50,000
770,52	45,503
770,70	50,000
770,89	53,020
771,08	41,525
771,27	65,979
771,45	37,719
771,64	66,667
771,83	64,486
772,01	53,012
772,20	61,307
772,39	48,667
772,57	30,233
772,76	26,667
772,95	63,121
773,14	64,516
773,32	50,323
773,51	63,682
773,70	66,250
773,88	49,180
774,07	39,267
774,26	56,738
774,44	46,951
774,63	62,944
774,82	62,195
775,00	64,000
775,19	52,800
775,38	54,335
775,56	69,792
775,75	58,434
775,94	45,570
776,12	46,409
776,31	67,059
776,50	70,455
776,68	51,053
776,87	75,000
777,06	86,897
777,24	61,667
777,43	52,564
777,62	71,324
777,80	56,757
777,99	87,429
778,18	67,822
778,36	87,200
778,55	52,066
778,74	88,889
778,92	73,964
779,11	97,500
779,29	45,283
779,48	61,905
779,67	62,016
779,85	86,179
780,04	42,703
780,23	36,691
780,41	81,250
780,60	37,368
780,79	69,492
780,97	59,211
781,16	64,848
781,34	83,505
781,53	76,068
781,72	78,832
781,90	51,562
782,09	70,323
782,28	75,912
782,46	52,593
782,65	82,143
782,83	119,101
783,02	90,000
783,21	112,667
783,39	107,826
783,58	61,538
783,76	83,799
783,95	54,545
784,14	61,589
784,32	95,973
784,51	105,172
784,69	64,407
784,88	109,910
785,06	85,714
785,25	78,981
785,44	97,842
785,62	98,571
785,81	160,563
785,99	72,662
786,18	70,946
786,37	79,259
786,55	65,138
786,74	56,579
786,92	92,188
787,11	83,333
787,29	61,194
787,48	67,333
787,67	124,096
787,85	99,138
788,04	60,891
788,22	80,328
788,41	89,412
788,59	111,009
788,78	79,394
788,96	84,906
789,15	156,842
789,34	89,091
789,52	72,566
789,71	75,969
789,89	180,851
790,08	93,836
790,26	84,286
790,45	97,727
790,63	93,519
790,82	81,818
791,00	80,556
791,19	87,097
791,38	88,889
791,56	90,351
791,75	106,422
791,93	90,805
792,12	76,923
792,30	92,800
792,49	68,067
792,67	80,597
792,86	95,349
793,04	90,654
793,23	69,167
793,41	132,911
793,60	57,576
793,78	129,825
793,97	120,513
794,15	86,364
794,34	78,022
794,52	90,909
794,71	132,099
794,89	100,000
795,08	89,320
795,26	76,667
795,45	88,060
795,63	91,667
795,82	100,000
796,00	103,670
796,19	80,000
796,37	84,672
796,56	183,871
796,74	66,372
796,93	133,708
797,11	83,544
797,30	68,333
797,48	91,724
797,67	98,333
797,85	87,755
798,04	119,792
798,22	80,952
798,41	100,000
798,59	84,211
798,77	112,308
798,96	92,473
799,14	105,172
799,33	106,107
799,51	65,385
799,70	97,315
799,88	27,273
800,07	71,053
800,25	72,414
800,44	67,677
800,62	105,882
800,80	127,536
800,99	166,667
801,17	96,552
801,36	98,621
801,54	92,708
801,73	67,677
801,91	106,557
802,10	85,714
802,28	96,262
802,46	91,358
802,65	101,149
802,83	126,966
803,02	96,842
803,20	117,969
803,39	75,862
803,57	121,687
803,75	76,351
803,94	68,067
804,12	65,000
804,31	105,310
804,49	48,077
804,67	109,600
804,86	70,536
805,04	97,973
805,23	80,690
805,41	110,656
805,59	86,885
805,78	89,394
805,96	98,077
806,15	105,469
806,33	105,042
806,51	91,150
806,70	135,000
806,88	60,976
807,07	53,968
807,25	75,472
807,43	84,768
807,62	66,667
807,80	104,301
807,99	84,127
808,17	85,106
808,35	73,684
808,54	105,376
808,72	99,200
808,90	135,526
809,09	113,333
809,27	112,613
809,46	100,000
809,64	63,725
809,82	85,057
810,01	115,909
810,19	93,000
810,37	33,077
810,56	128,049
810,74	68,212
810,92	109,848
811,11	103,922
811,29	79,433
811,48	86,869
811,66	85,271
811,84	106,422
812,03	60,909
812,21	102,564
812,39	133,051
812,58	95,098
812,76	61,682
812,94	104,000
813,13	65,873
813,31	77,500
813,49	135,870
813,68	41,739
813,86	97,959
814,04	103,883
814,23	98,990
814,41	86,029
814,59	75,706
814,78	85,294
814,96	96,396
815,14	135,556
815,33	113,768
815,51	80,741
815,69	124,691
815,87	39,130
816,06	82,500
816,24	80,795
816,42	33,974
816,61	86,441
816,79	148,193
816,97	100,901
817,16	75,484
817,34	81,379
817,52	68,276
817,70	126,190
817,89	85,950
818,07	75,862
818,25	82,883
818,44	83,140
818,62	73,276
818,80	75,524
818,98	112,381
819,17	81,538
819,35	100,000
819,53	73,267
819,72	45,930
819,90	78,443
820,08	67,532
820,26	95,614
820,45	82,530
820,63	81,250
820,81	60,403
820,99	78,947
821,18	62,222
821,36	69,524
821,54	74,419
821,73	71,892
821,91	52,128
822,09	64,118
822,27	49,239
822,46	73,125
822,64	94,702
822,82	52,195
823,00	71,171
823,19	71,212
823,37	79,286
823,55	76,471
823,73	54,667
823,91	51,934
824,10	62,570
824,28	78,519
824,46	45,930
824,64	69,118
824,83	78,862
825,01	83,333
825,19	57,714
825,37	57,292
825,56	69,375
825,74	62,381
825,92	87,640
826,10	73,292
826,28	51,678
826,47	33,333
826,65	54,730
826,83	63,978
827,01	44,697
827,19	75,949
827,38	79,275
827,56	63,942
827,74	50,407
827,92	89,268
828,10	32,609
828,29	62,857
828,47	57,018
828,65	51,351
828,83	57,576
829,01	54,000
829,20	34,177
829,38	48,548
829,56	75,304
829,74	63,636
829,92	41,753
830,10	69,369
830,29	37,297
830,47	57,813
830,65	44,643
830,83	54,286
831,01	50,833
831,20	61,386
831,38	61,951
831,56	42,105
831,74	81,714
831,92	46,023
832,10	55,000
832,29	51,185
832,47	61,947
832,65	75,319
832,83	48,837
833,01	34,783
833,19	46,154
833,37	56,296
833,56	31,925
833,74	30,364
833,92	35,841
834,10	65,990
834,28	48,462
834,46	41,869
834,64	44,531
834,83	41,638
835,01	58,366
835,19	55,924
835,37	48,207
835,55	51,264
835,73	49,265
835,91	26,255
836,09	34,025
836,28	49,237
836,46	48,421
836,64	48,361
836,82	32,463
837,00	43,878
837,18	41,897
837,36	63,636
837,54	34,091
837,72	27,490
837,91	24,900
838,09	28,400
838,27	51,282
838,45	54,369
838,63	25,763
838,81	33,882
838,99	45,645
839,17	61,165
839,35	24,444
839,53	33,893
839,72	31,356
839,90	27,964
840,08	38,462
840,26	33,438
840,44	24,383
840,62	33,333
840,80	40,432
840,98	35,650
841,16	20,641
841,34	40,870
841,52	41,214
841,70	26,263
841,89	30,645
842,07	41,351
842,25	33,442
842,43	33,871
842,61	34,316
842,79	40,244
842,97	25,000
843,15	47,278
843,33	25,178
843,51	37,232
843,69	18,611
843,87	27,493
844,05	23,450
844,23	37,568
844,41	21,608
844,59	26,989
844,77	17,579
844,95	27,913
845,13	30,601
845,31	28,771
845,50	34,794
845,68	27,720
845,86	36,321
846,04	24,444
846,22	38,902
846,40	26,772
846,58	24,665
846,76	24,190
846,94	19,231
847,12	22,038
847,30	29,724
847,48	18,945
847,66	31,220
847,84	20,812
848,02	22,661
848,20	29,139
848,38	19,958
848,56	34,409
848,74	22,314
848,92	20,668
849,10	30,357
849,28	23,529
849,46	20,561
849,64	16,667
849,82	21,635
850,00	15,811
850,18	26,559
850,36	24,342
850,54	30,045
850,72	26,403
850,90	35,280
851,08	20,165
851,26	25,911
851,44	21,084
851,62	16,556
851,80	19,881
851,98	20,165
852,16	22,634
852,34	25,427
852,52	18,489
852,70	21,084
852,87	22,476
853,05	25,852
853,23	23,333
853,41	11,861
853,59	12,453
853,77	23,214
853,95	25,424
854,13	24,854
854,31	26,003
854,49	20,441
854,67	23,684
854,85	20,522
855,03	20,690
855,21	23,350
855,39	22,483
855,57	21,014
855,75	17,875
855,93	12,898
856,11	25,199
856,28	16,840
856,46	21,078
856,64	26,699
856,82	16,579
857,00	14,360
857,18	22,222
857,36	19,832
857,54	23,311
857,72	8,514
857,90	16,474
858,08	12,500
858,26	15,749
858,44	16,304
858,61	11,092
858,79	21,395
858,97	16,476
859,15	14,612
859,33	9,969
859,51	16,773
859,69	15,327
859,87	18,155
860,05	20,363
860,23	11,515
860,40	15,054
860,58	12,069
860,76	18,503
860,94	10,382
861,12	16,006
861,30	19,152
861,48	17,705
861,66	16,939
861,84	18,575
862,01	15,107
862,19	15,989
862,37	11,953
862,55	12,953
862,73	16,304
862,91	12,118
863,09	14,824
863,27	6,964
863,44	14,040
863,62	12,342
863,80	10,878
863,98	16,986
864,16	11,467
864,34	9,610
864,52	18,223
864,69	13,855
864,87	16,329
865,05	7,851
865,23	17,029
865,41	10,846
865,59	18,047
865,76	13,437
865,94	11,316
866,12	11,325
866,30	5,890
866,48	11,347
866,66	16,594
866,83	10,066
867,01	16,886
867,19	8,399
867,37	10,564
867,55	12,843
867,73	12,301
867,90	15,338
868,08	16,885
868,26	10,376
868,44	13,841
868,62	12,748
868,79	9,957
868,97	11,301
869,15	8,174
869,33	8,379
869,51	10,510
869,69	12,304
869,86	8,513
870,04	11,958
870,22	9,886
870,40	7,980
870,57	13,200
870,75	13,793
870,93	10,406
871,11	11,801
871,29	11,280
871,46	9,567
871,64	8,605
871,82	10,049
872,00	12,067
872,18	10,064
872,35	10,873
872,53	7,561
872,71	8,470
872,89	8,804
873,06	9,225
873,24	11,673
873,42	9,050
873,60	5,510
873,77	8,897
873,95	7,514
874,13	12,343
874,31	5,348
874,49	9,067
874,66	10,997
874,84	8,881
875,02	11,147
875,20	9,752
875,37	9,370
875,55	5,588
875,73	6,040
875,91	9,219
876,08	11,067
876,26	6,328
876,44	4,712
876,61	9,237
876,79	10,436
876,97	9,505
877,15	12,214
877,32	7,717
877,50	7,028
877,68	6,880
877,86	10,223
878,03	7,598
878,21	6,563
878,39	8,963
878,56	8,923
878,74	7,303
878,92	6,231
879,10	9,615
879,27	8,114
879,45	8,305
879,63	6,493
879,80	6,934
879,98	5,196
880,16	7,070
880,34	5,537
880,51	7,774
880,69	8,069
880,87	2,955
881,04	5,093
881,22	8,959
881,40	4,533
881,57	5,095
881,75	4,911
881,93	6,144
882,10	6,919
882,28	6,285
882,46	5,630
882,63	8,668
882,81	8,161
882,99	7,601
883,16	9,026
883,34	6,398
883,52	3,335
883,69	7,447
883,87	5,677
884,05	3,664
884,22	6,081
884,40	6,100
884,58	5,866
884,75	5,086
884,93	7,906
885,11	5,767
885,28	5,036
885,46	5,354
885,64	6,545
885,81	4,639
885,99	4,507
886,17	5,619
886,34	5,716
886,52	4,557
886,70	3,642
886,87	5,541
887,05	5,386
887,22	3,947
887,40	4,764
887,58	4,428
887,75	5,334
887,93	4,794
888,11	2,323
888,28	4,315
888,46	4,943
888,63	5,485
888,81	6,898
888,99	3,744
889,16	3,471
889,34	5,556
889,51	5,717
889,69	4,278
889,87	3,618
890,04	4,081
890,22	5,189
890,39	1,946
890,57	5,115
890,75	6,456
890,92	3,477
891,10	6,832
891,27	3,943
891,45	3,625
891,63	5,768
891,80	4,484
891,98	5,562
892,15	3,892
892,33	3,480
892,51	4,035
892,68	3,339
892,86	4,766
893,03	5,189
893,21	3,819
893,38	4,559
893,56	5,035
893,74	4,859
893,91	4,218
894,09	5,734
894,26	3,605
894,44	3,824
894,61	4,923
894,79	4,616
894,96	3,802
895,14	5,140
895,32	4,602
895,49	3,682
895,67	2,258
895,84	4,757
896,02	4,934
896,19	3,741
896,37	5,125
896,54	3,866
896,72	2,874
896,89	6,049
897,07	4,004
897,25	5,706
897,42	3,870
897,60	5,438
897,77	5,283
897,95	4,267
898,12	4,883
898,30	2,812
898,47	4,959
898,65	3,508
898,82	2,437
899,00	5,234
899,17	3,538
899,35	3,748
899,52	3,015
899,70	3,458
899,87	4,430
900,05	4,664
900,22	2,887
900,40	2,588
900,57	3,608
900,75	2,216
900,92	2,638
901,10	4,215
901,27	4,254
901,45	5,781
901,62	2,790
901,80	4,044
901,97	2,204
902,15	4,255
902,32	4,344
902,50	2,460
902,67	3,786
902,85	3,610
903,02	4,742
903,20	3,011
903,37	3,806
903,54	4,464
903,72	1,349
903,89	4,351
904,07	3,750
904,24	2,924
904,42	2,029
904,59	2,175
904,77	3,830
904,94	3,278
905,12	1,451
905,29	3,704
905,47	4,139
905,64	3,962
905,81	3,233
905,99	3,108
906,16	4,195
906,34	2,825
906,51	2,639
906,69	1,863
906,86	3,178
907,03	3,483
907,21	1,588
907,38	1,720
907,56	2,139
907,73	3,552
907,91	3,786
908,08	3,021
908,25	2,835
908,43	3,469
908,60	2,703
908,78	4,285
908,95	3,566
909,13	3,550
909,30	1,307
909,47	2,203
909,65	4,370
909,82	3,764
910,00	2,391
910,17	3,053
910,34	3,001
910,52	2,431
910,69	3,795
910,87	3,576
911,04	2,259
911,21	3,826
911,39	2,398
911,56	2,829
911,73	2,706
911,91	4,274
912,08	3,760
912,26	1,507
912,43	2,353
912,60	3,722
912,78	2,760
912,95	2,708
913,13	2,543
913,30	1,862
913,47	4,308
913,65	2,612
913,82	2,124
913,99	2,180
914,17	3,216
914,34	3,426
914,51	4,267
914,69	3,695
914,86	3,905
915,03	3,219
915,21	2,506
915,38	2,215
915,56	2,093
915,73	2,162
915,90	2,701
916,08	2,976
916,25	1,872
916,42	2,197
916,60	3,030
916,77	2,003
916,94	2,124
917,12	3,650
917,29	3,279
917,46	1,811
917,64	2,644
917,81	1,777
917,98	1,309
918,16	2,541
918,33	3,250
918,50	2,649
918,67	2,334
918,85	2,013
919,02	2,848
919,19	3,676
919,37	1,865
919,54	2,812
919,71	2,415
919,89	2,129
920,06	1,637
920,23	1,951
920,41	2,451
920,58	2,851
920,75	2,272
920,92	2,612
921,10	1,949
921,27	1,119
921,44	3,310
921,62	2,380
921,79	3,215
921,96	2,124
922,13	2,204
922,31	2,023
922,48	2,647
922,65	2,008
922,82	2,101
923,00	2,683
923,17	1,496
923,34	2,611
923,52	2,212
923,69	1,779
923,86	1,769
924,03	2,293
924,21	1,269
924,38	3,165
924,55	3,149
924,72	2,745
924,90	2,716
925,07	2,773
925,24	2,377
925,41	2,327
925,59	1,945
925,76	2,098
925,93	2,555
926,10	2,244
926,28	2,286
926,45	2,695
926,62	2,907
926,79	1,924
926,96	2,215
927,14	2,370
927,31	1,286
927,48	2,167
927,65	2,127
927,83	2,093
928,00	2,366
928,17	2,211
928,34	1,866
928,51	2,114
928,69	2,107
928,86	1,847
929,03	3,269
929,20	2,060
929,37	1,824
929,55	2,228
929,72	2,381
929,89	2,454
930,06	2,044
930,23	2,106
930,41	2,909
930,58	2,559
930,75	2,274
930,92	2,093
931,09	2,961
931,27	2,305
931,44	1,472
931,61	3,350
931,78	2,477
931,95	2,241
932,12	2,202
932,30	2,445
932,47	3,743
932,64	2,799
932,81	3,147
932,98	2,332
933,16	3,043
933,33	3,097
933,50	3,423
933,67	4,020
933,84	2,650
934,01	3,174
934,18	2,103
934,36	2,060
934,53	2,784
934,70	3,050
934,87	3,325
935,04	3,649
935,21	2,972
935,38	3,620
935,56	3,450
935,73	3,671
935,90	3,093
936,07	3,745
936,24	4,469
936,41	3,652
936,58	3,143
936,76	3,741
936,93	2,946
937,10	3,500
937,27	3,517
937,44	3,231
937,61	3,420
937,78	3,980
937,95	3,076
938,13	3,441
938,30	3,667
938,47	4,275
938,64	4,340
938,81	3,076
938,98	4,072
939,15	3,639
939,32	4,445
939,49	4,421
939,66	4,517
939,84	4,334
940,01	4,968
940,18	4,312
940,35	3,889
940,52	2,867
940,69	5,541
940,86	4,240
941,03	4,556
941,20	5,070
941,37	4,768
941,54	2,431
941,71	2,494
941,89	4,043
942,06	4,626
942,23	4,101
942,40	3,740
942,57	4,329
942,74	4,748
942,91	4,671
943,08	5,514
943,25	4,067
943,42	4,814
943,59	3,993
943,76	5,289
943,93	4,726
944,10	4,172
944,27	4,199
944,44	4,711
944,61	3,322
944,79	4,162
944,96	4,651
945,13	4,374
945,30	3,973
945,47	5,301
945,64	5,075
945,81	5,401
945,98	5,164
946,15	4,948
946,32	4,848
946,49	6,002
946,66	4,729
946,83	4,689
947,00	4,316
947,17	4,629
947,34	4,733
947,51	4,936
947,68	6,270
947,85	4,752
948,02	4,736
948,19	6,762
948,36	4,550
948,53	5,509
948,70	6,349
948,87	5,594
949,04	4,744
949,21	3,855
949,38	5,033
949,55	5,572
949,72	3,659
949,89	4,132
950,06	2,849
950,23	7,051
950,40	5,456
950,57	3,760
950,74	7,979
950,91	5,122
951,08	4,550
951,25	6,908
951,42	6,200
951,59	5,023
951,76	5,718
951,93	6,510
952,10	4,885
952,27	5,500
952,44	5,525
952,61	6,575
952,77	5,709
952,94	5,812
953,11	8,014
953,28	5,631
953,45	7,526
953,62	6,072
953,79	7,126
953,96	7,564
954,13	6,001
954,30	8,022
954,47	6,749
954,64	6,599
954,81	8,034
954,98	9,263
955,15	6,372
955,32	7,683
955,49	8,354
955,65	8,333
955,82	9,215
955,99	8,222
956,16	12,221
956,33	6,834
956,50	5,205
956,67	9,244
956,84	6,815
957,01	10,842
957,18	11,516
957,35	11,491
957,52	8,221
957,68	8,917
957,85	8,426
958,02	11,628
958,19	9,748
958,36	15,426
958,53	13,364
958,70	8,235
958,87	12,720
959,04	15,693
959,21	13,737
959,37	16,126
959,54	15,105
959,71	12,193
959,88	11,745
960,05	16,446
960,22	9,822
960,39	14,667
960,56	11,646
960,72	16,562
960,89	23,828
961,06	18,217
961,23	16,885
961,40	20,779
961,57	17,118
961,74	17,722
961,90	16,250
962,07	25,571
962,24	17,398
962,41	22,613
962,58	27,022
962,75	23,363
962,92	26,355
963,08	16,545
963,25	23,964
963,42	22,947
963,59	23,347
963,76	25,843
963,93	19,908
964,10	25,910
964,26	30,702
964,43	32,558
964,60	27,202
964,77	24,578
964,94	23,295
965,10	39,286
965,27	21,932
965,44	33,506
965,61	33,333
965,78	38,019
965,95	33,832
966,11	40,867
966,28	27,138
966,45	28,660
966,62	40,000
966,79	54,286
966,95	25,075
967,12	37,855
967,29	44,444
967,46	55,303
967,63	55,849
967,79	41,892
967,96	36,364
968,13	44,500
968,30	34,274
968,47	46,735
968,63	69,820
968,80	60,092
968,97	43,750
969,14	73,256
969,31	48,889
969,47	54,706
969,64	47,475
969,81	56,995
969,98	67,033
970,14	84,049
970,31	64,780
970,48	65,000
970,65	78,107
970,81	73,288
970,98	80,292
971,15	95,918
971,32	47,656
971,48	75,510
971,65	77,692
971,82	86,275
971,99	96,552
972,15	88,732
972,32	78,378
972,49	90,210
972,66	110,909
972,82	79,070
972,99	104,878
973,16	136,782
973,33	113,393
973,49	88,421
973,66	136,559
973,83	66,019
974,00	126,744
974,16	96,078
974,33	110,526
974,50	107,368
974,67	160,000
974,83	70,238
975,00	90,526
975,17	116,484
975,33	104,494
975,50	113,433
975,67	206,122
975,84	217,910
976,00	135,955
976,17	185,246
976,34	111,000
976,50	139,326
976,67	133,981
976,84	2366,667
977,00	169,388
977,17	168,889
977,34	185,714
977,50	100,000
977,67	167,857
977,84	167,742
978,01	193,617
978,17	300,000
978,34	166,667
978,51	273,529
978,67	143,421
978,84	100,000
979,01	197,297
979,17	79,487
979,34	98,630
979,51	177,551
979,67	197,531
979,84	312,245
980,01	213,333
980,17	249,296
980,34	440,741
980,51	195,652
980,67	148,235
980,84	256,667
981,01	460,000
981,17	496,000
981,34	888,889
981,50	211,765
981,67	186,441
981,84	3550,000
982,00	430,000
982,17	202,381
982,34	163,333
982,50	453,333
982,67	160,417
982,84	1220,000
983,00	966,667
983,17	162,687
983,33	182,759
983,50	1740,000
983,67	-258,621
983,83	372,727
984,00	-1228,571
984,17	688,889
984,33	-4500,000
984,50	342,857
984,66	250,000
984,83	185,714
985,00	-445,833
985,16	472,414
985,33	658,824
985,49	666,667
985,66	297,059
985,83	382,609
985,99	325,641
986,16	-3175,000
986,32	700,000
986,49	9800,000
986,66	390,909
986,82	791,667
986,99	230,189
987,15	-457,895
987,32	-217,857
987,49	230,000
987,65	5300,000
987,82	316,667
987,98	206,122
988,15	476,667
988,31	970,000
988,48	-1183,333
988,65	359,524
988,81	355,556
988,98	265,854
989,14	354,762
989,31	438,095
989,47	252,941
989,64	-907,692
989,80	600,000
989,97	370,270
990,14	-243,478
990,30	-513,636
990,47	314,286
990,63	350,000
990,80	164,000
990,96	-525,000
991,13	412,500
991,29	313,793
991,46	0,000
991,62	-907,692
991,79	1108,333
991,95	13100,000
992,12	-1230,000
992,29	-362,500
992,45	190,588
992,62	327,907
992,78	322,727
992,95	-713,333
993,11	403,571
993,28	1190,000
993,44	-1190,000
993,61	-662,500
993,77	-2650,000
993,94	-4966,667
994,10	-70,667
994,27	889,474
994,43	269,767
994,60	0,000
994,76	3375,000
994,93	605,000
995,09	-770,588
995,26	1144,444
995,42	260,784
995,59	523,810
995,75	969,231
995,92	1642,857
996,08	350,000
996,25	-1200,000
996,41	-6150,000
996,58	1000,000
996,74	284,091
996,91	396,552
997,07	0,000
997,23	12600,000
997,40	-16600,000
997,56	-815,385
997,73	-1387,500
997,89	363,158
998,06	1030,769
998,22	-400,000
998,39	504,000
998,55	1566,667
998,72	-1375,000
998,88	-176,667
999,05	-92,308
999,21	419,048
999,37	-633,333
999,54	-1075,000
999,70	-206,667
999,87	531,250
1000,03	402,564
1000,20	275,000
1000,36	0,000
1000,52	504,167
1000,69	-647,619
1000,85	-1110,000
1001,02	-437,500
1001,18	2650,000
1001,35	1000,000
1001,51	664,706
1001,67	-1215,385
1001,84	-2200,000
1002,00	332,432
1002,17	854,545
1002,33	-2650,000
1002,50	466,667
1002,66	-807,692
1002,82	280,000
1002,99	1114,286
1003,15	-1957,143
1003,32	-909,091
1003,48	325,000
1003,64	773,333
1003,81	540,741
1003,97	-4450,000
1004,14	945,455
1004,30	343,333
1004,46	-786,667
1004,63	757,143
1004,79	363,889
1004,95	820,000
1005,12	3550,000
1005,28	441,379
1005,45	348,649
1005,61	482,759
1005,77	-177,083
1005,94	-390,476
1006,10	-4950,000
1006,26	984,615
1006,43	-292,308
1006,59	-1072,727
1006,76	1207,143
1006,92	1200,000
1007,08	8700,000
1007,25	-285,185
1007,41	379,310
1007,57	3300,000
1007,74	960,000
1007,90	-455,172
1008,06	234,783
1008,23	811,765
1008,39	-493,750
1008,55	-384,615
1008,72	-1557,143
1008,88	0,000
1009,04	270,732
1009,21	-221,053
1009,37	-883,333
1009,53	240,476
1009,70	2733,333
1009,86	-721,429
1010,02	2633,333
1010,19	790,909
1010,35	288,235
1010,51	-4200,000
1010,68	-1387,500
1010,84	-279,545
1011,00	468,750
1011,17	-540,909
1011,33	0,000
1011,49	-833,333
1011,66	585,714
1011,82	464,516
1011,98	714,286
1012,14	-745,455
1012,31	361,538
1012,47	0,000
1012,63	1583,333
1012,80	807,143
1012,96	-775,000
1013,12	-1216,667
1013,29	588,889
1013,45	273,171
1013,61	4300,000
1013,77	-162,500
1013,94	2320,000
1014,10	193,220
1014,26	-3050,000
1014,43	-280,000
1014,59	555,000
1014,75	-522,222
1014,91	-766,667
1015,08	280,556
1015,24	8900,000
1015,40	694,118
1015,56	-11000,000
1015,73	250,000
1015,89	618,182
1016,05	2775,000
1016,21	-1087,500
1016,38	705,263
1016,54	1130,769
1016,70	-2933,333
1016,86	306,250
1017,03	743,750
1017,19	-961,538
1017,35	-658,824
1017,51	-1800,000
1017,68	-780,000
1017,84	-1585,714
1018,00	311,905
1018,16	353,846
1018,33	-914,286
1018,49	-1116,667
1018,65	-291,892
1018,81	384,615
1018,97	-1171,429
1019,14	-4500,000
1019,30	-276,923
1019,46	0,000
1019,62	-394,118
1019,79	-4200,000
1019,95	1166,667
1020,11	8700,000
1020,27	-403,704
1020,43	-503,846
1020,60	1933,333
1020,76	638,889
1020,92	746,667
1021,08	890,000
1021,24	1480,000
1021,41	1333,333
1021,57	1575,000
1021,73	938,462
1021,89	2680,000
1022,05	-489,286
1022,21	610,000
1022,38	-466,667
1022,54	-1983,333
1022,70	317,778
1022,86	-1362,500
1023,02	575,000
1023,19	1920,000
1023,35	5400,000
1023,51	495,833
1023,67	374,074
1023,83	-350,000
1023,99	234,211
1024,16	-365,385
1024,32	-1022,222
1024,48	-1570,000
1024,64	316,667
1024,80	652,174
1024,96	415,385
1025,12	766,667
1025,29	466,667
1025,45	284,211
1025,61	611,111
1025,77	-2540,000
1025,93	-9000,000
1026,09	-1414,286
1026,26	1141,667
1026,42	375,000
1026,58	381,818
1026,74	1633,333
1026,90	312,000
1027,06	389,286
1027,22	750,000
1027,38	282,692
1027,55	3866,667
1027,71	1283,333
1027,87	-256,000
1028,03	810,000
1028,19	387,500
1028,35	640,000
1028,51	1480,000
1028,67	1083,333
1028,83	-1850,000
1029,00	-283,333
1029,16	1330,000
1029,32	-289,286
1029,48	302,222
1029,64	341,667
1029,80	3850,000
1029,96	886,667
1030,12	495,652
1030,28	-3466,667
1030,44	-784,615
1030,61	-416,667
1030,77	-100,000
1030,93	-740,000
1031,09	1450,000
1031,25	-11600,000
1031,41	-203,333
1031,57	357,692
1031,73	550,000
1031,89	-1245,455
1032,05	-255,556
1032,21	1218,182
1032,37	-133,333
1032,53	-828,571
1032,69	-145,833
1032,86	418,519
1033,02	-282,500
1033,18	-762,500
1033,34	357,895
1033,50	-4500,000
1033,66	-268,293
1033,82	582,609
1033,98	-440,741
1034,14	201,282
1034,30	290,323
1034,46	-3933,333
1034,62	710,000
1034,78	-404,762
1034,94	363,158
1035,10	-476,923
1035,26	-134,884
1035,42	-237,931
1035,58	-511,111
1035,74	566,667
1035,90	-930,769
1036,06	-1516,667
1036,22	1616,667
1036,38	-335,294
1036,54	-383,333
1036,70	-230,303
1036,86	10700,000
1037,02	600,000
1037,18	673,684
1037,34	134,286
1037,50	-107,317
1037,66	-394,118
1037,82	2740,000
1037,98	-362,963
1038,14	-272,000
1038,30	-1300,000
1038,46	-500,000
1038,62	534,783
1038,78	-2933,333
1038,94	-394,737
1039,10	445,455
1039,26	403,704
1039,42	-650,000
1039,58	1585,714
1039,74	-457,895
1039,90	428,125
1040,06	-361,538
>>>>>End Processed Spectral Data<<<<<
