SpectraSuite Data File
++++++++++++++++++++++++++++++++++++
Date: Wed Feb 01 15:58:33 EET 2017
User: optolab
Dark Spectrum Present: Yes
Reference Spectrum Present: Yes
Number of Sampled Component Spectra: 1
Spectrometers: USB4C02475
Integration Time (usec): 100000 (USB4C02475)
Spectra Averaged: 1 (USB4C02475)
Boxcar Smoothing: 0 (USB4C02475)
Correct for Electrical Dark: No (USB4C02475)
Strobe/Lamp Enabled: No (USB4C02475)
Correct for Detector Non-linearity: No (USB4C02475)
Correct for Stray Light: No (USB4C02475)
Number of Pixels in Processed Spectrum: 3648
>>>>>Begin Processed Spectral Data<<<<<
344,91	3150,000
345,13	3150,000
345,35	3150,000
345,57	0,000
345,79	378,947
346,00	-2222,222
346,22	-1571,429
346,44	370,588
346,66	-579,167
346,87	-12900,000
347,09	318,182
347,31	-345,455
347,53	-276,923
347,74	252,308
347,96	318,182
348,18	694,737
348,40	467,742
348,61	852,941
348,83	264,286
349,05	284,314
349,27	-4750,000
349,48	626,923
349,70	-441,379
349,92	435,484
350,14	216,981
350,35	296,000
350,57	2625,000
350,79	540,000
351,01	-690,476
351,22	200,000
351,44	784,615
351,66	-348,000
351,87	-590,476
352,09	236,538
352,31	214,754
352,53	167,188
352,74	355,556
352,96	233,766
353,18	742,105
353,40	456,000
353,61	306,667
353,83	232,353
354,05	1145,455
354,26	2233,333
354,48	270,000
354,70	312,121
354,92	-365,517
355,13	202,020
355,35	331,818
355,57	479,167
355,78	216,867
356,00	-2875,000
356,22	384,615
356,44	6650,000
356,65	288,636
356,87	534,615
357,09	650,000
357,30	260,000
357,52	363,793
357,74	645,000
357,95	358,974
358,17	193,443
358,39	240,323
358,60	286,486
358,82	483,333
359,04	548,148
359,26	434,286
359,47	9000,000
359,69	320,000
359,91	339,394
360,12	566,667
360,34	579,167
360,56	-150,000
360,77	2450,000
360,99	595,238
361,21	264,000
361,42	6450,000
361,64	248,980
361,86	256,923
362,07	-551,613
362,29	214,667
362,51	-558,824
362,72	540,000
362,94	350,000
363,16	225,581
363,37	-942,857
363,59	438,462
363,81	404,545
364,02	627,778
364,24	570,833
364,46	3366,667
364,67	963,636
364,89	2214,286
365,11	177,143
365,32	465,517
365,54	380,556
365,76	257,143
365,97	464,706
366,19	227,586
366,41	659,091
366,62	425,926
366,84	353,488
367,05	342,857
367,27	2316,667
367,49	-638,462
367,70	664,706
367,92	231,148
368,14	331,250
368,35	-7600,000
368,57	472,000
368,79	462,069
369,00	258,696
369,22	-1575,000
369,43	223,529
369,65	216,129
369,87	418,919
370,08	161,446
370,30	176,786
370,51	216,393
370,73	226,667
370,95	240,323
371,16	230,952
371,38	350,000
371,60	1212,500
371,81	200,000
372,03	806,667
372,24	443,333
372,46	220,755
372,68	165,714
372,89	351,515
373,11	326,923
373,32	377,273
373,54	-746,154
373,76	815,385
373,97	773,333
374,19	627,273
374,40	253,125
374,62	-4666,667
374,84	4100,000
375,05	525,000
375,27	274,000
375,48	-8200,000
375,70	184,000
375,92	223,214
376,13	434,375
376,35	189,041
376,56	1087,500
376,78	259,722
376,99	450,000
377,21	293,750
377,43	218,182
377,64	182,609
377,86	368,966
378,07	351,282
378,29	-1100,000
378,51	519,355
378,72	279,167
378,94	-1355,556
379,15	218,182
379,37	723,529
379,58	209,231
379,80	600,000
380,01	856,250
380,23	278,431
380,45	1800,000
380,66	4533,333
380,88	238,636
381,09	207,143
381,31	200,000
381,52	300,000
381,74	1311,111
381,95	504,545
382,17	496,154
382,39	580,952
382,60	208,163
382,82	335,897
383,03	282,692
383,25	400,000
383,46	325,000
383,68	422,222
383,89	475,000
384,11	487,097
384,32	-3066,667
384,54	466,667
384,76	-4633,333
384,97	200,000
385,19	475,862
385,40	268,627
385,62	222,807
385,83	238,095
386,05	196,078
386,26	318,000
386,48	217,241
386,69	252,083
386,91	330,000
387,12	220,339
387,34	243,103
387,55	237,097
387,77	459,375
387,98	430,769
388,20	147,826
388,41	408,824
388,63	4300,000
388,84	206,557
389,06	395,238
389,27	678,947
389,49	380,556
389,70	234,694
389,92	223,333
390,13	273,469
390,35	252,941
390,56	261,111
390,78	488,889
390,99	1130,000
391,21	573,684
391,42	251,111
391,64	217,073
391,85	191,379
392,07	259,091
392,28	168,000
392,50	403,030
392,71	-1012,500
392,93	240,385
393,14	363,889
393,36	240,816
393,57	133,835
393,79	1444,444
394,00	219,149
394,22	132,877
394,43	191,566
394,65	172,093
394,86	1362,500
395,08	423,810
395,29	158,491
395,50	300,000
395,72	522,222
395,93	723,810
396,15	181,690
396,36	161,765
396,58	248,333
396,79	285,000
397,01	280,000
397,22	266,667
397,44	180,303
397,65	164,912
397,87	354,762
398,08	189,796
398,29	365,625
398,51	225,000
398,72	251,220
398,94	146,154
399,15	325,714
399,37	240,351
399,58	179,121
399,80	518,182
400,01	227,778
400,22	500,000
400,44	212,346
400,65	475,000
400,87	197,059
401,08	197,143
401,30	250,000
401,51	240,351
401,72	242,308
401,94	111,392
402,15	420,000
402,37	158,824
402,58	522,222
402,80	242,857
403,01	167,606
403,22	1181,818
403,44	255,072
403,65	180,357
403,87	155,714
404,08	353,846
404,30	120,000
404,51	-3233,333
404,72	134,286
404,94	121,569
405,15	134,000
405,37	155,696
405,58	161,176
405,79	142,683
406,01	297,561
406,22	201,724
406,44	242,553
406,65	231,579
406,86	152,083
407,08	186,076
407,29	115,534
407,51	158,537
407,72	143,519
407,93	128,261
408,15	119,658
408,36	209,302
408,58	161,856
408,79	115,000
409,00	206,250
409,22	188,889
409,43	167,089
409,64	117,391
409,86	97,484
410,07	139,231
410,29	114,179
410,50	130,496
410,71	110,714
410,93	94,904
411,14	129,457
411,35	113,095
411,57	115,789
411,78	107,031
412,00	102,548
412,21	112,903
412,42	92,593
412,64	84,979
412,85	79,381
413,06	67,683
413,28	82,883
413,49	94,313
413,70	84,058
413,92	84,980
414,13	51,037
414,34	73,946
414,56	54,545
414,77	84,810
414,98	63,423
415,20	55,363
415,41	65,722
415,63	59,453
415,84	57,222
416,05	54,121
416,27	56,331
416,48	63,202
416,69	50,221
416,91	50,270
417,12	52,139
417,33	49,474
417,55	41,449
417,76	55,031
417,97	46,680
418,19	38,569
418,40	44,255
418,61	46,852
418,83	43,273
419,04	40,063
419,25	37,227
419,46	38,195
419,68	37,302
419,89	39,046
420,10	38,231
420,32	38,107
420,53	39,037
420,74	43,456
420,96	37,625
421,17	37,991
421,38	41,893
421,60	36,755
421,81	39,180
422,02	41,902
422,23	36,150
422,45	31,923
422,66	36,851
422,87	34,438
423,09	36,378
423,30	33,965
423,51	34,252
423,73	29,707
423,94	26,751
424,15	27,415
424,36	24,543
424,58	23,625
424,79	22,736
425,00	20,619
425,22	20,904
425,43	19,098
425,64	18,763
425,85	15,343
426,07	19,388
426,28	14,925
426,49	12,778
426,71	14,613
426,92	12,655
427,13	11,077
427,34	11,379
427,56	12,156
427,77	10,174
427,98	10,965
428,19	8,664
428,41	10,847
428,62	8,315
428,83	8,576
429,04	9,376
429,26	8,820
429,47	7,351
429,68	8,011
429,89	7,481
430,11	7,911
430,32	7,302
430,53	6,681
430,74	4,726
430,96	5,125
431,17	4,795
431,38	4,474
431,59	3,798
431,81	2,657
432,02	3,155
432,23	2,986
432,44	3,266
432,66	2,955
432,87	2,354
433,08	3,576
433,29	2,591
433,51	1,075
433,72	1,815
433,93	1,697
434,14	2,377
434,35	1,296
434,57	2,246
434,78	1,345
434,99	1,627
435,20	1,893
435,42	1,263
435,63	1,590
435,84	1,311
436,05	1,568
436,26	0,965
436,48	1,277
436,69	1,055
436,90	1,371
437,11	1,523
437,32	1,730
437,54	1,271
437,75	1,183
437,96	2,100
438,17	1,080
438,38	1,367
438,60	1,257
438,81	1,052
439,02	1,379
439,23	1,070
439,44	1,309
439,66	1,430
439,87	1,531
440,08	0,719
440,29	0,914
440,50	1,137
440,72	0,864
440,93	1,010
441,14	1,087
441,35	0,925
441,56	0,856
441,77	1,080
441,99	1,021
442,20	0,680
442,41	0,889
442,62	0,703
442,83	0,883
443,04	0,599
443,26	0,878
443,47	1,034
443,68	0,711
443,89	0,722
444,10	0,567
444,31	0,837
444,53	0,830
444,74	0,874
444,95	0,705
445,16	0,749
445,37	0,785
445,58	1,017
445,80	0,529
446,01	0,871
446,22	0,523
446,43	0,801
446,64	0,858
446,85	0,731
447,06	0,784
447,28	0,458
447,49	0,903
447,70	0,999
447,91	0,984
448,12	0,764
448,33	0,861
448,54	0,798
448,76	0,878
448,97	0,852
449,18	0,666
449,39	0,804
449,60	0,697
449,81	0,837
450,02	0,962
450,23	0,737
450,45	0,855
450,66	0,781
450,87	0,803
451,08	0,835
451,29	1,193
451,50	0,892
451,71	0,977
451,92	0,886
452,13	0,659
452,35	1,200
452,56	0,666
452,77	1,049
452,98	0,593
453,19	0,722
453,40	0,710
453,61	1,060
453,82	0,834
454,03	0,808
454,25	1,277
454,46	1,167
454,67	1,250
454,88	1,080
455,09	1,555
455,30	1,743
455,51	1,613
455,72	1,855
455,93	1,835
456,14	2,544
456,35	2,807
456,56	3,236
456,78	3,311
456,99	3,812
457,20	4,615
457,41	4,678
457,62	5,422
457,83	5,762
458,04	6,454
458,25	7,410
458,46	7,667
458,67	8,633
458,88	9,659
459,09	10,442
459,30	11,324
459,51	12,472
459,73	14,078
459,94	15,071
460,15	16,922
460,36	17,679
460,57	19,214
460,78	20,391
460,99	21,603
461,20	22,952
461,41	25,071
461,62	25,591
461,83	27,878
462,04	30,007
462,25	31,735
462,46	32,684
462,67	34,547
462,88	36,151
463,09	37,642
463,30	39,057
463,51	40,889
463,72	40,922
463,93	42,346
464,15	42,999
464,36	43,098
464,57	43,297
464,78	43,952
464,99	43,196
465,20	42,913
465,41	43,153
465,62	42,365
465,83	42,078
466,04	41,247
466,25	40,170
466,46	39,652
466,67	38,820
466,88	37,140
467,09	35,845
467,30	35,023
467,51	34,072
467,72	33,789
467,93	33,254
468,14	33,525
468,35	33,419
468,56	34,244
468,77	35,567
468,98	36,856
469,19	38,389
469,40	39,252
469,61	42,523
469,82	43,577
470,03	45,917
470,24	48,557
470,45	50,445
470,66	52,375
470,87	54,710
471,08	56,479
471,29	57,435
471,50	59,474
471,71	59,402
471,92	60,320
472,13	60,731
472,34	60,492
472,55	59,735
472,76	58,692
472,97	58,061
473,18	57,051
473,39	55,283
473,60	54,663
473,81	54,037
474,01	52,901
474,22	53,505
474,43	52,470
474,64	53,075
474,85	52,574
475,06	53,121
475,27	54,111
475,48	54,713
475,69	54,255
475,90	55,700
476,11	56,868
476,32	57,676
476,53	59,155
476,74	60,357
476,95	62,543
477,16	62,848
477,37	63,739
477,58	64,687
477,79	66,339
478,00	66,516
478,21	67,751
478,41	67,403
478,62	67,387
478,83	66,671
479,04	67,267
479,25	65,606
479,46	64,798
479,67	64,032
479,88	63,877
480,09	63,801
480,30	63,427
480,51	63,372
480,72	62,069
480,93	61,648
481,14	62,606
481,34	61,067
481,55	61,709
481,76	60,798
481,97	61,088
482,18	60,223
482,39	58,889
482,60	57,435
482,81	56,380
483,02	55,801
483,23	54,439
483,44	54,441
483,65	53,028
483,85	52,220
484,06	51,639
484,27	50,527
484,48	50,830
484,69	50,176
484,90	50,098
485,11	49,496
485,32	49,031
485,53	49,032
485,73	49,399
485,94	48,557
486,15	48,448
486,36	48,187
486,57	48,446
486,78	48,630
486,99	49,004
487,20	48,911
487,41	48,683
487,61	48,745
487,82	49,100
488,03	49,396
488,24	50,572
488,45	49,998
488,66	50,461
488,87	51,086
489,08	49,582
489,28	50,490
489,49	50,672
489,70	50,390
489,91	50,887
490,12	50,221
490,33	50,239
490,54	49,975
490,74	50,127
490,95	49,745
491,16	50,058
491,37	49,903
491,58	49,455
491,79	49,500
492,00	49,309
492,20	48,908
492,41	48,168
492,62	47,946
492,83	47,303
493,04	47,220
493,25	46,002
493,45	45,523
493,66	45,164
493,87	45,365
494,08	44,667
494,29	44,628
494,50	44,250
494,70	44,139
494,91	44,286
495,12	43,494
495,33	43,560
495,54	42,602
495,75	43,148
495,95	41,852
496,16	41,477
496,37	41,084
496,58	40,369
496,79	39,912
496,99	38,315
497,20	37,957
497,41	36,046
497,62	34,950
497,83	33,571
498,04	31,593
498,24	30,658
498,45	29,179
498,66	27,633
498,87	26,215
499,08	25,118
499,28	23,581
499,49	22,600
499,70	21,145
499,91	19,948
500,12	18,830
500,32	17,940
500,53	16,878
500,74	15,877
500,95	14,660
501,15	13,463
501,36	12,696
501,57	11,803
501,78	10,797
501,99	9,842
502,19	8,946
502,40	8,287
502,61	7,339
502,82	6,767
503,02	6,000
503,23	5,424
503,44	4,773
503,65	4,248
503,86	3,680
504,06	3,231
504,27	2,808
504,48	2,490
504,69	2,040
504,89	1,800
505,10	1,561
505,31	1,191
505,52	1,023
505,72	0,922
505,93	0,880
506,14	0,869
506,35	0,708
506,55	0,681
506,76	0,795
506,97	0,589
507,18	0,770
507,38	0,576
507,59	0,639
507,80	0,606
508,01	0,563
508,21	0,626
508,42	0,775
508,63	0,668
508,84	0,420
509,04	0,595
509,25	0,529
509,46	0,682
509,67	0,641
509,87	0,480
510,08	0,700
510,29	0,653
510,49	0,563
510,70	0,560
510,91	0,566
511,12	0,580
511,32	0,518
511,53	0,715
511,74	0,443
511,94	0,671
512,15	0,592
512,36	0,473
512,57	0,498
512,77	0,600
512,98	0,556
513,19	0,456
513,39	0,556
513,60	0,553
513,81	0,507
514,01	0,713
514,22	0,755
514,43	0,892
514,64	0,529
514,84	0,594
515,05	0,420
515,26	0,632
515,46	0,549
515,67	0,689
515,88	0,553
516,08	0,561
516,29	0,693
516,50	0,656
516,70	0,423
516,91	0,696
517,12	0,551
517,32	0,681
517,53	0,680
517,74	0,729
517,95	0,426
518,15	0,597
518,36	0,565
518,57	0,579
518,77	0,433
518,98	0,443
519,19	0,497
519,39	0,622
519,60	0,623
519,80	0,876
520,01	0,574
520,22	0,606
520,42	0,528
520,63	0,504
520,84	0,546
521,04	0,732
521,25	0,817
521,46	0,657
521,66	0,619
521,87	0,468
522,08	0,681
522,28	0,845
522,49	0,505
522,70	0,768
522,90	0,798
523,11	0,598
523,31	1,028
523,52	0,681
523,73	0,949
523,93	0,822
524,14	0,912
524,35	1,021
524,55	1,292
524,76	1,196
524,97	1,376
525,17	1,593
525,38	1,700
525,58	2,215
525,79	2,283
526,00	2,389
526,20	2,946
526,41	3,403
526,61	3,944
526,82	4,571
527,03	5,212
527,23	5,616
527,44	6,580
527,64	7,326
527,85	8,418
528,06	9,627
528,26	10,807
528,47	11,912
528,68	13,062
528,88	14,683
529,09	15,948
529,29	17,914
529,50	19,671
529,70	20,920
529,91	23,006
530,12	24,567
530,32	25,816
530,53	28,443
530,73	29,612
530,94	31,449
531,15	33,579
531,35	34,455
531,56	36,606
531,76	37,592
531,97	39,094
532,17	40,695
532,38	41,386
532,59	42,742
532,79	43,814
533,00	45,036
533,20	45,684
533,41	46,886
533,61	47,074
533,82	47,922
534,03	49,032
534,23	50,588
534,44	50,870
534,64	51,531
534,85	51,685
535,05	53,176
535,26	54,139
535,46	55,014
535,67	55,822
535,88	55,973
536,08	56,804
536,29	57,528
536,49	58,450
536,70	58,546
536,90	58,162
537,11	58,131
537,31	57,843
537,52	58,461
537,72	58,247
537,93	57,077
538,13	57,010
538,34	57,110
538,55	56,956
538,75	56,526
538,96	57,033
539,16	56,642
539,37	57,581
539,57	57,998
539,78	57,987
539,98	59,525
540,19	59,794
540,39	60,472
540,60	60,654
540,80	62,254
541,01	63,202
541,21	64,221
541,42	64,224
541,62	65,201
541,83	66,037
542,03	67,588
542,24	68,600
542,44	69,982
542,65	69,848
542,85	70,959
543,06	72,022
543,26	72,896
543,47	74,295
543,67	74,877
543,88	76,814
544,08	77,685
544,29	78,307
544,49	78,197
544,70	78,331
544,90	79,868
545,11	80,403
545,31	79,835
545,52	79,272
545,72	79,930
545,93	79,666
546,13	80,073
546,34	79,838
546,54	78,435
546,75	78,791
546,95	78,165
547,15	77,344
547,36	76,757
547,56	75,422
547,77	74,274
547,97	72,626
548,18	71,356
548,38	69,642
548,59	68,637
548,79	67,231
549,00	65,698
549,20	65,012
549,41	62,894
549,61	61,610
549,81	60,466
550,02	58,402
550,22	57,577
550,43	56,204
550,63	55,141
550,84	53,995
551,04	52,840
551,25	52,058
551,45	49,635
551,65	49,003
551,86	48,801
552,06	48,213
552,27	46,769
552,47	46,473
552,68	46,171
552,88	44,442
553,08	43,497
553,29	43,713
553,49	43,085
553,70	42,849
553,90	41,733
554,11	42,426
554,31	41,423
554,51	41,349
554,72	41,007
554,92	40,859
555,13	40,734
555,33	40,641
555,53	40,139
555,74	39,536
555,94	39,542
556,15	38,825
556,35	38,058
556,56	37,876
556,76	37,299
556,96	36,795
557,17	35,982
557,37	36,022
557,58	36,292
557,78	34,462
557,98	34,198
558,19	33,735
558,39	34,023
558,59	33,437
558,80	33,184
559,00	33,650
559,21	33,217
559,41	33,088
559,61	33,131
559,82	34,114
560,02	33,715
560,23	33,987
560,43	33,747
560,63	33,956
560,84	33,328
561,04	33,168
561,24	33,095
561,45	32,468
561,65	31,963
561,85	31,642
562,06	30,583
562,26	30,403
562,47	29,657
562,67	29,359
562,87	28,826
563,08	28,015
563,28	27,812
563,48	26,918
563,69	27,146
563,89	26,248
564,09	25,985
564,30	25,137
564,50	25,161
564,70	24,505
564,91	23,570
565,11	22,981
565,31	22,357
565,52	22,071
565,72	21,616
565,92	21,341
566,13	20,651
566,33	20,151
566,53	20,344
566,74	19,966
566,94	18,891
567,14	18,591
567,35	17,540
567,55	16,841
567,75	15,834
567,96	14,659
568,16	13,889
568,36	12,680
568,57	11,745
568,77	10,960
568,97	9,836
569,18	9,145
569,38	8,395
569,58	7,472
569,79	6,908
569,99	6,325
570,19	5,441
570,39	4,666
570,60	4,171
570,80	3,524
571,00	3,342
571,21	2,869
571,41	2,506
571,61	2,215
571,82	1,880
572,02	1,773
572,22	1,605
572,42	1,195
572,63	1,213
572,83	0,883
573,03	0,885
573,24	0,825
573,44	0,576
573,64	0,741
573,84	0,689
574,05	0,664
574,25	0,642
574,45	0,419
574,66	0,420
574,86	0,526
575,06	0,451
575,26	0,440
575,47	0,595
575,67	0,639
575,87	0,472
576,07	0,433
576,28	0,566
576,48	0,550
576,68	0,548
576,88	0,303
577,09	0,472
577,29	0,329
577,49	0,521
577,69	0,517
577,90	0,598
578,10	0,381
578,30	0,370
578,50	0,547
578,71	0,590
578,91	0,365
579,11	0,534
579,31	0,433
579,52	0,400
579,72	0,488
579,92	0,298
580,12	0,448
580,33	0,486
580,53	0,504
580,73	0,438
580,93	0,463
581,13	0,485
581,34	0,514
581,54	0,394
581,74	0,480
581,94	0,592
582,15	0,204
582,35	0,286
582,55	0,648
582,75	0,517
582,95	0,432
583,16	0,290
583,36	0,570
583,56	0,462
583,76	0,422
583,96	0,576
584,17	0,551
584,37	0,587
584,57	0,499
584,77	0,365
584,97	0,509
585,18	0,586
585,38	0,490
585,58	0,408
585,78	0,432
585,98	0,505
586,19	0,510
586,39	0,513
586,59	0,595
586,79	0,382
586,99	0,387
587,20	0,251
587,40	0,488
587,60	0,293
587,80	0,707
588,00	0,505
588,20	0,255
588,41	0,533
588,61	0,412
588,81	0,351
589,01	0,454
589,21	0,524
589,41	0,536
589,62	0,561
589,82	0,372
590,02	0,371
590,22	0,601
590,42	0,414
590,62	0,395
590,83	0,493
591,03	0,493
591,23	0,353
591,43	0,725
591,63	0,616
591,83	0,411
592,03	0,487
592,24	0,499
592,44	0,530
592,64	0,381
592,84	0,528
593,04	0,575
593,24	0,539
593,44	0,482
593,65	0,593
593,85	0,445
594,05	0,381
594,25	0,706
594,45	0,560
594,65	0,732
594,85	0,826
595,06	0,799
595,26	0,928
595,46	0,834
595,66	1,060
595,86	1,229
596,06	1,398
596,26	1,280
596,46	1,509
596,66	1,709
596,87	1,938
597,07	2,001
597,27	2,461
597,47	2,705
597,67	3,220
597,87	3,661
598,07	3,719
598,27	4,388
598,47	4,810
598,67	5,097
598,88	5,944
599,08	6,591
599,28	6,851
599,48	8,207
599,68	8,792
599,88	9,531
600,08	10,738
600,28	11,361
600,48	12,556
600,68	13,455
600,88	14,723
601,09	16,127
601,29	17,204
601,49	18,269
601,69	20,014
601,89	21,223
602,09	22,363
602,29	23,455
602,49	24,326
602,69	26,018
602,89	26,769
603,09	27,525
603,29	28,326
603,49	28,722
603,69	29,514
603,90	29,838
604,10	30,633
604,30	30,792
604,50	31,257
604,70	31,742
604,90	32,252
605,10	32,494
605,30	32,892
605,50	33,364
605,70	34,151
605,90	34,466
606,10	35,057
606,30	35,901
606,50	36,924
606,70	38,298
606,90	39,975
607,10	40,521
607,30	42,203
607,50	43,451
607,70	44,802
607,90	46,225
608,10	47,729
608,30	48,790
608,50	50,975
608,70	51,439
608,90	53,285
609,11	54,756
609,31	54,956
609,51	56,272
609,71	56,959
609,91	58,925
610,11	58,914
610,31	59,210
610,51	59,263
610,71	60,267
610,91	60,175
611,11	59,692
611,31	59,753
611,51	58,920
611,71	58,130
611,91	57,686
612,11	57,794
612,31	56,402
612,51	55,056
612,71	54,931
612,91	53,371
613,11	52,344
613,31	52,127
613,51	50,668
613,71	50,254
613,91	49,371
614,11	49,168
614,31	47,891
614,50	47,875
614,70	47,105
614,90	47,218
615,10	46,537
615,30	45,462
615,50	45,169
615,70	45,143
615,90	45,570
616,10	44,804
616,30	45,051
616,50	44,858
616,70	44,678
616,90	44,907
617,10	44,693
617,30	44,660
617,50	44,329
617,70	44,801
617,90	44,894
618,10	44,121
618,30	43,786
618,50	43,567
618,70	43,953
618,90	43,948
619,10	43,709
619,30	42,733
619,49	43,092
619,69	42,934
619,89	42,839
620,09	42,327
620,29	43,108
620,49	42,123
620,69	42,579
620,89	42,645
621,09	41,999
621,29	41,774
621,49	42,171
621,69	41,440
621,89	42,313
622,09	41,957
622,29	42,256
622,48	42,640
622,68	41,865
622,88	42,876
623,08	42,996
623,28	42,743
623,48	43,330
623,68	43,728
623,88	44,026
624,08	43,350
624,28	43,356
624,48	43,199
624,67	42,811
624,87	42,704
625,07	42,858
625,27	41,976
625,47	42,384
625,67	41,909
625,87	40,763
626,07	40,634
626,27	39,765
626,47	39,950
626,66	39,249
626,86	38,371
627,06	37,493
627,26	36,789
627,46	35,378
627,66	35,048
627,86	34,030
628,06	33,578
628,25	32,229
628,45	31,907
628,65	31,664
628,85	30,128
629,05	30,240
629,25	29,634
629,45	28,576
629,65	28,456
629,84	28,382
630,04	27,522
630,24	27,661
630,44	26,818
630,64	26,776
630,84	26,215
631,04	25,436
631,23	24,588
631,43	24,571
631,63	22,926
631,83	22,524
632,03	21,209
632,23	20,380
632,42	19,263
632,62	17,617
632,82	16,291
633,02	15,202
633,22	14,382
633,42	13,304
633,62	12,082
633,81	11,398
634,01	9,989
634,21	9,522
634,41	8,807
634,61	8,657
634,80	7,957
635,00	7,614
635,20	7,661
635,40	7,828
635,60	7,753
635,80	7,726
635,99	8,613
636,19	8,857
636,39	9,614
636,59	10,202
636,79	11,046
636,98	11,491
637,18	12,390
637,38	13,159
637,58	14,043
637,78	14,377
637,97	14,831
638,17	15,006
638,37	14,492
638,57	15,044
638,77	14,712
638,96	14,928
639,16	14,456
639,36	13,847
639,56	13,316
639,76	12,365
639,95	11,993
640,15	10,907
640,35	10,803
640,55	9,980
640,75	9,245
640,94	8,427
641,14	7,840
641,34	7,200
641,54	6,461
641,73	5,808
641,93	5,574
642,13	4,925
642,33	4,670
642,53	3,946
642,72	4,444
642,92	3,743
643,12	3,049
643,32	3,021
643,51	2,799
643,71	2,373
643,91	2,075
644,11	2,277
644,30	1,860
644,50	1,526
644,70	1,638
644,90	0,883
645,09	1,230
645,29	0,656
645,49	1,363
645,69	1,057
645,88	1,007
646,08	1,129
646,28	1,191
646,48	0,731
646,67	0,822
646,87	1,018
647,07	0,649
647,26	0,973
647,46	0,802
647,66	0,988
647,86	1,244
648,05	0,548
648,25	1,118
648,45	1,054
648,65	1,008
648,84	0,784
649,04	0,903
649,24	1,052
649,43	0,616
649,63	1,134
649,83	1,133
650,03	0,760
650,22	0,826
650,42	0,868
650,62	0,848
650,81	0,622
651,01	0,785
651,21	0,704
651,40	0,541
651,60	0,944
651,80	0,468
652,00	0,841
652,19	0,894
652,39	1,310
652,59	0,673
652,78	0,885
652,98	0,881
653,18	0,514
653,37	0,787
653,57	1,006
653,77	0,594
653,96	0,773
654,16	1,178
654,36	0,667
654,55	1,227
654,75	0,894
654,95	0,953
655,14	0,746
655,34	0,959
655,54	0,510
655,73	0,582
655,93	1,365
656,13	0,736
656,32	0,224
656,52	0,349
656,72	1,072
656,91	0,933
657,11	1,037
657,31	0,584
657,50	0,457
657,70	0,721
657,90	0,620
658,09	0,980
658,29	0,941
658,49	0,741
658,68	0,802
658,88	0,878
659,07	0,586
659,27	0,502
659,47	1,129
659,66	0,444
659,86	1,316
660,06	0,681
660,25	0,494
660,45	0,884
660,64	0,796
660,84	0,775
661,04	1,154
661,23	0,660
661,43	0,837
661,63	0,679
661,82	0,588
662,02	0,909
662,21	0,771
662,41	0,448
662,61	0,771
662,80	0,564
663,00	0,638
663,19	0,816
663,39	0,835
663,59	1,019
663,78	0,674
663,98	0,706
664,17	0,578
664,37	0,901
664,57	0,756
664,76	0,982
664,96	0,736
665,15	0,447
665,35	0,782
665,55	0,231
665,74	0,752
665,94	0,871
666,13	1,115
666,33	0,500
666,53	0,743
666,72	0,485
666,92	0,723
667,11	0,969
667,31	0,766
667,50	0,816
667,70	1,111
667,90	0,829
668,09	0,680
668,29	0,994
668,48	0,784
668,68	0,791
668,87	0,767
669,07	0,959
669,26	1,008
669,46	0,667
669,66	0,701
669,85	0,898
670,05	0,503
670,24	1,005
670,44	0,446
670,63	0,578
670,83	0,772
671,02	0,925
671,22	1,022
671,42	0,772
671,61	0,753
671,81	0,701
672,00	0,853
672,20	0,530
672,39	0,713
672,59	0,448
672,78	0,480
672,98	0,718
673,17	0,934
673,37	0,785
673,56	0,655
673,76	0,652
673,95	0,736
674,15	0,173
674,34	0,707
674,54	0,525
674,73	0,597
674,93	0,807
675,13	0,565
675,32	0,693
675,52	1,088
675,71	0,715
675,91	0,547
676,10	0,453
676,30	0,411
676,49	0,441
676,69	0,894
676,88	0,754
677,08	0,681
677,27	0,583
677,47	0,525
677,66	0,818
677,86	0,808
678,05	0,687
678,24	0,308
678,44	0,721
678,63	0,631
678,83	0,599
679,02	0,432
679,22	0,473
679,41	0,687
679,61	0,412
679,80	0,567
680,00	0,679
680,19	0,531
680,39	0,646
680,58	0,245
680,78	0,428
680,97	0,270
681,17	0,511
681,36	0,467
681,56	0,643
681,75	0,409
681,94	0,362
682,14	0,718
682,33	0,613
682,53	0,692
682,72	0,693
682,92	0,646
683,11	0,548
683,31	0,411
683,50	0,390
683,69	0,511
683,89	0,343
684,08	0,459
684,28	0,433
684,47	0,471
684,67	0,385
684,86	0,121
685,06	0,187
685,25	0,374
685,44	0,295
685,64	0,472
685,83	0,341
686,03	0,403
686,22	0,273
686,42	0,172
686,61	0,556
686,80	0,423
687,00	0,313
687,19	0,466
687,39	0,446
687,58	0,273
687,77	0,086
687,97	0,329
688,16	0,341
688,36	0,322
688,55	0,216
688,74	0,405
688,94	0,154
689,13	0,294
689,33	0,384
689,52	0,493
689,71	0,236
689,91	0,290
690,10	0,358
690,30	0,286
690,49	0,464
690,68	0,429
690,88	0,284
691,07	0,193
691,27	0,258
691,46	0,239
691,65	0,444
691,85	0,415
692,04	0,198
692,23	0,216
692,43	0,131
692,62	0,509
692,82	0,494
693,01	0,296
693,20	0,486
693,40	0,336
693,59	0,343
693,78	0,309
693,98	0,334
694,17	0,313
694,36	0,557
694,56	0,500
694,75	0,296
694,94	0,469
695,14	0,477
695,33	0,288
695,53	0,484
695,72	0,398
695,91	0,334
696,11	0,367
696,30	0,251
696,49	0,316
696,69	0,352
696,88	0,505
697,07	0,355
697,27	0,456
697,46	0,415
697,65	0,467
697,85	0,183
698,04	0,697
698,23	0,687
698,43	0,457
698,62	0,631
698,81	0,496
699,01	0,900
699,20	0,541
699,39	0,615
699,58	0,834
699,78	0,746
699,97	0,623
700,16	0,547
700,36	0,402
700,55	0,768
700,74	0,570
700,94	0,844
701,13	0,898
701,32	1,486
701,52	1,077
701,71	0,416
701,90	1,304
702,09	1,036
702,29	1,234
702,48	0,759
702,67	1,122
702,87	0,875
703,06	1,370
703,25	1,643
703,44	0,957
703,64	1,935
703,83	1,536
704,02	1,510
704,22	1,548
704,41	1,101
704,60	2,373
704,79	1,668
704,99	0,999
705,18	2,188
705,37	1,417
705,56	2,304
705,76	2,410
705,95	2,600
706,14	1,457
706,33	2,967
706,53	1,838
706,72	2,103
706,91	2,083
707,11	2,937
707,30	2,980
707,49	2,642
707,68	1,586
707,88	2,558
708,07	1,781
708,26	2,447
708,45	2,338
708,64	2,365
708,84	2,668
709,03	2,852
709,22	2,858
709,41	3,521
709,61	4,066
709,80	3,626
709,99	2,976
710,18	3,632
710,38	2,589
710,57	2,437
710,76	0,999
710,95	2,643
711,14	4,560
711,34	2,688
711,53	3,148
711,72	2,510
711,91	4,040
712,11	5,414
712,30	4,713
712,49	4,555
712,68	4,426
712,87	4,617
713,07	5,959
713,26	2,876
713,45	5,058
713,64	3,875
713,83	3,397
714,03	4,998
714,22	2,955
714,41	5,113
714,60	5,015
714,79	3,638
714,99	2,165
715,18	3,746
715,37	5,823
715,56	5,944
715,75	4,393
715,94	5,115
716,14	3,735
716,33	4,472
716,52	4,574
716,71	5,810
716,90	6,516
717,10	6,026
717,29	5,886
717,48	8,665
717,67	2,441
717,86	2,781
718,05	2,578
718,24	7,549
718,44	7,060
718,63	0,846
718,82	7,746
719,01	7,236
719,20	6,172
719,39	6,658
719,59	2,701
719,78	5,616
719,97	6,695
720,16	10,350
720,35	7,514
720,54	7,193
720,73	5,718
720,93	8,029
721,12	4,502
721,31	9,626
721,50	4,451
721,69	4,707
721,88	6,938
722,07	6,651
722,27	6,179
722,46	7,587
722,65	4,415
722,84	6,593
723,03	4,966
723,22	7,643
723,41	7,077
723,60	11,028
723,79	8,682
723,99	7,990
724,18	8,415
724,37	7,155
724,56	12,400
724,75	9,982
724,94	12,729
725,13	11,246
725,32	6,654
725,51	5,800
725,71	5,303
725,90	6,667
726,09	11,051
726,28	13,793
726,47	8,691
726,66	8,000
726,85	8,709
727,04	7,061
727,23	9,642
727,42	11,024
727,61	5,820
727,81	11,679
728,00	14,315
728,19	8,810
728,38	6,371
728,57	12,159
728,76	11,795
728,95	10,826
729,14	10,306
729,33	9,550
729,52	13,836
729,71	11,481
729,90	9,414
730,09	13,785
730,28	10,855
730,48	13,921
730,67	11,487
730,86	3,358
731,05	13,902
731,24	8,323
731,43	12,201
731,62	13,158
731,81	7,878
732,00	13,088
732,19	9,579
732,38	9,948
732,57	9,673
732,76	13,810
732,95	7,333
733,14	7,282
733,33	9,341
733,52	17,312
733,71	9,834
733,90	18,766
734,09	14,856
734,28	19,034
734,47	12,237
734,66	8,684
734,85	13,617
735,04	19,482
735,23	12,566
735,42	18,732
735,61	17,333
735,81	12,966
736,00	17,771
736,19	17,751
736,38	13,630
736,57	13,370
736,76	14,729
736,95	11,970
737,14	20,517
737,33	17,496
737,52	14,480
737,71	12,179
737,90	19,213
738,09	20,706
738,28	16,746
738,47	14,706
738,66	9,844
738,85	10,997
739,04	21,392
739,22	10,980
739,41	15,645
739,60	8,194
739,79	15,068
739,98	2,541
740,17	14,286
740,36	21,964
740,55	27,690
740,74	17,739
740,93	13,821
741,12	15,074
741,31	13,235
741,50	15,443
741,69	9,259
741,88	8,600
742,07	13,538
742,26	6,554
742,45	18,775
742,64	24,640
742,83	12,766
743,02	17,117
743,21	31,388
743,40	15,931
743,59	10,656
743,78	20,742
743,97	25,000
744,16	19,069
744,34	24,016
744,53	15,369
744,72	25,988
744,91	9,263
745,10	17,336
745,29	15,130
745,48	11,350
745,67	17,719
745,86	12,911
746,05	21,233
746,24	24,183
746,43	27,660
746,62	11,751
746,81	24,429
747,00	19,415
747,18	32,967
747,37	14,712
747,56	29,213
747,75	24,508
747,94	27,790
748,13	26,941
748,32	22,222
748,51	21,219
748,70	17,986
748,89	26,087
749,08	18,571
749,26	18,616
749,45	25,647
749,64	20,347
749,83	17,557
750,02	27,348
750,21	22,287
750,40	27,865
750,59	32,547
750,78	27,219
750,96	21,788
751,15	29,508
751,34	41,361
751,53	29,064
751,72	16,442
751,91	15,342
752,10	14,198
752,29	33,616
752,47	27,809
752,66	30,704
752,85	19,505
753,04	20,189
753,23	20,199
753,42	19,149
753,61	18,627
753,80	34,688
753,98	25,614
754,17	28,528
754,36	24,011
754,55	24,138
754,74	31,214
754,93	27,378
755,12	33,600
755,30	25,485
755,49	27,829
755,68	34,870
755,87	29,730
756,06	35,475
756,25	26,032
756,43	24,483
756,62	34,125
756,81	33,663
757,00	40,580
757,19	31,507
757,38	39,748
757,56	38,065
757,75	26,144
757,94	26,183
758,13	23,377
758,32	29,924
758,51	30,515
758,69	22,400
758,88	32,132
759,07	26,165
759,26	9,767
759,45	16,157
759,63	37,175
759,82	34,343
760,01	27,090
760,20	33,463
760,39	45,522
760,57	50,000
760,76	29,730
760,95	37,500
761,14	33,469
761,33	27,500
761,51	27,957
761,70	52,414
761,89	34,836
762,08	28,837
762,27	48,718
762,45	42,802
762,64	28,938
762,83	33,186
763,02	37,209
763,21	13,793
763,39	39,592
763,58	40,377
763,77	38,996
763,96	51,807
764,14	57,083
764,33	38,828
764,52	48,498
764,71	34,978
764,89	34,314
765,08	47,845
765,27	46,840
765,46	44,565
765,65	32,314
765,83	43,290
766,02	39,149
766,21	46,409
766,40	49,524
766,58	34,959
766,77	30,348
766,96	68,636
767,15	56,039
767,33	26,901
767,52	57,317
767,71	43,043
767,90	33,708
768,08	42,023
768,27	54,500
768,46	35,547
768,64	56,477
768,83	45,313
769,02	85,000
769,21	38,865
769,39	62,791
769,58	53,757
769,77	70,115
769,96	43,455
770,14	40,136
770,33	35,981
770,52	27,513
770,70	55,333
770,89	59,732
771,08	40,678
771,27	56,701
771,45	40,789
771,64	50,521
771,83	58,879
772,01	30,120
772,20	71,357
772,39	56,667
772,57	32,558
772,76	36,296
772,95	42,553
773,14	67,742
773,32	50,968
773,51	58,209
773,70	66,875
773,88	73,224
774,07	54,450
774,26	53,191
774,44	64,024
774,63	75,635
774,82	58,537
775,00	60,667
775,19	46,400
775,38	67,630
775,56	58,854
775,75	40,361
775,94	62,025
776,12	34,807
776,31	68,824
776,50	35,795
776,68	51,579
776,87	69,886
777,06	102,759
777,24	63,889
777,43	71,154
777,62	97,059
777,80	70,270
777,99	80,000
778,18	74,752
778,36	69,600
778,55	85,124
778,74	70,833
778,92	76,331
779,11	69,167
779,29	83,019
779,48	50,340
779,67	68,217
779,85	61,789
780,04	51,892
780,23	66,187
780,41	57,813
780,60	46,316
780,79	81,356
780,97	70,395
781,16	64,848
781,34	102,062
781,53	65,812
781,72	86,131
781,90	78,906
782,09	80,645
782,28	93,431
782,46	51,111
782,65	70,714
782,83	84,270
783,02	136,250
783,21	89,333
783,39	85,217
783,58	75,740
783,76	75,419
783,95	83,030
784,14	68,874
784,32	86,577
784,51	79,310
784,69	79,661
784,88	90,090
785,06	61,345
785,25	105,732
785,44	82,734
785,62	67,857
785,81	140,845
785,99	92,806
786,18	68,243
786,37	73,333
786,55	76,147
786,74	63,158
786,92	78,906
787,11	70,833
787,29	70,896
787,48	72,000
787,67	54,217
787,85	75,000
788,04	79,208
788,22	72,951
788,41	97,647
788,59	109,174
788,78	53,333
788,96	96,226
789,15	138,947
789,34	94,545
789,52	40,708
789,71	84,496
789,89	182,979
790,08	92,466
790,26	58,571
790,45	31,061
790,63	83,333
790,82	86,061
791,00	68,750
791,19	119,355
791,38	122,917
791,56	76,316
791,75	101,835
791,93	78,161
792,12	63,905
792,30	65,600
792,49	59,664
792,67	91,791
792,86	91,473
793,04	99,065
793,23	60,833
793,41	107,595
793,60	100,000
793,78	107,895
793,97	126,923
794,15	118,182
794,34	106,593
794,52	101,299
794,71	135,802
794,89	54,444
795,08	99,029
795,26	86,667
795,45	123,881
795,63	83,333
795,82	88,785
796,00	70,642
796,19	90,833
796,37	96,350
796,56	120,430
796,74	76,991
796,93	53,933
797,11	115,190
797,30	75,833
797,48	83,448
797,67	85,833
797,85	87,755
798,04	78,125
798,22	90,476
798,41	102,941
798,59	114,737
798,77	167,692
798,96	122,581
799,14	96,552
799,33	120,611
799,51	78,462
799,70	91,946
799,88	119,697
800,07	58,553
800,25	73,103
800,44	95,960
800,62	87,059
800,80	139,130
800,99	171,429
801,17	75,862
801,36	108,966
801,54	125,000
801,73	80,808
801,91	65,574
802,10	125,000
802,28	146,729
802,46	60,494
802,65	117,241
802,83	117,978
803,02	122,105
803,20	96,875
803,39	53,448
803,57	130,120
803,75	72,973
803,94	136,975
804,12	55,833
804,31	96,460
804,49	89,423
804,67	108,800
804,86	86,607
805,04	112,838
805,23	73,793
805,41	114,754
805,59	54,918
805,78	100,000
805,96	82,051
806,15	98,438
806,33	82,353
806,51	98,230
806,70	125,000
806,88	62,602
807,07	66,667
807,25	79,874
807,43	88,079
807,62	65,041
807,80	129,032
807,99	89,683
808,17	82,270
808,35	101,754
808,54	83,871
808,72	81,600
808,90	115,789
809,09	85,000
809,27	109,910
809,46	108,929
809,64	70,588
809,82	81,609
810,01	100,000
810,19	131,000
810,37	86,154
810,56	107,317
810,74	54,967
810,92	110,606
811,11	160,784
811,29	81,560
811,48	108,081
811,66	106,977
811,84	116,514
812,03	103,636
812,21	79,487
812,39	93,220
812,58	111,765
812,76	69,159
812,94	94,667
813,13	53,175
813,31	123,333
813,49	135,870
813,68	50,435
813,86	114,286
814,04	121,359
814,23	138,384
814,41	75,000
814,59	84,746
814,78	89,706
814,96	75,676
815,14	124,444
815,33	89,855
815,51	73,333
815,69	101,235
815,87	85,217
816,06	76,875
816,24	85,430
816,42	51,282
816,61	66,102
816,79	106,024
816,97	112,613
817,16	71,613
817,34	84,138
817,52	73,103
817,70	123,016
817,89	64,463
818,07	110,345
818,25	80,180
818,44	88,372
818,62	58,621
818,80	67,133
818,98	49,524
819,17	76,154
819,35	85,294
819,53	114,851
819,72	77,326
819,90	62,874
820,08	70,779
820,26	117,544
820,45	71,084
820,63	70,833
820,81	51,007
820,99	71,429
821,18	50,370
821,36	72,857
821,54	55,233
821,73	65,405
821,91	52,128
822,09	74,118
822,27	57,360
822,46	83,125
822,64	75,497
822,82	65,854
823,00	42,342
823,19	56,818
823,37	70,000
823,55	80,588
823,73	54,667
823,91	58,564
824,10	72,626
824,28	53,333
824,46	55,233
824,64	63,725
824,83	60,163
825,01	55,072
825,19	60,000
825,37	54,688
825,56	71,875
825,74	71,429
825,92	50,562
826,10	60,870
826,28	68,456
826,47	73,171
826,65	77,027
826,83	62,903
827,01	50,758
827,19	75,949
827,38	73,057
827,56	65,865
827,74	66,667
827,92	53,171
828,10	70,109
828,29	54,286
828,47	78,947
828,65	45,946
828,83	53,535
829,01	55,333
829,20	59,494
829,38	47,303
829,56	57,085
829,74	53,788
829,92	44,330
830,10	73,423
830,29	56,216
830,47	61,979
830,65	43,304
830,83	40,571
831,01	41,250
831,20	51,485
831,38	44,878
831,56	51,417
831,74	65,714
831,92	57,386
832,10	54,545
832,29	43,128
832,47	43,363
832,65	44,255
832,83	63,256
833,01	36,364
833,19	45,249
833,37	50,370
833,56	34,272
833,74	54,251
833,92	50,442
834,10	48,223
834,28	34,615
834,46	45,675
834,64	44,141
834,83	38,567
835,01	45,914
835,19	30,332
835,37	39,044
835,55	47,292
835,73	45,956
835,91	52,124
836,09	32,780
836,28	48,092
836,46	42,456
836,64	55,328
836,82	44,776
837,00	43,878
837,18	51,383
837,36	43,316
837,54	43,182
837,72	30,677
837,91	34,940
838,09	40,800
838,27	54,579
838,45	49,191
838,63	41,695
838,81	58,224
838,99	47,735
839,17	59,547
839,35	34,815
839,53	48,993
839,72	31,780
839,90	23,708
840,08	33,013
840,26	44,479
840,44	27,469
840,62	22,559
840,80	45,679
840,98	46,224
841,16	15,302
841,34	34,493
841,52	30,032
841,70	27,946
841,89	44,839
842,07	36,486
842,25	32,792
842,43	29,677
842,61	39,946
842,79	39,634
842,97	28,963
843,15	37,822
843,33	30,404
843,51	31,026
843,69	29,722
843,87	29,919
844,05	26,415
844,23	36,486
844,41	35,176
844,59	40,057
844,77	22,767
844,95	37,136
845,13	34,426
845,31	22,346
845,50	27,320
845,68	33,679
845,86	29,009
846,04	33,333
846,22	28,640
846,40	26,247
846,58	28,954
846,76	27,681
846,94	20,673
847,12	30,806
847,30	32,488
847,48	35,012
847,66	23,415
847,84	29,949
848,02	32,017
848,20	32,230
848,38	31,303
848,56	33,333
848,74	23,760
848,92	21,712
849,10	30,357
849,28	27,451
849,46	12,850
849,64	24,762
849,82	20,433
850,00	16,016
850,18	24,249
850,36	25,439
850,54	20,404
850,72	33,056
850,90	28,467
851,08	16,461
851,26	27,328
851,44	26,506
851,62	20,530
851,80	20,875
851,98	28,395
852,16	35,185
852,34	27,514
852,52	19,682
852,70	15,261
852,87	26,667
853,05	23,447
853,23	26,275
853,41	15,542
853,59	21,887
853,77	24,405
853,95	22,246
854,13	20,583
854,31	20,070
854,49	15,030
854,67	28,759
854,85	23,826
855,03	21,839
855,21	28,088
855,39	13,423
855,57	31,159
855,75	19,393
855,93	16,078
856,11	27,751
856,28	17,708
856,46	18,301
856,64	22,330
856,82	18,499
857,00	16,263
857,18	20,657
857,36	16,975
857,54	16,892
857,72	18,364
857,90	12,850
858,08	18,981
858,26	7,339
858,44	16,615
858,61	17,158
858,79	20,930
858,97	18,481
859,15	12,177
859,33	13,650
859,51	13,259
859,69	13,542
859,87	15,813
860,05	15,760
860,23	10,758
860,40	13,364
860,58	15,374
860,76	18,362
860,94	8,092
861,12	15,439
861,30	17,100
861,48	17,564
861,66	17,979
861,84	19,413
862,01	21,390
862,19	24,661
862,37	17,930
862,55	9,192
862,73	12,772
862,91	14,076
863,09	15,085
863,27	4,875
863,44	9,272
863,62	12,062
863,80	6,551
863,98	11,239
864,16	10,111
864,34	14,156
864,52	17,768
864,69	18,193
864,87	18,474
865,05	13,514
865,23	14,130
865,41	11,204
865,59	11,867
865,76	12,145
865,94	11,547
866,12	14,836
866,30	9,448
866,48	11,347
866,66	17,245
866,83	11,160
867,01	17,365
867,19	11,982
867,37	9,364
867,55	14,929
867,73	13,667
867,90	14,010
868,08	13,508
868,26	14,481
868,44	10,193
868,62	12,539
868,79	10,498
868,97	12,154
869,15	11,359
869,33	8,820
869,51	10,722
869,69	11,887
869,86	10,974
870,04	14,603
870,22	10,302
870,40	9,495
870,57	16,800
870,75	14,655
870,93	11,030
871,11	10,682
871,29	6,809
871,46	9,164
871,64	12,067
871,82	12,878
872,00	15,035
872,18	15,462
872,35	16,221
872,53	11,342
872,71	7,122
872,89	12,697
873,06	10,332
873,24	12,960
873,42	5,197
873,60	9,275
873,77	5,961
873,95	9,909
874,13	10,912
874,31	9,180
874,49	12,903
874,66	11,426
874,84	8,881
875,02	11,229
875,20	8,760
875,37	6,048
875,55	8,891
875,73	10,009
875,91	12,813
876,08	9,395
876,26	7,577
876,44	10,383
876,61	9,466
876,79	13,084
876,97	9,427
877,15	10,840
877,32	11,890
877,50	10,313
877,68	10,811
877,86	9,762
878,03	10,591
878,21	8,850
878,39	13,037
878,56	10,251
878,74	7,881
878,92	9,050
879,10	10,799
879,27	11,720
879,45	11,922
879,63	11,312
879,80	9,721
879,98	10,534
880,16	8,702
880,34	9,521
880,51	14,884
880,69	13,088
880,87	9,416
881,04	9,284
881,22	12,714
881,40	8,159
881,57	11,821
881,75	13,010
881,93	9,947
882,10	15,567
882,28	12,321
882,46	14,321
882,63	13,379
882,81	12,701
882,99	10,405
883,16	12,292
883,34	12,046
883,52	11,197
883,69	12,766
883,87	12,041
884,05	10,520
884,22	11,015
884,40	12,253
884,58	10,782
884,75	9,840
884,93	12,147
885,11	12,622
885,28	10,947
885,46	13,218
885,64	12,723
885,81	11,439
885,99	11,818
886,17	9,000
886,34	10,697
886,52	11,341
886,70	11,786
886,87	10,979
887,05	10,467
887,22	9,687
887,40	11,404
887,58	11,244
887,75	11,167
887,93	10,619
888,11	9,046
888,28	10,194
888,46	10,133
888,63	10,924
888,81	10,609
888,99	7,773
889,16	9,130
889,34	10,231
889,51	11,863
889,69	9,403
889,87	10,667
890,04	8,430
890,22	9,348
890,39	6,811
890,57	10,013
890,75	10,817
890,92	10,522
891,10	10,418
891,27	9,315
891,45	8,292
891,63	10,017
891,80	8,228
891,98	11,831
892,15	7,953
892,33	7,841
892,51	8,569
892,68	6,678
892,86	7,983
893,03	8,883
893,21	9,745
893,38	7,885
893,56	8,269
893,74	9,438
893,91	8,277
894,09	7,739
894,26	8,777
894,44	6,282
894,61	8,941
894,79	6,659
894,96	8,487
895,14	6,129
895,32	7,092
895,49	8,023
895,67	6,462
895,84	7,321
896,02	7,211
896,19	7,222
896,37	8,829
896,54	7,474
896,72	6,780
896,89	7,857
897,07	6,711
897,25	7,620
897,42	6,745
897,60	9,016
897,77	8,957
897,95	7,171
898,12	5,874
898,30	7,170
898,47	7,582
898,65	7,016
898,82	5,937
899,00	6,699
899,17	7,764
899,35	7,145
899,52	6,480
899,70	7,988
899,87	6,732
900,05	8,059
900,22	7,423
900,40	7,014
900,57	8,203
900,75	5,229
900,92	6,304
901,10	7,728
901,27	6,718
901,45	8,259
901,62	7,529
901,80	8,156
901,97	6,749
902,15	8,087
902,32	8,422
902,50	6,775
902,67	6,432
902,85	7,760
903,02	9,925
903,20	7,762
903,37	8,447
903,54	8,961
903,72	9,082
903,89	9,954
904,07	8,347
904,24	8,285
904,42	7,417
904,59	7,198
904,77	8,698
904,94	9,575
905,12	8,671
905,29	9,898
905,47	10,683
905,64	9,033
905,81	8,642
905,99	10,078
906,16	9,393
906,34	10,381
906,51	10,433
906,69	8,693
906,86	9,310
907,03	9,258
907,21	8,583
907,38	9,552
907,56	8,376
907,73	8,895
907,91	10,126
908,08	8,850
908,25	9,205
908,43	9,617
908,60	8,468
908,78	10,934
908,95	10,698
909,13	10,054
909,30	6,960
909,47	11,046
909,65	9,117
909,82	10,468
910,00	9,682
910,17	7,858
910,34	9,408
910,52	8,944
910,69	10,507
910,87	10,154
911,04	8,698
911,21	9,925
911,39	9,646
911,56	9,496
911,73	10,994
911,91	9,520
912,08	10,696
912,26	9,126
912,43	9,631
912,60	9,617
912,78	9,839
912,95	9,201
913,13	10,064
913,30	9,072
913,47	10,404
913,65	10,048
913,82	8,710
913,99	8,931
914,17	9,188
914,34	10,330
914,51	11,003
914,69	9,735
914,86	9,738
915,03	10,147
915,21	9,671
915,38	7,892
915,56	9,306
915,73	8,013
915,90	10,278
916,08	9,945
916,25	8,947
916,42	8,437
916,60	9,161
916,77	10,065
916,94	9,788
917,12	10,338
917,29	9,836
917,46	8,027
917,64	8,576
917,81	9,196
917,98	8,137
918,16	10,612
918,33	9,962
918,50	9,945
918,67	7,789
918,85	9,022
919,02	9,186
919,19	10,005
919,37	9,252
919,54	8,642
919,71	8,901
919,89	9,524
920,06	8,297
920,23	8,371
920,41	9,079
920,58	8,735
920,75	9,064
920,92	8,292
921,10	8,625
921,27	7,745
921,44	8,878
921,62	7,451
921,79	7,829
921,96	8,695
922,13	8,665
922,31	8,643
922,48	8,700
922,65	7,428
922,82	7,803
923,00	8,929
923,17	6,776
923,34	8,406
923,52	7,646
923,69	8,280
923,86	7,477
924,03	7,973
924,21	7,614
924,38	8,007
924,55	8,921
924,72	7,895
924,90	7,895
925,07	7,966
925,24	7,720
925,41	7,189
925,59	5,897
925,76	7,062
925,93	7,290
926,10	7,246
926,28	6,816
926,45	7,472
926,62	7,842
926,79	7,267
926,96	7,236
927,14	7,762
927,31	6,590
927,48	7,083
927,65	7,506
927,83	6,279
928,00	7,118
928,17	6,206
928,34	7,465
928,51	7,014
928,69	6,732
928,86	7,758
929,03	7,527
929,20	7,004
929,37	6,820
929,55	7,133
929,72	7,471
929,89	6,076
930,06	7,028
930,23	7,321
930,41	7,407
930,58	8,115
930,75	7,053
930,92	6,996
931,09	7,948
931,27	6,518
931,44	6,717
931,61	8,243
931,78	8,335
931,95	7,546
932,12	7,279
932,30	7,659
932,47	8,436
932,64	7,889
932,81	7,784
932,98	7,440
933,16	8,344
933,33	8,099
933,50	8,792
933,67	8,828
933,84	8,212
934,01	8,090
934,18	9,363
934,36	8,851
934,53	8,822
934,70	9,678
934,87	9,563
935,04	10,057
935,21	9,432
935,38	9,739
935,56	9,740
935,73	8,922
935,90	9,262
936,07	11,218
936,24	10,311
936,41	9,869
936,58	9,467
936,76	10,669
936,93	10,162
937,10	10,004
937,27	10,295
937,44	10,148
937,61	10,667
937,78	9,778
937,95	10,384
938,13	9,669
938,30	10,029
938,47	10,504
938,64	10,349
938,81	10,636
938,98	10,300
939,15	11,633
939,32	10,372
939,49	11,397
939,66	10,766
939,84	11,013
940,01	10,397
940,18	11,060
940,35	10,345
940,52	9,275
940,69	12,118
940,86	10,068
941,03	11,245
941,20	10,486
941,37	10,376
941,54	9,269
941,71	10,212
941,89	9,833
942,06	10,165
942,23	10,142
942,40	10,815
942,57	10,449
942,74	10,523
942,91	9,735
943,08	11,173
943,25	9,981
943,42	10,301
943,59	10,240
943,76	10,472
943,93	9,662
944,10	9,953
944,27	11,264
944,44	10,368
944,61	10,203
944,79	10,718
944,96	10,926
945,13	10,162
945,30	9,886
945,47	11,081
945,64	10,381
945,81	11,548
945,98	11,793
946,15	11,037
946,32	10,242
946,49	11,044
946,66	10,936
946,83	11,536
947,00	11,383
947,17	12,016
947,34	12,166
947,51	11,285
947,68	12,115
947,85	11,087
948,02	12,167
948,19	13,549
948,36	12,542
948,53	13,077
948,70	13,713
948,87	13,470
949,04	13,259
949,21	13,808
949,38	14,560
949,55	13,204
949,72	14,237
949,89	15,311
950,06	14,637
950,23	15,140
950,40	15,910
950,57	13,584
950,74	17,029
950,91	16,638
951,08	16,636
951,25	17,931
951,42	18,048
951,59	16,956
951,76	19,598
951,93	19,647
952,10	18,467
952,27	17,856
952,44	18,937
952,61	19,434
952,77	19,770
952,94	22,582
953,11	24,538
953,28	22,243
953,45	22,389
953,62	23,518
953,79	21,330
953,96	26,719
954,13	22,607
954,30	24,672
954,47	24,638
954,64	25,120
954,81	27,303
954,98	25,112
955,15	26,719
955,32	25,551
955,49	28,957
955,65	26,872
955,82	28,580
955,99	28,142
956,16	30,289
956,33	31,799
956,50	28,812
956,67	34,104
956,84	30,444
957,01	29,953
957,18	31,426
957,35	30,047
957,52	36,409
957,68	31,000
957,85	34,383
958,02	34,453
958,19	34,030
958,36	39,184
958,53	37,327
958,70	33,937
958,87	35,127
959,04	38,869
959,21	34,141
959,37	43,615
959,54	46,417
959,71	36,578
959,88	38,968
960,05	35,541
960,22	40,118
960,39	45,200
960,56	36,203
960,72	43,413
960,89	53,485
961,06	44,076
961,23	45,269
961,40	49,062
961,57	39,087
961,74	40,665
961,90	48,906
962,07	44,444
962,24	45,203
962,41	51,089
962,58	50,086
962,75	46,549
962,92	53,645
963,08	50,182
963,25	51,171
963,42	51,449
963,59	56,198
963,76	59,551
963,93	50,343
964,10	50,964
964,26	60,526
964,43	62,274
964,60	67,358
964,77	65,542
964,94	61,932
965,10	68,155
965,27	65,796
965,44	62,338
965,61	52,342
965,78	66,773
965,95	63,772
966,11	59,443
966,28	80,297
966,45	62,617
966,62	73,231
966,79	77,551
966,95	65,075
967,12	64,353
967,29	71,875
967,46	78,409
967,63	72,830
967,79	93,243
967,96	83,550
968,13	74,500
968,30	87,097
968,47	71,821
968,63	90,991
968,80	76,147
968,97	77,885
969,14	100,581
969,31	82,778
969,47	75,882
969,64	85,859
969,81	74,611
969,98	96,703
970,14	82,209
970,31	94,340
970,48	99,167
970,65	92,899
970,81	117,808
970,98	127,737
971,15	161,224
971,32	98,438
971,48	119,728
971,65	60,000
971,82	167,647
971,99	125,287
972,15	108,451
972,32	127,928
972,49	134,965
972,66	168,182
972,82	138,372
972,99	131,707
973,16	137,931
973,33	123,214
973,49	149,474
973,66	163,441
973,83	116,505
974,00	190,698
974,16	134,314
974,33	148,246
974,50	144,211
974,67	142,105
974,83	159,524
975,00	158,947
975,17	130,769
975,33	156,180
975,50	137,313
975,67	173,469
975,84	202,985
976,00	213,483
976,17	211,475
976,34	94,000
976,50	170,787
976,67	138,835
976,84	2900,000
977,00	253,061
977,17	211,111
977,34	206,593
977,50	165,672
977,67	200,000
977,84	211,290
978,01	304,255
978,17	444,444
978,34	277,778
978,51	344,118
978,67	185,526
978,84	127,344
979,01	254,054
979,17	207,692
979,34	123,288
979,51	248,980
979,67	175,309
979,84	295,918
980,01	228,889
980,17	228,169
980,34	525,926
980,51	171,014
980,67	168,235
980,84	366,667
981,01	780,000
981,17	572,000
981,34	1000,000
981,50	245,588
981,67	242,373
981,84	5400,000
982,00	540,000
982,17	333,333
982,34	122,222
982,50	606,667
982,67	171,875
982,84	3500,000
983,00	1433,333
983,17	146,269
983,33	246,552
983,50	1740,000
983,67	-424,138
983,83	287,879
984,00	-1742,857
984,17	633,333
984,33	-6250,000
984,50	380,000
984,66	297,826
984,83	155,844
985,00	-500,000
985,16	448,276
985,33	617,647
985,49	655,556
985,66	341,176
985,83	247,826
985,99	410,256
986,16	-2450,000
986,32	892,857
986,49	6800,000
986,66	418,182
986,82	833,333
986,99	235,849
987,15	-505,263
987,32	-371,429
987,49	238,000
987,65	6450,000
987,82	420,833
987,98	316,327
988,15	413,333
988,31	1070,000
988,48	-2200,000
988,65	300,000
988,81	450,000
988,98	363,415
989,14	390,476
989,31	700,000
989,47	208,824
989,64	-707,692
989,80	850,000
989,97	321,622
990,14	-293,478
990,30	-477,273
990,47	367,347
990,63	436,111
990,80	240,000
990,96	-400,000
991,13	443,750
991,29	444,828
991,46	0,000
991,62	-769,231
991,79	841,667
991,95	11500,000
992,12	-1500,000
992,29	-675,000
992,45	190,588
992,62	341,860
992,78	304,545
992,95	-366,667
993,11	503,571
993,28	970,000
993,44	-1070,000
993,61	-781,250
993,77	-2275,000
993,94	-4933,333
994,10	-126,667
994,27	615,789
994,43	304,651
994,60	0,000
994,76	2475,000
994,93	500,000
995,09	-741,176
995,26	1144,444
995,42	280,392
995,59	609,524
995,75	1176,923
995,92	2057,143
996,08	441,667
996,25	-1037,500
996,41	-4750,000
996,58	820,000
996,74	409,091
996,91	417,241
997,07	0,000
997,23	11400,000
997,40	-13000,000
997,56	-923,077
997,73	-1587,500
997,89	450,000
998,06	1130,769
998,22	-511,111
998,39	408,000
998,55	1333,333
998,72	-1212,500
998,88	-256,667
999,05	-111,538
999,21	321,429
999,37	-826,667
999,54	-1041,667
999,70	-310,000
999,87	662,500
1000,03	356,410
1000,20	341,667
1000,36	0,000
1000,52	475,000
1000,69	-476,190
1000,85	-910,000
1001,02	-445,833
1001,18	3700,000
1001,35	638,462
1001,51	641,176
1001,67	-1007,692
1001,84	-1660,000
1002,00	232,432
1002,17	1154,545
1002,33	-2850,000
1002,50	409,524
1002,66	-684,615
1002,82	430,000
1002,99	592,857
1003,15	-1957,143
1003,32	-1036,364
1003,48	450,000
1003,64	1113,333
1003,81	585,185
1003,97	-5200,000
1004,14	890,909
1004,30	310,000
1004,46	-826,667
1004,63	907,143
1004,79	297,222
1004,95	900,000
1005,12	4800,000
1005,28	448,276
1005,45	424,324
1005,61	262,069
1005,77	-266,667
1005,94	-438,095
1006,10	-5500,000
1006,26	953,846
1006,43	-407,692
1006,59	-1009,091
1006,76	735,714
1006,92	1288,889
1007,08	9000,000
1007,25	-225,926
1007,41	479,310
1007,57	5250,000
1007,74	1080,000
1007,90	-555,172
1008,06	230,435
1008,23	805,882
1008,39	-556,250
1008,55	-476,923
1008,72	-2000,000
1008,88	0,000
1009,04	246,341
1009,21	-310,526
1009,37	-925,000
1009,53	250,000
1009,70	3000,000
1009,86	-585,714
1010,02	3233,333
1010,19	1136,364
1010,35	273,529
1010,51	-3600,000
1010,68	-1300,000
1010,84	-163,636
1011,00	668,750
1011,17	-500,000
1011,33	0,000
1011,49	-726,667
1011,66	550,000
1011,82	525,806
1011,98	735,714
1012,14	-354,545
1012,31	351,282
1012,47	0,000
1012,63	1500,000
1012,80	914,286
1012,96	-1018,750
1013,12	-1550,000
1013,29	500,000
1013,45	443,902
1013,61	4066,667
1013,77	-175,000
1013,94	2500,000
1014,10	138,983
1014,26	-3475,000
1014,43	-288,000
1014,59	490,000
1014,75	-505,556
1014,91	-420,000
1015,08	294,444
1015,24	11700,000
1015,40	400,000
1015,56	-15800,000
1015,73	195,238
1015,89	772,727
1016,05	3125,000
1016,21	-1287,500
1016,38	626,316
1016,54	938,462
1016,70	-3566,667
1016,86	340,625
1017,03	843,750
1017,19	-976,923
1017,35	-623,529
1017,51	-1520,000
1017,68	-1060,000
1017,84	-1885,714
1018,00	269,048
1018,16	361,538
1018,33	-1385,714
1018,49	-958,333
1018,65	-291,892
1018,81	230,769
1018,97	-1471,429
1019,14	-3933,333
1019,30	-271,795
1019,46	0,000
1019,62	-729,412
1019,79	-5200,000
1019,95	1175,000
1020,11	5700,000
1020,27	-344,444
1020,43	-315,385
1020,60	1633,333
1020,76	794,444
1020,92	700,000
1021,08	585,000
1021,24	1160,000
1021,41	1244,444
1021,57	1887,500
1021,73	976,923
1021,89	2420,000
1022,05	-321,429
1022,21	535,000
1022,38	-816,667
1022,54	-1616,667
1022,70	351,111
1022,86	-1100,000
1023,02	454,167
1023,19	1960,000
1023,35	4266,667
1023,51	425,000
1023,67	511,111
1023,83	-668,750
1023,99	328,947
1024,16	-284,615
1024,32	-955,556
1024,48	-830,000
1024,64	309,524
1024,80	526,087
1024,96	392,308
1025,12	557,143
1025,29	371,429
1025,45	244,737
1025,61	861,111
1025,77	-2060,000
1025,93	-7300,000
1026,09	-1385,714
1026,26	1025,000
1026,42	668,750
1026,58	357,576
1026,74	1716,667
1026,90	416,000
1027,06	375,000
1027,22	635,714
1027,38	271,154
1027,55	3033,333
1027,71	1183,333
1027,87	-224,000
1028,03	1410,000
1028,19	353,125
1028,35	760,000
1028,51	1560,000
1028,67	691,667
1028,83	-2200,000
1029,00	-250,000
1029,16	780,000
1029,32	-196,429
1029,48	220,000
1029,64	372,222
1029,80	5750,000
1029,96	793,333
1030,12	513,043
1030,28	-3233,333
1030,44	-776,923
1030,61	-533,333
1030,77	-251,429
1030,93	-860,000
1031,09	1883,333
1031,25	-10800,000
1031,41	-326,667
1031,57	376,923
1031,73	756,250
1031,89	-1100,000
1032,05	-355,556
1032,21	1145,455
1032,37	-164,815
1032,53	-878,571
1032,69	-408,333
1032,86	470,370
1033,02	-225,000
1033,18	-681,250
1033,34	563,158
1033,50	-4700,000
1033,66	-246,341
1033,82	630,435
1033,98	-462,963
1034,14	160,256
1034,30	361,290
1034,46	-3200,000
1034,62	575,000
1034,78	-480,952
1034,94	305,263
1035,10	-330,769
1035,26	-165,116
1035,42	-296,552
1035,58	-355,556
1035,74	1091,667
1035,90	-469,231
1036,06	-1100,000
1036,22	1533,333
1036,38	-770,588
1036,54	-420,833
1036,70	-100,000
1036,86	7400,000
1037,02	650,000
1037,18	1005,263
1037,34	147,619
1037,50	-141,463
1037,66	-400,000
1037,82	2640,000
1037,98	-400,000
1038,14	-328,000
1038,30	-1625,000
1038,46	-557,143
1038,62	382,609
1038,78	-2800,000
1038,94	-384,211
1039,10	586,364
1039,26	448,148
1039,42	-825,000
1039,58	1500,000
1039,74	-405,263
1039,90	337,500
1040,06	-296,154
>>>>>End Processed Spectral Data<<<<<
