SpectraSuite Data File
++++++++++++++++++++++++++++++++++++
Date: Wed Feb 01 15:48:36 EET 2017
User: optolab
Dark Spectrum Present: Yes
Reference Spectrum Present: Yes
Number of Sampled Component Spectra: 1
Spectrometers: USB4C02475
Integration Time (usec): 100000 (USB4C02475)
Spectra Averaged: 1 (USB4C02475)
Boxcar Smoothing: 0 (USB4C02475)
Correct for Electrical Dark: No (USB4C02475)
Strobe/Lamp Enabled: No (USB4C02475)
Correct for Detector Non-linearity: No (USB4C02475)
Correct for Stray Light: No (USB4C02475)
Number of Pixels in Processed Spectrum: 3648
>>>>>Begin Processed Spectral Data<<<<<
344,91	2450,000
345,13	2450,000
345,35	2450,000
345,57	0,000
345,79	326,316
346,00	-2033,333
346,22	-1885,714
346,44	338,235
346,66	-395,833
346,87	-10700,000
347,09	481,818
347,31	-450,000
347,53	-230,769
347,74	187,692
347,96	378,788
348,18	747,368
348,40	409,677
348,61	841,176
348,83	288,095
349,05	256,863
349,27	-4650,000
349,48	596,154
349,70	-300,000
349,92	329,032
350,14	258,491
350,35	328,000
350,57	2625,000
350,79	556,000
351,01	-785,714
351,22	270,370
351,44	823,077
351,66	-252,000
351,87	-604,762
352,09	236,538
352,31	213,115
352,53	268,750
352,74	280,556
352,96	272,727
353,18	663,158
353,40	568,000
353,61	326,667
353,83	388,235
354,05	1090,909
354,26	2066,667
354,48	196,000
354,70	372,727
354,92	-362,069
355,13	226,263
355,35	272,727
355,57	650,000
355,78	204,819
356,00	-3125,000
356,22	407,692
356,44	5250,000
356,65	384,091
356,87	526,923
357,09	475,000
357,30	306,667
357,52	255,172
357,74	720,000
357,95	235,897
358,17	213,115
358,39	250,000
358,60	310,811
358,82	245,833
359,04	400,000
359,26	460,000
359,47	4200,000
359,69	302,500
359,91	363,636
360,12	452,381
360,34	745,833
360,56	-40,741
360,77	2450,000
360,99	504,762
361,21	294,000
361,42	5000,000
361,64	169,388
361,86	240,000
362,07	-525,806
362,29	182,667
362,51	-594,118
362,72	580,000
362,94	408,824
363,16	297,674
363,37	-678,571
363,59	480,769
363,81	320,455
364,02	700,000
364,24	466,667
364,46	2833,333
364,67	1009,091
364,89	1714,286
365,11	207,143
365,32	520,690
365,54	366,667
365,76	314,286
365,97	458,824
366,19	208,621
366,41	813,636
366,62	533,333
366,84	248,837
367,05	310,204
367,27	1600,000
367,49	-776,923
367,70	570,588
367,92	255,738
368,14	216,667
368,35	-9400,000
368,57	552,000
368,79	413,793
369,00	341,304
369,22	-1312,500
369,43	174,118
369,65	256,452
369,87	378,378
370,08	156,627
370,30	241,071
370,51	257,377
370,73	202,222
370,95	241,935
371,16	185,714
371,38	416,667
371,60	1575,000
371,81	201,563
372,03	1013,333
372,24	380,000
372,46	207,547
372,68	164,286
372,89	442,424
373,11	538,462
373,32	361,364
373,54	-623,077
373,76	738,462
373,97	686,667
374,19	563,636
374,40	279,687
374,62	-2933,333
374,84	3800,000
375,05	525,000
375,27	386,000
375,48	-8500,000
375,70	220,000
375,92	296,429
376,13	318,750
376,35	156,164
376,56	868,750
376,78	240,278
376,99	507,143
377,21	239,583
377,43	195,455
377,64	149,275
377,86	382,759
378,07	348,718
378,29	-1312,500
378,51	461,290
378,72	281,250
378,94	-1211,111
379,15	348,485
379,37	364,706
379,58	250,769
379,80	526,667
380,01	781,250
380,23	215,686
380,45	1740,000
380,66	3700,000
380,88	275,000
381,09	202,857
381,31	183,333
381,52	278,431
381,74	1266,667
381,95	627,273
382,17	492,308
382,39	628,571
382,60	183,673
382,82	387,179
383,03	257,692
383,25	412,903
383,46	411,364
383,68	496,296
383,89	455,000
384,11	309,677
384,32	-3133,333
384,54	633,333
384,76	-3033,333
384,97	275,758
385,19	513,793
385,40	321,569
385,62	240,351
385,83	378,571
386,05	229,412
386,26	310,000
386,48	179,310
386,69	254,167
386,91	435,000
387,12	196,610
387,34	208,621
387,55	272,581
387,77	543,750
387,98	526,923
388,20	167,391
388,41	323,529
388,63	10100,000
388,84	221,311
389,06	297,619
389,27	784,211
389,49	419,444
389,70	226,531
389,92	276,667
390,13	236,735
390,35	329,412
390,56	303,704
390,78	485,185
390,99	990,000
391,21	705,263
391,42	295,556
391,64	385,366
391,85	205,172
392,07	229,545
392,28	130,667
392,50	372,727
392,71	-1187,500
392,93	251,923
393,14	358,333
393,36	248,980
393,57	122,556
393,79	888,889
394,00	280,851
394,22	173,973
394,43	177,108
394,65	213,953
394,86	1012,500
395,08	680,952
395,29	111,321
395,50	169,231
395,72	677,778
395,93	947,619
396,15	214,085
396,36	191,176
396,58	206,667
396,79	275,000
397,01	282,000
397,22	297,222
397,44	216,667
397,65	171,930
397,87	316,667
398,08	257,143
398,29	409,375
398,51	217,857
398,72	219,512
398,94	253,846
399,15	317,143
399,37	203,509
399,58	176,923
399,80	431,818
400,01	140,741
400,22	371,429
400,44	187,654
400,65	310,714
400,87	202,941
401,08	185,714
401,30	247,826
401,51	214,035
401,72	400,000
401,94	186,076
402,15	590,000
402,37	144,538
402,58	738,889
402,80	271,429
403,01	232,394
403,22	1245,455
403,44	217,391
403,65	216,071
403,87	188,571
404,08	361,538
404,30	154,118
404,51	-2433,333
404,72	145,714
404,94	118,627
405,15	232,000
405,37	178,481
405,58	150,588
405,79	126,829
406,01	258,537
406,22	222,414
406,44	155,319
406,65	226,316
406,86	62,500
407,08	134,177
407,29	106,796
407,51	153,659
407,72	133,333
407,93	133,696
408,15	69,231
408,36	230,233
408,58	160,825
408,79	89,167
409,00	133,333
409,22	201,587
409,43	149,367
409,64	84,472
409,86	67,296
410,07	102,308
410,29	90,299
410,50	114,184
410,71	107,143
410,93	66,242
411,14	117,054
411,35	82,143
411,57	100,658
411,78	75,000
412,00	79,618
412,21	82,581
412,42	69,841
412,64	47,639
412,85	50,515
413,06	57,317
413,28	59,459
413,49	54,502
413,70	52,536
413,92	40,711
414,13	28,631
414,34	56,705
414,56	32,867
414,77	71,308
414,98	41,275
415,20	26,990
415,41	48,725
415,63	31,841
415,84	35,556
416,05	31,868
416,27	33,075
416,48	32,584
416,69	38,938
416,91	30,541
417,12	22,193
417,33	34,947
417,55	20,724
417,76	33,676
417,97	30,290
418,19	21,670
418,40	21,277
418,61	25,185
418,83	18,182
419,04	19,401
419,25	16,978
419,46	20,902
419,68	19,683
419,89	16,990
420,10	15,918
420,32	17,310
420,53	18,504
420,74	16,900
420,96	20,250
421,17	17,783
421,38	15,887
421,60	10,596
421,81	14,806
422,02	13,062
422,23	13,991
422,45	10,580
422,66	13,987
422,87	12,990
423,09	10,882
423,30	12,119
423,51	12,992
423,73	10,728
423,94	13,445
424,15	9,660
424,36	11,603
424,58	12,312
424,79	11,181
425,00	8,669
425,22	12,892
425,43	11,748
425,64	14,032
425,85	14,200
426,07	19,025
426,28	25,733
426,49	34,632
426,71	45,763
426,92	54,558
427,13	70,725
427,34	84,772
427,56	88,818
427,77	85,300
427,98	96,023
428,19	93,000
428,41	95,398
428,62	97,413
428,83	94,576
429,04	95,008
429,26	97,915
429,47	94,233
429,68	96,319
429,89	96,654
430,11	96,331
430,32	97,740
430,53	97,148
430,74	99,664
430,96	97,319
431,17	97,590
431,38	94,586
431,59	94,904
431,81	94,326
432,02	94,408
432,23	94,581
432,44	93,749
432,66	94,813
432,87	98,245
433,08	96,263
433,29	93,626
433,51	93,800
433,72	98,077
433,93	96,424
434,14	94,511
434,35	99,067
434,57	97,363
434,78	98,491
434,99	97,623
435,20	96,199
435,42	98,589
435,63	94,639
435,84	97,649
436,05	94,964
436,26	95,644
436,48	94,216
436,69	94,154
436,90	94,663
437,11	91,730
437,32	94,525
437,54	93,793
437,75	93,752
437,96	93,600
438,17	92,662
438,38	94,862
438,60	93,023
438,81	93,430
439,02	96,047
439,23	93,959
439,44	92,977
439,66	94,611
439,87	94,955
440,08	95,859
440,29	94,540
440,50	95,636
440,72	95,194
440,93	95,559
441,14	95,480
441,35	94,666
441,56	93,379
441,77	93,677
441,99	92,842
442,20	93,792
442,41	93,585
442,62	94,910
442,83	95,254
443,04	96,664
443,26	95,493
443,47	96,576
443,68	96,174
443,89	95,965
444,10	96,892
444,31	97,175
444,53	97,103
444,74	96,224
444,95	95,647
445,16	97,046
445,37	95,662
445,58	95,457
445,80	95,441
446,01	95,250
446,22	95,279
446,43	94,206
446,64	93,606
446,85	93,781
447,06	93,112
447,28	91,722
447,49	93,583
447,70	93,501
447,91	93,333
448,12	93,049
448,33	94,503
448,54	95,053
448,76	94,459
448,97	95,465
449,18	95,516
449,39	96,080
449,60	96,151
449,81	96,396
450,02	98,774
450,23	97,308
450,45	98,492
450,66	97,942
450,87	97,837
451,08	97,028
451,29	97,179
451,50	97,680
451,71	97,157
451,92	96,269
452,13	96,370
452,35	97,263
452,56	95,793
452,77	93,786
452,98	93,840
453,19	94,475
453,40	92,635
453,61	93,065
453,82	92,345
454,03	93,355
454,25	94,381
454,46	94,898
454,67	94,224
454,88	94,182
455,09	94,837
455,30	94,308
455,51	95,377
455,72	95,298
455,93	95,748
456,14	94,544
456,35	96,561
456,56	94,988
456,78	95,100
456,99	95,528
457,20	95,735
457,41	94,632
457,62	95,074
457,83	93,764
458,04	94,609
458,25	94,246
458,46	92,767
458,67	91,720
458,88	92,098
459,09	90,425
459,30	90,054
459,51	89,825
459,73	90,221
459,94	88,672
460,15	86,823
460,36	84,401
460,57	83,081
460,78	79,821
460,99	77,900
461,20	74,531
461,41	73,399
461,62	72,071
461,83	72,360
462,04	73,543
462,25	73,453
462,46	71,494
462,67	68,776
462,88	61,849
463,09	51,564
463,30	38,327
463,51	25,137
463,72	13,996
463,93	7,484
464,15	3,950
464,36	2,351
464,57	1,560
464,78	1,121
464,99	1,094
465,20	0,818
465,41	0,705
465,62	0,823
465,83	0,870
466,04	0,811
466,25	0,620
466,46	0,703
466,67	0,861
466,88	0,654
467,09	0,702
467,30	0,703
467,51	0,747
467,72	0,685
467,93	0,820
468,14	0,724
468,35	0,552
468,56	0,523
468,77	0,704
468,98	0,739
469,19	0,670
469,40	0,535
469,61	0,620
469,82	0,555
470,03	0,810
470,24	0,758
470,45	0,724
470,66	0,595
470,87	0,654
471,08	0,678
471,29	0,632
471,50	0,674
471,71	0,649
471,92	0,944
472,13	0,655
472,34	0,571
472,55	0,618
472,76	0,752
472,97	0,729
473,18	0,522
473,39	0,606
473,60	0,816
473,81	0,619
474,01	0,754
474,22	0,685
474,43	0,886
474,64	0,699
474,85	0,502
475,06	0,492
475,27	0,663
475,48	0,610
475,69	0,512
475,90	0,760
476,11	0,864
476,32	0,718
476,53	1,030
476,74	0,948
476,95	0,578
477,16	0,602
477,37	0,724
477,58	0,754
477,79	0,911
478,00	0,760
478,21	0,559
478,41	0,827
478,62	0,640
478,83	0,670
479,04	0,767
479,25	0,540
479,46	0,579
479,67	0,962
479,88	0,787
480,09	0,683
480,30	0,877
480,51	0,918
480,72	0,743
480,93	0,955
481,14	0,815
481,34	0,669
481,55	0,465
481,76	0,546
481,97	0,813
482,18	0,617
482,39	0,877
482,60	0,651
482,81	0,862
483,02	0,756
483,23	0,815
483,44	0,847
483,65	0,789
483,85	0,762
484,06	0,674
484,27	0,596
484,48	0,805
484,69	0,969
484,90	1,000
485,11	0,723
485,32	0,822
485,53	0,893
485,73	0,922
485,94	0,731
486,15	0,855
486,36	0,540
486,57	0,805
486,78	0,866
486,99	0,816
487,20	0,735
487,41	0,692
487,61	0,650
487,82	0,847
488,03	0,545
488,24	0,849
488,45	0,709
488,66	0,862
488,87	0,601
489,08	0,709
489,28	0,832
489,49	0,744
489,70	0,705
489,91	0,683
490,12	0,920
490,33	0,731
490,54	0,636
490,74	0,930
490,95	0,830
491,16	0,715
491,37	0,830
491,58	0,734
491,79	0,586
492,00	0,824
492,20	0,703
492,41	0,621
492,62	0,683
492,83	0,797
493,04	0,760
493,25	0,813
493,45	0,698
493,66	0,985
493,87	0,923
494,08	0,658
494,29	0,735
494,50	0,973
494,70	1,039
494,91	1,071
495,12	1,228
495,33	1,101
495,54	1,104
495,75	1,127
495,95	1,111
496,16	0,832
496,37	0,961
496,58	1,189
496,79	1,198
496,99	1,103
497,20	1,010
497,41	1,291
497,62	1,168
497,83	1,270
498,04	1,477
498,24	1,527
498,45	1,903
498,66	3,197
498,87	5,558
499,08	10,266
499,28	18,603
499,49	30,419
499,70	44,679
499,91	58,669
500,12	69,395
500,32	75,078
500,53	75,273
500,74	72,648
500,95	69,899
501,15	66,702
501,36	65,537
501,57	66,366
501,78	67,814
501,99	70,593
502,19	74,568
502,40	78,569
502,61	84,701
502,82	88,556
503,02	91,138
503,23	93,204
503,44	94,849
503,65	94,823
503,86	93,763
504,06	93,981
504,27	94,038
504,48	93,930
504,69	92,797
504,89	94,002
505,10	93,862
505,31	92,802
505,52	93,210
505,72	93,941
505,93	93,709
506,14	94,734
506,35	95,381
506,55	95,477
506,76	95,949
506,97	97,295
507,18	97,169
507,38	98,263
507,59	96,167
507,80	97,391
508,01	96,310
508,21	95,905
508,42	96,638
508,63	97,159
508,84	96,296
509,04	96,623
509,25	97,026
509,46	96,517
509,67	97,588
509,87	97,817
510,08	96,797
510,29	97,705
510,49	97,928
510,70	97,699
510,91	98,083
511,12	98,084
511,32	98,665
511,53	96,419
511,74	96,381
511,94	96,778
512,15	95,793
512,36	97,390
512,57	95,682
512,77	97,064
512,98	96,001
513,19	96,297
513,39	95,459
513,60	95,070
513,81	95,646
514,01	95,133
514,22	95,424
514,43	95,370
514,64	95,699
514,84	95,526
515,05	96,031
515,26	95,434
515,46	95,586
515,67	95,925
515,88	94,361
516,08	95,850
516,29	94,094
516,50	94,316
516,70	95,235
516,91	95,554
517,12	94,646
517,32	96,477
517,53	95,487
517,74	96,442
517,95	95,865
518,15	95,924
518,36	97,366
518,57	96,224
518,77	98,131
518,98	98,428
519,19	97,848
519,39	97,073
519,60	98,355
519,80	97,724
520,01	97,171
520,22	97,529
520,42	97,790
520,63	97,510
520,84	96,189
521,04	96,546
521,25	94,910
521,46	94,084
521,66	94,746
521,87	94,306
522,08	95,818
522,28	94,965
522,49	94,686
522,70	95,130
522,90	95,620
523,11	96,439
523,31	96,984
523,52	96,908
523,73	97,399
523,93	97,079
524,14	96,599
524,35	96,479
524,55	95,843
524,76	94,924
524,97	95,111
525,17	95,149
525,38	94,514
525,58	93,723
525,79	94,294
526,00	95,116
526,20	95,053
526,41	94,758
526,61	96,336
526,82	95,927
527,03	96,040
527,23	95,687
527,44	96,633
527,64	97,009
527,85	97,830
528,06	97,614
528,26	97,637
528,47	97,979
528,68	98,897
528,88	98,095
529,09	98,324
529,29	98,436
529,50	99,049
529,70	99,065
529,91	97,300
530,12	97,160
530,32	96,457
530,53	97,064
530,73	96,476
530,94	97,267
531,15	97,179
531,35	97,180
531,56	97,433
531,76	96,730
531,97	97,567
532,17	97,139
532,38	95,764
532,59	96,732
532,79	96,651
533,00	97,153
533,20	96,054
533,41	95,152
533,61	95,214
533,82	95,559
534,03	94,627
534,23	96,796
534,44	95,747
534,64	95,622
534,85	96,183
535,05	96,632
535,26	96,961
535,46	97,573
535,67	96,793
535,88	97,672
536,08	96,166
536,29	96,300
536,49	96,302
536,70	96,532
536,90	96,496
537,11	96,255
537,31	97,209
537,52	97,482
537,72	97,038
537,93	97,344
538,13	95,874
538,34	96,599
538,55	95,023
538,75	94,440
538,96	94,205
539,16	92,784
539,37	91,919
539,57	92,339
539,78	92,122
539,98	92,291
540,19	92,663
540,39	93,027
540,60	92,916
540,80	93,025
541,01	92,068
541,21	92,002
541,42	87,828
541,62	85,842
541,83	85,402
542,03	83,213
542,24	82,211
542,44	80,395
542,65	79,720
542,85	80,427
543,06	80,734
543,26	79,614
543,47	82,027
543,67	82,683
543,88	84,158
544,08	83,356
544,29	83,214
544,49	81,772
544,70	80,288
544,90	77,629
545,11	76,838
545,31	73,598
545,52	68,670
545,72	61,118
545,93	49,069
546,13	35,282
546,34	22,830
546,54	14,278
546,75	8,538
546,95	5,393
547,15	3,619
547,36	2,511
547,56	1,872
547,77	1,623
547,97	1,152
548,18	1,070
548,38	0,870
548,59	0,888
548,79	0,750
549,00	0,879
549,20	0,844
549,41	0,837
549,61	0,861
549,81	0,782
550,02	0,939
550,22	0,878
550,43	0,776
550,63	0,952
550,84	0,656
551,04	0,633
551,25	0,857
551,45	0,812
551,65	0,753
551,86	0,861
552,06	0,740
552,27	0,681
552,47	0,861
552,68	0,819
552,88	0,659
553,08	0,587
553,29	0,783
553,49	0,623
553,70	0,823
553,90	0,645
554,11	0,617
554,31	0,665
554,51	0,539
554,72	0,635
554,92	0,641
555,13	0,878
555,33	0,839
555,53	0,889
555,74	0,594
555,94	0,666
556,15	0,588
556,35	0,706
556,56	0,918
556,76	0,759
556,96	0,741
557,17	0,771
557,37	0,754
557,58	0,747
557,78	0,646
557,98	0,655
558,19	0,717
558,39	0,701
558,59	0,783
558,80	0,762
559,00	0,600
559,21	0,633
559,41	0,661
559,61	0,631
559,82	0,713
560,02	0,707
560,23	0,799
560,43	0,578
560,63	0,576
560,84	0,592
561,04	0,590
561,24	0,606
561,45	0,646
561,65	0,591
561,85	0,777
562,06	0,687
562,26	0,620
562,47	0,760
562,67	0,666
562,87	0,707
563,08	0,584
563,28	0,469
563,48	0,651
563,69	0,571
563,89	0,663
564,09	0,784
564,30	0,703
564,50	0,649
564,70	0,736
564,91	0,769
565,11	0,524
565,31	0,568
565,52	0,814
565,72	0,721
565,92	0,795
566,13	0,608
566,33	0,648
566,53	0,570
566,74	0,720
566,94	0,573
567,14	0,593
567,35	0,584
567,55	0,636
567,75	0,657
567,96	0,716
568,16	0,755
568,36	0,570
568,57	0,842
568,77	0,644
568,97	0,612
569,18	0,845
569,38	0,817
569,58	0,599
569,79	0,794
569,99	0,923
570,19	0,743
570,39	0,781
570,60	0,735
570,80	0,725
571,00	0,788
571,21	0,765
571,41	0,750
571,61	0,911
571,82	0,835
572,02	0,922
572,22	0,789
572,42	0,779
572,63	0,843
572,83	0,765
573,03	0,590
573,24	0,895
573,44	0,770
573,64	0,955
573,84	0,972
574,05	0,984
574,25	1,047
574,45	0,952
574,66	1,039
574,86	1,029
575,06	0,987
575,26	0,884
575,47	1,011
575,67	1,205
575,87	0,952
576,07	1,061
576,28	1,223
576,48	1,144
576,68	1,250
576,88	1,004
577,09	1,811
577,29	2,096
577,49	3,455
577,69	5,809
577,90	9,564
578,10	16,148
578,30	24,788
578,50	37,246
578,71	50,552
578,91	63,551
579,11	72,995
579,31	79,326
579,52	84,510
579,72	85,749
579,92	85,321
580,12	86,364
580,33	86,071
580,53	84,293
580,73	82,992
580,93	81,711
581,13	83,037
581,34	82,928
581,54	83,154
581,74	85,076
581,94	86,519
582,15	87,314
582,35	89,348
582,55	89,973
582,75	90,142
582,95	91,721
583,16	91,154
583,36	91,916
583,56	92,204
583,76	91,997
583,96	91,237
584,17	91,270
584,37	93,066
584,57	91,248
584,77	91,750
584,97	92,827
585,18	93,698
585,38	93,865
585,58	94,386
585,78	94,731
585,98	95,776
586,19	96,519
586,39	96,191
586,59	96,807
586,79	96,169
586,99	96,388
587,20	94,631
587,40	94,187
587,60	92,800
587,80	92,622
588,00	92,100
588,20	91,178
588,41	92,658
588,61	92,108
588,81	92,457
589,01	93,767
589,21	92,826
589,41	93,915
589,62	95,338
589,82	95,783
590,02	96,214
590,22	97,219
590,42	98,060
590,62	98,085
590,83	96,432
591,03	97,769
591,23	97,370
591,43	98,066
591,63	96,609
591,83	97,675
592,03	96,601
592,24	97,897
592,44	97,656
592,64	96,831
592,84	97,707
593,04	97,445
593,24	97,119
593,44	97,724
593,65	97,608
593,85	97,710
594,05	96,693
594,25	96,482
594,45	97,682
594,65	96,146
594,85	97,325
595,06	97,214
595,26	96,612
595,46	96,310
595,66	97,486
595,86	97,842
596,06	95,800
596,26	96,874
596,46	96,678
596,66	97,017
596,87	96,589
597,07	97,022
597,27	96,567
597,47	96,944
597,67	97,306
597,87	96,149
598,07	95,381
598,27	96,349
598,47	96,149
598,67	97,256
598,88	96,984
599,08	96,802
599,28	97,726
599,48	97,710
599,68	97,762
599,88	97,331
600,08	98,684
600,28	97,795
600,48	98,049
600,68	96,503
600,88	96,856
601,09	97,299
601,29	95,294
601,49	96,557
601,69	96,483
601,89	95,819
602,09	95,960
602,29	95,145
602,49	95,495
602,69	95,796
602,89	96,094
603,09	96,948
603,29	96,426
603,49	95,440
603,69	95,706
603,90	95,689
604,10	97,226
604,30	96,509
604,50	96,134
604,70	96,634
604,90	97,262
605,10	95,880
605,30	97,066
605,50	95,842
605,70	97,100
605,90	96,248
606,10	95,904
606,30	95,991
606,50	96,672
606,70	96,894
606,90	95,726
607,10	96,126
607,30	96,594
607,50	95,937
607,70	96,257
607,90	96,602
608,10	96,477
608,30	96,769
608,50	96,508
608,70	96,241
608,90	96,896
609,11	96,408
609,31	95,695
609,51	96,410
609,71	95,857
609,91	95,853
610,11	94,635
610,31	94,437
610,51	94,146
610,71	94,938
610,91	93,379
611,11	94,448
611,31	95,111
611,51	95,034
611,71	94,932
611,91	95,932
612,11	96,180
612,31	95,828
612,51	95,174
612,71	95,743
612,91	93,980
613,11	92,431
613,31	91,481
613,51	90,287
613,71	87,670
613,91	85,719
614,11	84,928
614,31	83,332
614,50	82,959
614,70	82,344
614,90	83,388
615,10	83,217
615,30	84,943
615,50	83,880
615,70	86,028
615,90	87,913
616,10	88,279
616,30	89,949
616,50	89,684
616,70	90,338
616,90	90,285
617,10	89,016
617,30	88,229
617,50	86,878
617,70	85,005
617,90	83,973
618,10	80,611
618,30	79,496
618,50	74,943
618,70	69,890
618,90	61,241
619,10	48,880
619,30	35,736
619,49	25,154
619,69	16,858
619,89	10,925
620,09	7,409
620,29	5,027
620,49	3,493
620,69	2,407
620,89	1,909
621,09	1,519
621,29	1,258
621,49	1,048
621,69	1,003
621,89	0,905
622,09	0,863
622,29	0,804
622,48	0,654
622,68	0,585
622,88	0,576
623,08	0,659
623,28	0,547
623,48	0,707
623,68	0,707
623,88	0,754
624,08	0,689
624,28	0,433
624,48	0,624
624,67	0,682
624,87	0,659
625,07	0,498
625,27	0,636
625,47	0,742
625,67	0,722
625,87	0,512
626,07	0,561
626,27	0,542
626,47	0,596
626,66	0,592
626,86	0,738
627,06	0,613
627,26	0,678
627,46	0,434
627,66	0,604
627,86	0,630
628,06	0,676
628,25	0,573
628,45	0,555
628,65	0,380
628,85	0,625
629,05	0,686
629,25	0,633
629,45	0,520
629,65	0,494
629,84	0,503
630,04	0,488
630,24	0,543
630,44	0,523
630,64	0,583
630,84	0,602
631,04	0,643
631,23	0,436
631,43	0,513
631,63	0,550
631,83	0,592
632,03	0,658
632,23	0,510
632,42	0,515
632,62	0,622
632,82	0,516
633,02	0,468
633,22	0,628
633,42	0,616
633,62	0,599
633,81	0,583
634,01	0,399
634,21	0,681
634,41	0,561
634,61	0,701
634,80	0,663
635,00	0,544
635,20	0,546
635,40	0,865
635,60	0,617
635,80	0,495
635,99	0,707
636,19	0,597
636,39	0,631
636,59	0,929
636,79	0,687
636,98	0,755
637,18	0,710
637,38	0,779
637,58	0,739
637,78	0,773
637,97	0,638
638,17	0,967
638,37	0,718
638,57	0,740
638,77	0,815
638,96	0,586
639,16	0,893
639,36	0,848
639,56	0,589
639,76	0,907
639,95	0,972
640,15	0,547
640,35	0,910
640,55	0,521
640,75	0,956
640,94	0,601
641,14	0,709
641,34	0,797
641,54	0,798
641,73	0,693
641,93	0,947
642,13	0,733
642,33	0,975
642,53	0,845
642,72	0,818
642,92	1,109
643,12	0,827
643,32	0,916
643,51	0,867
643,71	0,762
643,91	0,692
644,11	1,114
644,30	1,008
644,50	1,066
644,70	0,513
644,90	0,622
645,09	0,761
645,29	0,430
645,49	1,191
645,69	1,142
645,88	0,935
646,08	1,006
646,28	1,155
646,48	0,848
646,67	1,005
646,87	1,120
647,07	0,806
647,26	0,651
647,46	1,185
647,66	0,973
647,86	1,032
648,05	0,754
648,25	1,019
648,45	1,176
648,65	1,184
648,84	1,017
649,04	1,136
649,24	1,330
649,43	0,967
649,63	1,323
649,83	1,141
650,03	1,045
650,22	1,143
650,42	1,255
650,62	0,920
650,81	0,961
651,01	1,330
651,21	1,004
651,40	0,953
651,60	1,250
651,80	0,912
652,00	1,228
652,19	0,669
652,39	1,531
652,59	1,403
652,78	1,303
652,98	1,171
653,18	1,011
653,37	1,097
653,57	0,973
653,77	1,271
653,96	1,160
654,16	1,469
654,36	1,309
654,55	1,774
654,75	1,543
654,95	1,565
655,14	0,991
655,34	1,746
655,54	1,318
655,73	1,361
655,93	1,528
656,13	1,421
656,32	1,612
656,52	1,817
656,72	2,005
656,91	2,549
657,11	3,376
657,31	4,867
657,50	7,335
657,70	10,708
657,90	15,875
658,09	22,216
658,29	31,721
658,49	38,707
658,68	47,343
658,88	54,103
659,07	59,552
659,27	65,037
659,47	67,463
659,66	70,650
659,86	73,548
660,06	76,880
660,25	76,308
660,45	77,411
660,64	76,934
660,84	76,469
661,04	77,884
661,23	78,803
661,43	78,650
661,63	82,247
661,82	82,565
662,02	83,870
662,21	83,709
662,41	87,092
662,61	88,219
662,80	89,758
663,00	90,172
663,19	90,196
663,39	91,372
663,59	92,815
663,78	92,360
663,98	93,949
664,17	92,699
664,37	92,852
664,57	93,735
664,76	94,664
664,96	92,821
665,15	93,023
665,35	93,614
665,55	92,416
665,74	93,104
665,94	95,430
666,13	94,604
666,33	96,218
666,53	95,336
666,72	96,167
666,92	94,911
667,11	97,802
667,31	95,295
667,50	96,745
667,70	95,078
667,90	95,124
668,09	96,776
668,29	95,600
668,48	95,562
668,68	93,675
668,87	95,783
669,07	94,813
669,26	94,375
669,46	95,135
669,66	96,295
669,85	96,337
670,05	96,254
670,24	96,196
670,44	95,638
670,63	95,326
670,83	95,900
671,02	95,194
671,22	94,969
671,42	92,841
671,61	92,916
671,81	93,225
672,00	91,484
672,20	91,923
672,39	90,732
672,59	90,046
672,78	91,059
672,98	92,032
673,17	92,340
673,37	92,499
673,56	92,415
673,76	91,775
673,95	93,332
674,15	94,199
674,34	95,632
674,54	96,583
674,73	95,744
674,93	96,351
675,13	93,944
675,32	94,202
675,52	94,887
675,71	93,775
675,91	94,470
676,10	92,476
676,30	93,589
676,49	92,897
676,69	93,373
676,88	92,568
677,08	92,029
677,27	92,516
677,47	93,140
677,66	93,329
677,86	92,527
678,05	91,995
678,24	93,501
678,44	93,444
678,63	92,455
678,83	94,201
679,02	94,187
679,22	93,527
679,41	93,364
679,61	92,738
679,80	94,619
680,00	93,239
680,19	94,349
680,39	93,960
680,58	94,244
680,78	92,250
680,97	92,959
681,17	91,633
681,36	92,565
681,56	90,848
681,75	90,731
681,94	90,112
682,14	91,241
682,33	88,320
682,53	89,433
682,72	88,393
682,92	88,479
683,11	88,171
683,31	87,844
683,50	87,816
683,69	89,320
683,89	87,974
684,08	89,012
684,28	88,756
684,47	88,324
684,67	88,071
684,86	87,223
685,06	89,018
685,25	87,579
685,44	89,331
685,64	87,459
685,83	88,801
686,03	89,412
686,22	89,016
686,42	89,676
686,61	89,705
686,80	90,160
687,00	91,660
687,19	90,749
687,39	89,556
687,58	90,161
687,77	90,602
687,97	88,018
688,16	88,311
688,36	86,306
688,55	84,957
688,74	84,028
688,94	83,773
689,13	81,333
689,33	79,975
689,52	78,462
689,71	78,251
689,91	77,217
690,10	76,858
690,30	78,625
690,49	79,403
690,68	80,358
690,88	81,576
691,07	80,812
691,27	80,703
691,46	80,025
691,65	76,533
691,85	69,791
692,04	63,759
692,23	56,043
692,43	48,760
692,62	41,023
692,82	35,612
693,01	30,106
693,20	27,674
693,40	25,805
693,59	25,307
693,78	26,238
693,98	28,449
694,17	32,322
694,36	37,149
694,56	39,840
694,75	40,612
694,94	38,431
695,14	33,367
695,33	25,929
695,53	19,040
695,72	14,301
695,91	10,292
696,11	7,406
696,30	5,229
696,49	3,893
696,69	3,235
696,88	2,348
697,07	1,818
697,27	1,527
697,46	1,410
697,65	1,128
697,85	0,892
698,04	1,237
698,23	1,203
698,43	0,679
698,62	1,037
698,81	0,826
699,01	1,394
699,20	0,969
699,39	1,214
699,58	1,295
699,78	1,350
699,97	1,160
700,16	1,400
700,36	1,179
700,55	1,742
700,74	0,850
700,94	1,222
701,13	1,363
701,32	1,834
701,52	1,787
701,71	1,337
701,90	1,443
702,09	1,542
702,29	1,852
702,48	1,581
702,67	1,632
702,87	1,427
703,06	1,534
703,25	1,814
703,44	1,500
703,64	1,829
703,83	2,482
704,02	2,003
704,22	1,795
704,41	1,234
704,60	2,339
704,79	2,125
704,99	1,872
705,18	2,427
705,37	1,934
705,56	2,789
705,76	2,824
705,95	2,640
706,14	1,686
706,33	3,244
706,53	2,574
706,72	1,775
706,91	3,434
707,11	2,561
707,30	3,365
707,49	4,574
707,68	1,938
707,88	2,635
708,07	2,357
708,26	2,394
708,45	3,044
708,64	2,503
708,84	4,381
709,03	3,054
709,22	3,159
709,41	3,876
709,61	3,944
709,80	3,435
709,99	3,791
710,18	4,237
710,38	3,053
710,57	3,569
710,76	3,105
710,95	3,268
711,14	5,273
711,34	3,082
711,53	5,381
711,72	5,320
711,91	3,613
712,11	5,298
712,30	6,376
712,49	5,482
712,68	5,010
712,87	6,014
713,07	4,959
713,26	5,107
713,45	5,102
713,64	3,519
713,83	5,007
714,03	6,190
714,22	4,242
714,41	5,910
714,60	6,086
714,79	4,769
714,99	5,758
715,18	4,413
715,37	6,684
715,56	5,996
715,75	4,184
715,94	5,063
716,14	6,523
716,33	4,418
716,52	4,574
716,71	6,704
716,90	6,969
717,10	7,732
717,29	4,686
717,48	8,724
717,67	3,356
717,86	7,540
718,05	0,719
718,24	8,748
718,44	7,383
718,63	7,027
718,82	10,076
719,01	7,049
719,20	4,924
719,39	5,774
719,59	4,862
719,78	6,698
719,97	8,368
720,16	7,402
720,35	7,093
720,54	9,379
720,73	5,004
720,93	8,817
721,12	4,280
721,31	8,333
721,50	7,789
721,69	7,893
721,88	10,784
722,07	4,969
722,27	7,398
722,46	10,331
722,65	7,441
722,84	8,399
723,03	3,767
723,22	9,091
723,41	10,194
723,60	10,777
723,79	9,392
723,99	10,309
724,18	11,191
724,37	11,020
724,56	9,813
724,75	11,943
724,94	9,852
725,13	12,889
725,32	8,365
725,51	12,390
725,71	9,186
725,90	9,484
726,09	14,735
726,28	11,929
726,47	8,008
726,66	12,837
726,85	6,250
727,04	11,215
727,23	10,437
727,42	12,195
727,61	10,370
727,81	12,513
728,00	8,122
728,19	9,039
728,38	10,043
728,57	11,950
728,76	13,361
728,95	11,272
729,14	9,740
729,33	14,929
729,52	9,561
729,71	13,203
729,90	11,251
730,09	8,995
730,28	18,245
730,48	8,005
730,67	12,092
730,86	6,716
731,05	14,486
731,24	12,362
731,43	10,818
731,62	13,534
731,81	9,784
732,00	10,292
732,19	14,559
732,38	11,780
732,57	12,670
732,76	16,429
732,95	8,133
733,14	10,273
733,33	10,165
733,52	16,223
733,71	8,301
733,90	14,910
734,09	12,609
734,28	15,310
734,47	11,579
734,66	18,996
734,85	15,745
735,04	10,899
735,23	17,725
735,42	13,256
735,61	19,467
735,81	12,138
736,00	18,223
736,19	20,414
736,38	13,481
736,57	18,245
736,76	11,783
736,95	14,091
737,14	13,526
737,33	19,904
737,52	14,480
737,71	15,224
737,90	15,582
738,09	13,344
738,28	13,557
738,47	16,503
738,66	15,313
738,85	14,433
739,04	17,148
739,22	11,486
739,41	16,129
739,60	12,207
739,79	14,555
739,98	9,982
740,17	21,429
740,36	12,679
740,55	23,986
740,74	15,130
740,93	19,512
741,12	20,221
741,31	18,382
741,50	15,254
741,69	10,926
741,88	8,400
742,07	22,383
742,26	11,985
742,45	15,613
742,64	25,360
742,83	9,149
743,02	20,541
743,21	21,730
743,40	16,507
743,59	20,902
743,78	22,052
743,97	21,805
744,16	17,073
744,34	19,291
744,53	22,746
744,72	24,324
744,91	15,579
745,10	22,410
745,29	18,676
745,48	20,548
745,67	16,701
745,86	14,319
746,05	28,311
746,24	30,065
746,43	24,586
746,62	4,608
746,81	29,909
747,00	12,735
747,18	32,308
747,37	17,910
747,56	20,449
747,75	24,726
747,94	29,978
748,13	26,256
748,32	30,128
748,51	32,957
748,70	21,823
748,89	24,155
749,08	19,429
749,26	19,809
749,45	37,647
749,64	28,040
749,83	23,155
750,02	26,796
750,21	19,648
750,40	28,646
750,59	35,377
750,78	31,953
750,96	24,860
751,15	23,497
751,34	33,770
751,53	32,266
751,72	26,146
751,91	20,274
752,10	25,000
752,29	23,729
752,47	24,157
752,66	26,479
752,85	25,697
753,04	29,338
753,23	6,291
753,42	33,739
753,61	27,124
753,80	33,333
753,98	29,825
754,17	26,994
754,36	35,028
754,55	22,884
754,74	29,480
754,93	31,988
755,12	32,800
755,30	31,025
755,49	35,168
755,68	41,787
755,87	30,330
756,06	24,860
756,25	32,698
756,43	28,966
756,62	39,466
756,81	30,693
757,00	28,696
757,19	26,027
757,38	27,760
757,56	34,516
757,75	26,797
757,94	29,338
758,13	26,299
758,32	31,061
758,51	36,029
758,69	34,400
758,88	34,234
759,07	22,939
759,26	30,698
759,45	47,162
759,63	40,520
759,82	25,253
760,01	42,140
760,20	25,681
760,39	33,955
760,57	46,694
760,76	20,721
760,95	42,130
761,14	34,694
761,33	39,375
761,51	32,616
761,70	44,828
761,89	34,426
762,08	56,279
762,27	32,601
762,45	49,027
762,64	28,205
762,83	46,460
763,02	38,605
763,21	22,414
763,39	45,306
763,58	33,585
763,77	29,344
763,96	53,815
764,14	30,833
764,33	28,205
764,52	57,082
764,71	36,323
764,89	45,098
765,08	43,966
765,27	39,405
765,46	45,652
765,65	21,834
765,83	45,022
766,02	37,872
766,21	59,669
766,40	41,905
766,58	31,707
766,77	37,313
766,96	53,636
767,15	44,928
767,33	42,690
767,52	69,512
767,71	57,391
767,90	38,764
768,08	44,747
768,27	50,500
768,46	53,906
768,64	52,332
768,83	53,646
769,02	54,000
769,21	41,921
769,39	65,698
769,58	47,977
769,77	63,985
769,96	45,550
770,14	50,340
770,33	43,458
770,52	29,101
770,70	53,333
770,89	79,866
771,08	36,441
771,27	61,856
771,45	46,491
771,64	50,000
771,83	58,411
772,01	30,723
772,20	60,302
772,39	45,333
772,57	54,264
772,76	42,963
772,95	39,716
773,14	62,903
773,32	53,548
773,51	47,264
773,70	68,750
773,88	79,781
774,07	27,225
774,26	44,681
774,44	42,683
774,63	74,619
774,82	53,049
775,00	66,000
775,19	51,200
775,38	52,023
775,56	44,792
775,75	69,277
775,94	73,418
776,12	60,221
776,31	45,294
776,50	71,023
776,68	56,842
776,87	55,682
777,06	70,345
777,24	74,444
777,43	39,744
777,62	91,912
777,80	76,351
777,99	88,000
778,18	65,842
778,36	84,000
778,55	77,686
778,74	62,500
778,92	61,538
779,11	89,167
779,29	64,780
779,48	37,415
779,67	63,566
779,85	79,675
780,04	58,378
780,23	81,295
780,41	52,344
780,60	26,316
780,79	85,311
780,97	73,026
781,16	41,212
781,34	107,216
781,53	78,632
781,72	61,314
781,90	40,625
782,09	79,355
782,28	82,482
782,46	36,296
782,65	67,857
782,83	87,640
783,02	62,500
783,21	112,667
783,39	106,087
783,58	54,438
783,76	77,095
783,95	50,303
784,14	60,927
784,32	73,826
784,51	61,207
784,69	115,254
784,88	90,991
785,06	35,294
785,25	80,892
785,44	78,417
785,62	56,429
785,81	145,070
785,99	98,561
786,18	72,297
786,37	62,963
786,55	66,972
786,74	59,868
786,92	97,656
787,11	79,167
787,29	68,657
787,48	74,000
787,67	98,795
787,85	91,379
788,04	74,257
788,22	95,902
788,41	72,941
788,59	114,679
788,78	66,061
788,96	58,491
789,15	114,737
789,34	98,182
789,52	70,796
789,71	58,915
789,89	117,021
790,08	76,027
790,26	60,000
790,45	96,970
790,63	76,852
790,82	81,212
791,00	51,389
791,19	81,720
791,38	94,444
791,56	83,333
791,75	117,431
791,93	89,655
792,12	72,189
792,30	88,000
792,49	69,748
792,67	74,627
792,86	88,372
793,04	97,196
793,23	50,833
793,41	107,595
793,60	92,929
793,78	116,667
793,97	93,590
794,15	92,727
794,34	70,330
794,52	66,234
794,71	80,247
794,89	41,111
795,08	102,913
795,26	89,444
795,45	128,358
795,63	84,091
795,82	82,243
796,00	97,248
796,19	100,833
796,37	84,672
796,56	196,774
796,74	103,540
796,93	117,978
797,11	88,608
797,30	81,667
797,48	84,828
797,67	105,833
797,85	94,898
798,04	115,625
798,22	97,619
798,41	72,549
798,59	113,684
798,77	92,308
798,96	131,183
799,14	112,931
799,33	103,817
799,51	72,308
799,70	69,128
799,88	110,606
800,07	52,632
800,25	50,345
800,44	67,677
800,62	94,118
800,80	134,783
800,99	141,270
801,17	87,069
801,36	71,034
801,54	119,792
801,73	75,758
801,91	109,016
802,10	80,952
802,28	110,280
802,46	86,420
802,65	86,207
802,83	123,596
803,02	57,895
803,20	76,562
803,39	77,586
803,57	139,759
803,75	79,730
803,94	81,513
804,12	78,333
804,31	82,301
804,49	83,654
804,67	100,800
804,86	62,500
805,04	122,297
805,23	76,552
805,41	115,574
805,59	44,262
805,78	70,455
805,96	103,846
806,15	84,375
806,33	103,361
806,51	86,726
806,70	138,333
806,88	71,545
807,07	61,111
807,25	55,346
807,43	92,053
807,62	62,602
807,80	121,505
807,99	100,000
808,17	93,617
808,35	59,649
808,54	117,204
808,72	70,400
808,90	67,105
809,09	99,167
809,27	103,604
809,46	119,643
809,64	88,235
809,82	82,759
810,01	108,333
810,19	88,000
810,37	85,385
810,56	108,537
810,74	63,576
810,92	117,424
811,11	113,725
811,29	90,071
811,48	136,364
811,66	80,620
811,84	121,101
812,03	86,364
812,21	148,718
812,39	96,610
812,58	111,765
812,76	73,832
812,94	109,333
813,13	73,016
813,31	59,167
813,49	100,000
813,68	98,261
813,86	114,286
814,04	140,777
814,23	129,293
814,41	80,147
814,59	78,531
814,78	69,118
814,96	45,946
815,14	100,000
815,33	82,609
815,51	76,296
815,69	48,148
815,87	100,870
816,06	88,125
816,24	71,523
816,42	42,308
816,61	99,153
816,79	118,072
816,97	123,423
817,16	78,065
817,34	94,483
817,52	62,759
817,70	108,730
817,89	80,992
818,07	83,621
818,25	63,964
818,44	77,326
818,62	54,310
818,80	91,608
818,98	88,571
819,17	76,154
819,35	72,353
819,53	69,307
819,72	53,488
819,90	74,251
820,08	33,117
820,26	91,228
820,45	82,530
820,63	87,500
820,81	87,919
820,99	112,030
821,18	74,074
821,36	63,810
821,54	48,256
821,73	76,757
821,91	44,681
822,09	90,588
822,27	51,777
822,46	56,875
822,64	82,119
822,82	56,585
823,00	64,865
823,19	68,939
823,37	98,571
823,55	70,588
823,73	80,000
823,91	41,989
824,10	67,039
824,28	61,481
824,46	50,000
824,64	63,725
824,83	59,350
825,01	33,333
825,19	73,143
825,37	60,938
825,56	48,750
825,74	53,810
825,92	78,090
826,10	71,429
826,28	69,128
826,47	42,276
826,65	43,919
826,83	55,376
827,01	32,576
827,19	89,241
827,38	60,622
827,56	67,788
827,74	54,472
827,92	58,049
828,10	38,043
828,29	69,524
828,47	60,088
828,65	40,541
828,83	49,495
829,01	66,667
829,20	45,570
829,38	24,481
829,56	58,300
829,74	70,455
829,92	57,732
830,10	42,793
830,29	72,432
830,47	80,729
830,65	54,911
830,83	61,714
831,01	50,000
831,20	56,436
831,38	36,585
831,56	59,919
831,74	77,143
831,92	50,568
832,10	45,000
832,29	56,872
832,47	48,673
832,65	61,277
832,83	33,023
833,01	43,083
833,19	39,819
833,37	56,667
833,56	43,192
833,74	64,372
833,92	48,673
834,10	50,254
834,28	33,462
834,46	44,637
834,64	50,391
834,83	43,003
835,01	64,591
835,19	37,915
835,37	37,849
835,55	55,596
835,73	47,059
835,91	44,788
836,09	41,909
836,28	43,893
836,46	47,719
836,64	55,738
836,82	22,388
837,00	49,660
837,18	30,830
837,36	45,989
837,54	37,500
837,72	29,084
837,91	44,177
838,09	34,800
838,27	37,363
838,45	45,631
838,63	21,356
838,81	36,184
838,99	58,885
839,17	47,573
839,35	39,630
839,53	27,181
839,72	27,119
839,90	32,523
840,08	31,410
840,26	35,016
840,44	29,012
840,62	33,333
840,80	33,025
840,98	28,399
841,16	25,623
841,34	29,565
841,52	34,185
841,70	30,640
841,89	31,613
842,07	40,541
842,25	26,948
842,43	35,161
842,61	31,099
842,79	34,756
842,97	29,573
843,15	32,665
843,33	33,254
843,51	34,606
843,69	22,222
843,87	22,102
844,05	30,997
844,23	29,459
844,41	29,397
844,59	32,955
844,77	21,614
844,95	31,311
845,13	34,153
845,31	28,212
845,50	32,990
845,68	33,938
845,86	33,491
846,04	22,222
846,22	31,504
846,40	14,436
846,58	24,933
846,76	24,439
846,94	30,048
847,12	20,616
847,30	32,028
847,48	23,741
847,66	32,195
847,84	26,650
848,02	22,869
848,20	29,581
848,38	20,798
848,56	24,516
848,74	24,380
848,92	19,624
849,10	28,795
849,28	31,373
849,46	17,523
849,64	20,238
849,82	15,144
850,00	23,614
850,18	22,633
850,36	28,728
850,54	22,646
850,72	23,285
850,90	29,927
851,08	16,255
851,26	27,530
851,44	25,301
851,62	18,102
851,80	19,682
851,98	29,218
852,16	33,333
852,34	29,791
852,52	15,905
852,70	16,667
852,87	28,190
853,05	28,457
853,23	15,294
853,41	17,587
853,59	16,038
853,77	19,643
853,95	17,585
854,13	22,913
854,31	26,876
854,49	17,435
854,67	22,556
854,85	20,696
855,03	15,326
855,21	10,998
855,39	20,302
855,57	21,196
855,75	15,177
855,93	14,134
856,11	26,794
856,28	16,667
856,46	16,013
856,64	18,932
856,82	20,244
857,00	13,668
857,18	16,432
857,36	11,933
857,54	20,777
857,72	20,033
857,90	9,720
858,08	12,654
858,26	14,373
858,44	18,323
858,61	15,425
858,79	19,535
858,97	17,049
859,15	12,785
859,33	17,791
859,51	17,732
859,69	11,012
859,87	11,420
860,05	19,247
860,23	13,333
860,40	16,743
860,58	15,661
860,76	12,994
860,94	5,038
861,12	12,890
861,30	15,458
861,48	17,705
861,66	12,036
861,84	15,223
862,01	17,647
862,19	17,073
862,37	18,222
862,55	13,649
862,73	14,674
862,91	10,404
863,09	11,443
863,27	5,153
863,44	10,066
863,62	17,391
863,80	11,743
863,98	11,239
864,16	13,564
864,34	17,792
864,52	10,364
864,69	13,855
864,87	15,971
865,05	8,494
865,23	13,889
865,41	18,117
865,59	15,204
865,76	12,274
865,94	11,432
866,12	9,287
866,30	7,362
866,48	12,095
866,66	16,811
866,83	11,379
867,01	14,611
867,19	11,870
867,37	13,445
867,55	13,502
867,73	11,390
867,90	12,802
868,08	11,983
868,26	6,613
868,44	13,305
868,62	12,330
868,79	7,576
868,97	16,844
869,15	11,146
869,33	8,269
869,51	20,276
869,69	9,072
869,86	4,308
870,04	9,947
870,22	10,406
870,40	9,798
870,57	14,000
870,75	13,314
870,93	11,863
871,11	7,426
871,29	6,707
871,46	10,473
871,64	8,803
871,82	10,829
872,00	12,265
872,18	12,900
872,35	11,765
872,53	10,964
872,71	7,026
872,89	6,580
873,06	10,148
873,24	8,824
873,42	6,900
873,60	5,969
873,77	8,274
873,95	8,836
874,13	8,318
874,31	7,843
874,49	8,108
874,66	7,818
874,84	7,460
875,02	11,554
875,20	7,355
875,37	5,196
875,55	7,621
875,73	5,436
875,91	8,750
876,08	7,484
876,26	8,493
876,44	5,351
876,61	9,237
876,79	11,449
876,97	10,998
877,15	9,389
877,32	5,276
877,50	10,008
877,68	6,962
877,86	9,685
878,03	4,298
878,21	5,973
878,39	6,593
878,56	6,490
878,74	6,941
878,92	8,383
879,10	6,953
879,27	7,767
879,45	11,654
879,63	7,229
879,80	5,438
879,98	6,335
880,16	8,702
880,34	6,212
880,51	7,442
880,69	8,767
880,87	5,155
881,04	5,029
881,22	6,258
881,40	2,022
881,57	6,114
881,75	7,270
881,93	6,085
882,10	7,303
882,28	5,849
882,46	8,078
882,63	6,721
882,81	5,230
882,99	8,037
883,16	7,838
883,34	5,764
883,52	4,467
883,69	7,861
883,87	5,103
884,05	5,201
884,22	5,393
884,40	5,886
884,58	5,587
884,75	4,809
884,93	5,707
885,11	4,570
885,28	3,448
885,46	4,796
885,64	5,445
885,81	6,431
885,99	4,707
886,17	4,724
886,34	7,132
886,52	4,868
886,70	3,692
886,87	5,955
887,05	4,726
887,22	3,383
887,40	5,727
887,58	4,478
887,75	4,935
887,93	5,515
888,11	2,373
888,28	4,362
888,46	2,818
888,63	5,673
888,81	3,806
888,99	3,791
889,16	3,757
889,34	5,000
889,51	3,430
889,69	3,479
889,87	3,900
890,04	2,601
890,22	5,189
890,39	2,256
890,57	5,765
890,75	4,746
890,92	4,146
891,10	6,746
891,27	4,723
891,45	3,708
891,63	5,594
891,80	2,394
891,98	5,272
892,15	3,173
892,33	3,145
892,51	3,869
892,68	3,256
892,86	3,614
893,03	5,853
893,21	4,972
893,38	4,641
893,56	3,561
893,74	4,022
893,91	4,099
894,09	4,210
894,26	5,525
894,44	2,926
894,61	4,647
894,79	3,594
894,96	4,531
895,14	4,705
895,32	3,093
895,49	3,023
895,67	3,854
895,84	5,871
896,02	4,175
896,19	2,630
896,37	5,275
896,54	4,381
896,72	3,021
896,89	4,426
897,07	3,077
897,25	4,017
897,42	2,285
897,60	3,936
897,77	5,563
897,95	4,303
898,12	2,619
898,30	3,831
898,47	3,593
898,65	3,717
898,82	2,539
899,00	2,896
899,17	5,050
899,35	4,448
899,52	2,633
899,70	2,351
899,87	2,790
900,05	5,727
900,22	3,162
900,40	3,643
900,57	4,187
900,75	1,212
900,92	2,604
901,10	4,149
901,27	3,545
901,45	4,295
901,62	3,294
901,80	4,415
901,97	3,444
902,15	5,391
902,32	2,818
902,50	2,595
902,67	2,948
902,85	3,543
903,02	4,366
903,20	3,479
903,37	2,538
903,54	4,897
903,72	3,291
903,89	3,757
904,07	3,782
904,24	3,021
904,42	2,662
904,59	1,695
904,77	3,246
904,94	3,083
905,12	2,506
905,29	3,640
905,47	3,978
905,64	2,979
905,81	2,735
905,99	3,328
906,16	3,694
906,34	3,651
906,51	2,577
906,69	3,384
906,86	3,464
907,03	4,094
907,21	1,985
907,38	1,536
907,56	2,621
907,73	4,523
907,91	2,730
908,08	2,136
908,25	1,951
908,43	1,978
908,60	2,763
908,78	4,167
908,95	4,165
909,13	3,282
909,30	2,340
909,47	3,055
909,65	4,284
909,82	4,205
910,00	2,596
910,17	2,770
910,34	2,280
910,52	1,939
910,69	3,908
910,87	2,689
911,04	1,920
911,21	3,465
911,39	3,318
911,56	2,605
911,73	3,560
911,91	2,498
912,08	3,482
912,26	1,005
912,43	2,709
912,60	4,211
912,78	3,553
912,95	3,537
913,13	3,078
913,30	3,405
913,47	3,007
913,65	1,892
913,82	2,894
913,99	2,994
914,17	2,552
914,34	3,503
914,51	4,499
914,69	3,772
914,86	4,188
915,03	3,348
915,21	2,228
915,38	1,833
915,56	2,346
915,73	2,111
915,90	3,126
916,08	2,455
916,25	1,994
916,42	2,671
916,60	2,260
916,77	2,679
916,94	2,148
917,12	3,332
917,29	2,912
917,46	2,031
917,64	1,453
917,81	2,353
917,98	1,784
918,16	3,482
918,33	3,250
918,50	3,034
918,67	2,549
918,85	2,889
919,02	2,682
919,19	3,025
919,37	2,431
919,54	3,749
919,71	3,128
919,89	2,495
920,06	1,250
920,23	1,951
920,41	2,587
920,58	2,625
920,75	3,194
920,92	3,067
921,10	1,635
921,27	0,822
921,44	2,981
921,62	1,068
921,79	2,733
921,96	1,969
922,13	1,556
922,31	1,605
922,48	2,365
922,65	1,943
922,82	2,379
923,00	3,542
923,17	1,667
923,34	2,250
923,52	2,040
923,69	0,784
923,86	1,622
924,03	2,422
924,21	1,692
924,38	3,437
924,55	3,589
924,72	2,937
924,90	2,189
925,07	2,276
925,24	2,524
925,41	2,514
925,59	1,003
925,76	2,764
925,93	1,994
926,10	2,758
926,28	1,082
926,45	2,389
926,62	1,945
926,79	2,293
926,96	1,911
927,14	2,627
927,31	1,504
927,48	2,608
927,65	2,709
927,83	1,670
928,00	0,704
928,17	2,483
928,34	2,204
928,51	2,806
928,69	1,424
928,86	2,275
929,03	3,250
929,20	1,766
929,37	2,679
929,55	2,130
929,72	2,055
929,89	1,533
930,06	2,254
930,23	1,948
930,41	1,282
930,58	2,100
930,75	2,467
930,92	2,395
931,09	2,503
931,27	1,474
931,44	1,434
931,61	1,961
931,78	2,497
931,95	1,647
932,12	2,464
932,30	2,161
932,47	1,767
932,64	1,747
932,81	2,092
932,98	1,503
933,16	1,531
933,33	3,290
933,50	1,964
933,67	2,442
933,84	2,240
934,01	1,468
934,18	1,955
934,36	1,540
934,53	1,166
934,70	2,090
934,87	2,148
935,04	2,204
935,21	1,034
935,38	1,360
935,56	1,236
935,73	1,218
935,90	1,160
936,07	2,306
936,24	2,143
936,41	1,771
936,58	1,250
936,76	2,359
936,93	0,884
937,10	2,119
937,27	1,960
937,44	1,734
937,61	2,644
937,78	1,927
937,95	1,435
938,13	1,889
938,30	2,127
938,47	2,009
938,64	2,040
938,81	2,094
938,98	2,506
939,15	2,225
939,32	1,539
939,49	2,220
939,66	2,560
939,84	1,839
940,01	2,820
940,18	2,127
940,35	1,667
940,52	0,943
940,69	3,392
940,86	1,917
941,03	1,512
941,20	1,882
941,37	1,640
941,54	0,870
941,71	0,851
941,89	1,982
942,06	1,767
942,23	2,260
942,40	1,556
942,57	2,420
942,74	2,736
942,91	1,674
943,08	2,644
943,25	1,847
943,42	1,871
943,59	2,586
943,76	3,335
943,93	2,541
944,10	1,292
944,27	1,181
944,44	2,650
944,61	1,424
944,79	2,775
944,96	3,115
945,13	1,122
945,30	1,279
945,47	1,775
945,64	1,892
945,81	3,819
945,98	2,000
946,15	2,854
946,32	3,018
946,49	2,857
946,66	1,798
946,83	3,002
947,00	1,287
947,17	2,029
947,34	1,723
947,51	2,108
947,68	3,108
947,85	1,262
948,02	2,259
948,19	3,679
948,36	3,357
948,53	2,588
948,70	3,950
948,87	2,740
949,04	2,534
949,21	1,853
949,38	3,295
949,55	1,878
949,72	2,860
949,89	2,787
950,06	1,735
950,23	3,525
950,40	3,234
950,57	1,558
950,74	4,905
950,91	3,059
951,08	3,604
951,25	3,436
951,42	5,356
951,59	3,210
951,76	3,233
951,93	3,961
952,10	2,979
952,27	1,993
952,44	1,898
952,61	3,163
952,77	4,516
952,94	2,351
953,11	6,934
953,28	5,631
953,45	4,610
953,62	5,349
953,79	3,922
953,96	5,059
954,13	3,932
954,30	4,440
954,47	4,392
954,64	5,162
954,81	4,213
954,98	2,902
955,15	7,434
955,32	5,718
955,49	4,648
955,65	5,797
955,82	5,230
955,99	5,816
956,16	4,599
956,33	7,392
956,50	4,179
956,67	8,123
956,84	7,407
957,01	3,900
957,18	5,721
957,35	7,065
957,52	7,802
957,68	7,000
957,85	6,979
958,02	8,441
958,19	10,879
958,36	8,067
958,53	11,060
958,70	7,330
958,87	8,023
959,04	9,854
959,21	12,121
959,37	8,658
959,54	9,592
959,71	12,727
959,88	11,306
960,05	11,258
960,22	10,651
960,39	12,800
960,56	9,494
960,72	6,274
960,89	17,617
961,06	16,178
961,23	13,683
961,40	11,255
961,57	16,262
961,74	11,551
961,90	14,219
962,07	16,743
962,24	20,813
962,41	11,725
962,58	18,761
962,75	13,451
962,92	19,065
963,08	18,182
963,25	12,252
963,42	14,734
963,59	19,835
963,76	20,225
963,93	20,366
964,10	23,769
964,26	23,684
964,43	25,840
964,60	23,057
964,77	30,120
964,94	27,841
965,10	27,976
965,27	26,371
965,44	24,416
965,61	18,182
965,78	27,157
965,95	31,737
966,11	28,793
966,28	25,651
966,45	41,121
966,62	35,385
966,79	34,286
966,95	28,060
967,12	31,546
967,29	27,778
967,46	51,136
967,63	31,698
967,79	51,802
967,96	44,156
968,13	27,500
968,30	49,194
968,47	46,735
968,63	48,198
968,80	41,284
968,97	51,442
969,14	39,535
969,31	37,222
969,47	33,529
969,64	40,404
969,81	64,249
969,98	50,000
970,14	52,147
970,31	57,233
970,48	35,833
970,65	56,805
970,81	60,274
970,98	76,642
971,15	90,816
971,32	64,062
971,48	57,823
971,65	62,308
971,82	97,059
971,99	101,149
972,15	76,056
972,32	105,405
972,49	77,622
972,66	108,182
972,82	87,209
972,99	94,309
973,16	149,425
973,33	101,786
973,49	73,684
973,66	93,548
973,83	60,194
974,00	160,465
974,16	105,882
974,33	114,912
974,50	93,684
974,67	170,526
974,83	60,714
975,00	104,211
975,17	125,275
975,33	87,640
975,50	122,388
975,67	146,939
975,84	165,672
976,00	113,483
976,17	165,574
976,34	92,000
976,50	106,742
976,67	139,806
976,84	2566,667
977,00	151,020
977,17	144,444
977,34	147,253
977,50	111,940
977,67	212,500
977,84	140,323
978,01	227,660
978,17	577,778
978,34	216,667
978,51	261,765
978,67	144,737
978,84	114,844
979,01	216,216
979,17	125,641
979,34	79,452
979,51	157,143
979,67	127,160
979,84	202,041
980,01	246,667
980,17	222,535
980,34	303,704
980,51	175,362
980,67	118,824
980,84	356,667
981,01	645,000
981,17	664,000
981,34	933,333
981,50	170,588
981,67	249,153
981,84	4700,000
982,00	233,333
982,17	133,333
982,34	125,556
982,50	700,000
982,67	143,750
982,84	2060,000
983,00	1000,000
983,17	194,030
983,33	186,207
983,50	1660,000
983,67	-296,552
983,83	309,091
984,00	-914,286
984,17	566,667
984,33	-5300,000
984,50	305,714
984,66	213,043
984,83	188,312
985,00	-433,333
985,16	379,310
985,33	629,412
985,49	600,000
985,66	311,765
985,83	430,435
985,99	217,949
986,16	-1900,000
986,32	664,286
986,49	6100,000
986,66	348,485
986,82	616,667
986,99	239,623
987,15	-573,684
987,32	-264,286
987,49	138,000
987,65	6900,000
987,82	362,500
987,98	193,878
988,15	306,667
988,31	1140,000
988,48	-1416,667
988,65	347,619
988,81	358,333
988,98	300,000
989,14	335,714
989,31	400,000
989,47	182,353
989,64	-907,692
989,80	625,000
989,97	327,027
990,14	-213,043
990,30	-450,000
990,47	251,020
990,63	261,111
990,80	198,000
990,96	-685,000
991,13	362,500
991,29	434,483
991,46	0,000
991,62	-738,462
991,79	666,667
991,95	11600,000
992,12	-1380,000
992,29	-531,250
992,45	149,412
992,62	267,442
992,78	268,182
992,95	-493,333
993,11	421,429
993,28	1100,000
993,44	-1000,000
993,61	-562,500
993,77	-3150,000
993,94	-4166,667
994,10	-86,667
994,27	878,947
994,43	341,860
994,60	0,000
994,76	3200,000
994,93	610,000
995,09	-829,412
995,26	1355,556
995,42	241,176
995,59	433,333
995,75	515,385
995,92	1900,000
996,08	377,778
996,25	-775,000
996,41	-2650,000
996,58	620,000
996,74	320,455
996,91	465,517
997,07	0,000
997,23	13900,000
997,40	-12000,000
997,56	-946,154
997,73	-1325,000
997,89	326,316
998,06	1192,308
998,22	-705,556
998,39	512,000
998,55	1244,444
998,72	-1350,000
998,88	-300,000
999,05	-110,256
999,21	238,095
999,37	-800,000
999,54	-1058,333
999,70	-280,000
999,87	693,750
1000,03	361,538
1000,20	279,167
1000,36	0,000
1000,52	491,667
1000,69	-628,571
1000,85	-980,000
1001,02	-412,500
1001,18	2925,000
1001,35	876,923
1001,51	523,529
1001,67	-769,231
1001,84	-2300,000
1002,00	181,081
1002,17	1136,364
1002,33	-2975,000
1002,50	519,048
1002,66	-507,692
1002,82	175,000
1002,99	821,429
1003,15	-1642,857
1003,32	-772,727
1003,48	282,143
1003,64	886,667
1003,81	366,667
1003,97	-3750,000
1004,14	554,545
1004,30	293,333
1004,46	-420,000
1004,63	714,286
1004,79	205,556
1004,95	953,333
1005,12	2850,000
1005,28	427,586
1005,45	400,000
1005,61	362,069
1005,77	-158,333
1005,94	-523,810
1006,10	-5600,000
1006,26	830,769
1006,43	-330,769
1006,59	-1009,091
1006,76	928,571
1006,92	1166,667
1007,08	12400,000
1007,25	-148,148
1007,41	365,517
1007,57	4800,000
1007,74	700,000
1007,90	-310,345
1008,06	258,696
1008,23	847,059
1008,39	-525,000
1008,55	-246,154
1008,72	-1085,714
1008,88	0,000
1009,04	353,659
1009,21	-231,579
1009,37	-725,000
1009,53	264,286
1009,70	3133,333
1009,86	-571,429
1010,02	4033,333
1010,19	836,364
1010,35	238,235
1010,51	-5700,000
1010,68	-1100,000
1010,84	-165,909
1011,00	587,500
1011,17	-372,727
1011,33	0,000
1011,49	-806,667
1011,66	771,429
1011,82	441,935
1011,98	878,571
1012,14	-563,636
1012,31	300,000
1012,47	0,000
1012,63	1600,000
1012,80	471,429
1012,96	-718,750
1013,12	-966,667
1013,29	522,222
1013,45	378,049
1013,61	4833,333
1013,77	-150,000
1013,94	1520,000
1014,10	191,525
1014,26	-1750,000
1014,43	-336,000
1014,59	640,000
1014,75	-388,889
1014,91	-706,667
1015,08	327,778
1015,24	11600,000
1015,40	535,294
1015,56	-10800,000
1015,73	335,714
1015,89	718,182
1016,05	2475,000
1016,21	-937,500
1016,38	626,316
1016,54	1115,385
1016,70	-2400,000
1016,86	334,375
1017,03	800,000
1017,19	-661,538
1017,35	-811,765
1017,51	-2180,000
1017,68	-710,000
1017,84	-1314,286
1018,00	400,000
1018,16	323,077
1018,33	-1300,000
1018,49	-833,333
1018,65	-216,216
1018,81	276,923
1018,97	-1842,857
1019,14	-2666,667
1019,30	-346,154
1019,46	0,000
1019,62	-511,765
1019,79	-4566,667
1019,95	1208,333
1020,11	7100,000
1020,27	-325,926
1020,43	-376,923
1020,60	1833,333
1020,76	650,000
1020,92	826,667
1021,08	775,000
1021,24	1070,000
1021,41	1622,222
1021,57	812,500
1021,73	915,385
1021,89	2240,000
1022,05	-257,143
1022,21	550,000
1022,38	-791,667
1022,54	-2300,000
1022,70	235,556
1022,86	-1075,000
1023,02	391,667
1023,19	2260,000
1023,35	4000,000
1023,51	412,500
1023,67	381,481
1023,83	-537,500
1023,99	315,789
1024,16	-361,538
1024,32	-966,667
1024,48	-780,000
1024,64	323,810
1024,80	439,130
1024,96	341,026
1025,12	414,286
1025,29	371,429
1025,45	315,789
1025,61	416,667
1025,77	-2920,000
1025,93	-7700,000
1026,09	-1300,000
1026,26	666,667
1026,42	675,000
1026,58	412,121
1026,74	1566,667
1026,90	312,000
1027,06	385,714
1027,22	1250,000
1027,38	290,385
1027,55	3400,000
1027,71	800,000
1027,87	-292,000
1028,03	1180,000
1028,19	340,625
1028,35	645,000
1028,51	1320,000
1028,67	841,667
1028,83	-2150,000
1029,00	-297,619
1029,16	1100,000
1029,32	-350,000
1029,48	193,333
1029,64	350,000
1029,80	5400,000
1029,96	533,333
1030,12	573,913
1030,28	-2533,333
1030,44	-684,615
1030,61	-400,000
1030,77	-191,429
1030,93	-966,667
1031,09	1383,333
1031,25	-10600,000
1031,41	-263,333
1031,57	423,077
1031,73	493,750
1031,89	-1354,545
1032,05	-303,704
1032,21	772,727
1032,37	-148,148
1032,53	-857,143
1032,69	-558,333
1032,86	414,815
1033,02	-215,000
1033,18	-612,500
1033,34	405,263
1033,50	-5100,000
1033,66	-212,195
1033,82	391,304
1033,98	-240,741
1034,14	146,154
1034,30	341,935
1034,46	-3066,667
1034,62	520,000
1034,78	-628,571
1034,94	321,053
1035,10	-707,692
1035,26	-137,209
1035,42	-210,345
1035,58	-355,556
1035,74	1058,333
1035,90	-753,846
1036,06	-1483,333
1036,22	1433,333
1036,38	-605,882
1036,54	-387,500
1036,70	-203,030
1036,86	9400,000
1037,02	611,111
1037,18	705,263
1037,34	125,714
1037,50	-163,415
1037,66	-394,118
1037,82	2880,000
1037,98	-355,556
1038,14	-360,000
1038,30	-1600,000
1038,46	-471,429
1038,62	417,391
1038,78	-3900,000
1038,94	-615,789
1039,10	318,182
1039,26	448,148
1039,42	-991,667
1039,58	1500,000
1039,74	-405,263
1039,90	421,875
1040,06	-357,692
>>>>>End Processed Spectral Data<<<<<
