SpectraSuite Data File
++++++++++++++++++++++++++++++++++++
Date: Wed Feb 01 16:00:10 EET 2017
User: optolab
Dark Spectrum Present: Yes
Reference Spectrum Present: Yes
Number of Sampled Component Spectra: 1
Spectrometers: USB4C02475
Integration Time (usec): 100000 (USB4C02475)
Spectra Averaged: 1 (USB4C02475)
Boxcar Smoothing: 0 (USB4C02475)
Correct for Electrical Dark: No (USB4C02475)
Strobe/Lamp Enabled: No (USB4C02475)
Correct for Detector Non-linearity: No (USB4C02475)
Correct for Stray Light: No (USB4C02475)
Number of Pixels in Processed Spectrum: 3648
>>>>>Begin Processed Spectral Data<<<<<
344,91	2700,000
345,13	2700,000
345,35	2700,000
345,57	0,000
345,79	415,789
346,00	-1911,111
346,22	-2314,286
346,44	341,176
346,66	-554,167
346,87	-11000,000
347,09	415,152
347,31	-427,273
347,53	-323,077
347,74	253,846
347,96	330,303
348,18	721,053
348,40	345,161
348,61	941,176
348,83	383,333
349,05	313,725
349,27	-3450,000
349,48	465,385
349,70	-296,552
349,92	467,742
350,14	230,189
350,35	258,000
350,57	2350,000
350,79	516,000
351,01	-876,190
351,22	327,778
351,44	553,846
351,66	-296,000
351,87	-490,476
352,09	242,308
352,31	234,426
352,53	189,063
352,74	258,333
352,96	201,299
353,18	736,842
353,40	384,000
353,61	188,889
353,83	352,941
354,05	1081,818
354,26	1650,000
354,48	220,000
354,70	415,152
354,92	-231,034
355,13	164,646
355,35	372,727
355,57	620,833
355,78	204,819
356,00	-3400,000
356,22	407,692
356,44	6250,000
356,65	347,727
356,87	388,462
357,09	679,167
357,30	262,222
357,52	358,621
357,74	705,000
357,95	330,769
358,17	231,148
358,39	240,323
358,60	362,162
358,82	595,833
359,04	503,704
359,26	422,857
359,47	7500,000
359,69	270,000
359,91	518,182
360,12	547,619
360,34	537,500
360,56	-57,407
360,77	1450,000
360,99	690,476
361,21	278,000
361,42	4500,000
361,64	179,592
361,86	281,538
362,07	-545,161
362,29	212,000
362,51	-688,235
362,72	568,000
362,94	347,059
363,16	288,372
363,37	-585,714
363,59	607,692
363,81	359,091
364,02	566,667
364,24	579,167
364,46	2133,333
364,67	1045,455
364,89	1700,000
365,11	168,571
365,32	582,759
365,54	358,333
365,76	306,122
365,97	361,765
366,19	167,241
366,41	681,818
366,62	377,778
366,84	290,698
367,05	304,082
367,27	1616,667
367,49	-638,462
367,70	711,765
367,92	263,934
368,14	250,000
368,35	-8700,000
368,57	524,000
368,79	500,000
369,00	317,391
369,22	-1362,500
369,43	218,824
369,65	272,581
369,87	351,351
370,08	167,470
370,30	285,714
370,51	222,951
370,73	222,222
370,95	204,839
371,16	245,238
371,38	300,000
371,60	1200,000
371,81	200,000
372,03	720,000
372,24	443,333
372,46	256,604
372,68	165,714
372,89	333,333
373,11	307,692
373,32	438,636
373,54	-638,462
373,76	923,077
373,97	886,667
374,19	622,727
374,40	265,625
374,62	-3366,667
374,84	4700,000
375,05	357,143
375,27	262,000
375,48	-8900,000
375,70	181,333
375,92	273,214
376,13	350,000
376,35	183,562
376,56	1131,250
376,78	225,000
376,99	510,714
377,21	245,833
377,43	186,364
377,64	172,464
377,86	362,069
378,07	317,949
378,29	-787,500
378,51	470,968
378,72	268,750
378,94	-855,556
379,15	306,061
379,37	929,412
379,58	240,000
379,80	793,333
380,01	650,000
380,23	254,902
380,45	2340,000
380,66	2366,667
380,88	334,091
381,09	265,714
381,31	163,333
381,52	264,706
381,74	1144,444
381,95	581,818
382,17	511,538
382,39	385,714
382,60	118,367
382,82	305,128
383,03	282,692
383,25	380,645
383,46	234,091
383,68	511,111
383,89	645,000
384,11	364,516
384,32	-3333,333
384,54	400,000
384,76	-3733,333
384,97	269,697
385,19	344,828
385,40	272,549
385,62	203,509
385,83	278,571
386,05	270,588
386,26	298,000
386,48	183,908
386,69	310,417
386,91	430,000
387,12	293,220
387,34	193,103
387,55	237,097
387,77	459,375
387,98	542,308
388,20	194,565
388,41	323,529
388,63	9100,000
388,84	204,918
389,06	311,905
389,27	652,632
389,49	433,333
389,70	171,429
389,92	293,333
390,13	212,245
390,35	286,275
390,56	292,593
390,78	396,296
390,99	410,000
391,21	605,263
391,42	346,667
391,64	295,122
391,85	146,552
392,07	206,818
392,28	148,000
392,50	345,455
392,71	-1062,500
392,93	261,538
393,14	369,444
393,36	185,714
393,57	132,331
393,79	622,222
394,00	242,553
394,22	183,562
394,43	156,627
394,65	253,488
394,86	1375,000
395,08	447,619
395,29	192,453
395,50	315,385
395,72	661,111
395,93	809,524
396,15	215,493
396,36	198,529
396,58	256,667
396,79	240,000
397,01	260,000
397,22	255,556
397,44	195,455
397,65	163,158
397,87	233,333
398,08	134,694
398,29	393,750
398,51	246,429
398,72	270,732
398,94	180,000
399,15	348,571
399,37	201,754
399,58	167,033
399,80	418,182
400,01	170,370
400,22	271,429
400,44	196,296
400,65	535,714
400,87	208,824
401,08	150,000
401,30	165,217
401,51	250,877
401,72	280,769
401,94	156,962
402,15	565,000
402,37	152,101
402,58	494,444
402,80	105,714
403,01	192,958
403,22	790,909
403,44	198,551
403,65	183,929
403,87	207,143
404,08	397,436
404,30	143,529
404,51	-2433,333
404,72	152,857
404,94	137,255
405,15	136,000
405,37	120,253
405,58	117,647
405,79	150,000
406,01	234,146
406,22	165,517
406,44	189,362
406,65	208,772
406,86	185,417
407,08	120,253
407,29	124,272
407,51	174,390
407,72	123,148
407,93	94,565
408,15	104,274
408,36	197,674
408,58	118,557
408,79	90,833
409,00	145,833
409,22	180,952
409,43	154,430
409,64	86,335
409,86	84,906
410,07	119,231
410,29	76,119
410,50	110,638
410,71	108,929
410,93	84,076
411,14	115,504
411,35	78,571
411,57	98,684
411,78	120,313
412,00	87,261
412,21	78,065
412,42	59,788
412,64	66,953
412,85	61,340
413,06	65,244
413,28	40,541
413,49	58,294
413,70	73,551
413,92	47,431
414,13	41,079
414,34	59,004
414,56	38,811
414,77	61,181
414,98	51,678
415,20	40,138
415,41	40,227
415,63	43,532
415,84	45,000
416,05	32,692
416,27	42,636
416,48	28,090
416,69	37,168
416,91	29,730
417,12	27,807
417,33	33,053
417,55	19,920
417,76	31,828
417,97	29,253
418,19	25,050
418,40	25,745
418,61	27,407
418,83	15,091
419,04	24,921
419,25	19,626
419,46	20,602
419,68	28,095
419,89	23,547
420,10	19,184
420,32	21,918
420,53	19,011
420,74	20,712
420,96	20,625
421,17	13,510
421,38	14,037
421,60	13,687
421,81	12,073
422,02	9,300
422,23	12,770
422,45	9,108
422,66	9,631
422,87	9,677
423,09	9,373
423,30	4,946
423,51	7,008
423,73	8,777
423,94	10,364
424,15	6,259
424,36	7,736
424,58	8,312
424,79	9,057
425,00	6,316
425,22	7,229
425,43	4,287
425,64	6,559
425,85	5,658
426,07	5,547
426,28	5,044
426,49	5,871
426,71	5,222
426,92	4,381
427,13	3,560
427,34	3,596
427,56	4,235
427,77	3,172
427,98	4,440
428,19	3,859
428,41	4,492
428,62	4,619
428,83	4,102
429,04	4,621
429,26	5,356
429,47	4,468
429,68	2,196
429,89	2,399
430,11	3,009
430,32	3,332
430,53	3,123
430,74	2,321
430,96	3,049
431,17	2,846
431,38	3,279
431,59	2,312
431,81	3,352
432,02	2,065
432,23	2,765
432,44	2,552
432,66	3,359
432,87	2,696
433,08	2,909
433,29	2,799
433,51	0,825
433,72	1,869
433,93	1,204
434,14	2,189
434,35	1,503
434,57	1,481
434,78	1,296
434,99	2,170
435,20	1,385
435,42	1,367
435,63	1,460
435,84	1,781
436,05	2,095
436,26	1,273
436,48	1,863
436,69	0,991
436,90	1,470
437,11	1,285
437,32	1,351
437,54	1,619
437,75	1,515
437,96	1,685
438,17	0,818
438,38	1,823
438,60	1,377
438,81	1,269
439,02	1,379
439,23	1,005
439,44	1,549
439,66	1,189
439,87	1,296
440,08	0,992
440,29	0,974
440,50	1,029
440,72	1,066
440,93	1,277
441,14	1,110
441,35	1,151
441,56	0,908
441,77	0,995
441,99	1,204
442,20	0,890
442,41	0,840
442,62	1,119
442,83	1,433
443,04	1,682
443,26	1,723
443,47	2,291
443,68	2,011
443,89	2,285
444,10	2,704
444,31	3,026
444,53	3,410
444,74	3,788
444,95	4,123
445,16	4,574
445,37	5,281
445,58	5,379
445,80	5,593
446,01	6,527
446,22	6,822
446,43	7,923
446,64	8,448
446,85	9,585
447,06	10,187
447,28	10,786
447,49	12,222
447,70	13,743
447,91	14,443
448,12	16,062
448,33	17,617
448,54	19,408
448,76	21,441
448,97	22,884
449,18	23,994
449,39	25,291
449,60	26,435
449,81	26,390
450,02	27,617
450,23	27,234
450,45	27,340
450,66	27,097
450,87	26,835
451,08	25,778
451,29	25,678
451,50	25,063
451,71	24,511
451,92	23,637
452,13	22,696
452,35	22,318
452,56	22,250
452,77	21,867
452,98	21,021
453,19	20,603
453,40	20,049
453,61	19,612
453,82	18,789
454,03	19,211
454,25	19,242
454,46	18,215
454,67	18,117
454,88	17,980
455,09	18,511
455,30	18,715
455,51	19,098
455,72	20,048
455,93	21,095
456,14	22,538
456,35	23,778
456,56	24,460
456,78	26,611
456,99	27,786
457,20	29,076
457,41	31,103
457,62	32,736
457,83	34,002
458,04	35,190
458,25	36,803
458,46	37,271
458,67	38,644
458,88	38,898
459,09	38,909
459,30	38,619
459,51	38,925
459,73	37,627
459,94	37,492
460,15	36,251
460,36	35,887
460,57	35,353
460,78	33,301
460,99	32,816
461,20	31,891
461,41	31,161
461,62	30,058
461,83	29,773
462,04	29,769
462,25	30,269
462,46	29,529
462,67	30,689
462,88	31,881
463,09	33,002
463,30	33,726
463,51	35,697
463,72	36,715
463,93	38,210
464,15	38,925
464,36	40,421
464,57	42,238
464,78	43,217
464,99	44,131
465,20	45,673
465,41	45,964
465,62	45,852
465,83	46,307
466,04	46,081
466,25	44,356
466,46	44,468
466,67	43,799
466,88	43,115
467,09	43,279
467,30	43,837
467,51	44,160
467,72	44,934
467,93	44,858
468,14	45,049
468,35	45,710
468,56	46,346
468,77	46,529
468,98	46,570
469,19	46,442
469,40	45,521
469,61	45,220
469,82	44,070
470,03	43,541
470,24	43,590
470,45	41,745
470,66	40,580
470,87	40,657
471,08	40,086
471,29	39,243
471,50	39,112
471,71	38,182
471,92	37,983
472,13	37,927
472,34	36,830
472,55	37,075
472,76	37,227
472,97	36,594
473,18	36,317
473,39	35,560
473,60	36,008
473,81	36,671
474,01	36,347
474,22	35,919
474,43	36,251
474,64	35,965
474,85	35,196
475,06	34,936
475,27	35,088
475,48	34,353
475,69	33,587
475,90	33,118
476,11	32,925
476,32	33,088
476,53	32,791
476,74	32,969
476,95	33,321
477,16	33,123
477,37	33,219
477,58	34,213
477,79	35,076
478,00	35,290
478,21	35,608
478,41	37,204
478,62	37,175
478,83	38,471
479,04	38,961
479,25	39,119
479,46	39,015
479,67	40,046
479,88	41,641
480,09	41,506
480,30	41,790
480,51	42,650
480,72	41,768
480,93	40,715
481,14	41,877
481,34	42,131
481,55	42,085
481,76	41,980
481,97	42,576
482,18	42,838
482,39	42,475
482,60	42,187
482,81	42,745
483,02	42,286
483,23	42,236
483,44	41,755
483,65	41,067
483,85	40,096
484,06	38,835
484,27	37,556
484,48	35,696
484,69	33,747
484,90	31,910
485,11	30,271
485,32	28,383
485,53	26,317
485,73	25,173
485,94	23,071
486,15	21,494
486,36	19,562
486,57	18,447
486,78	16,756
486,99	15,278
487,20	13,779
487,41	12,975
487,61	11,655
487,82	10,766
488,03	9,855
488,24	9,240
488,45	8,755
488,66	7,941
488,87	7,599
489,08	6,963
489,28	6,294
489,49	6,083
489,70	5,035
489,91	4,891
490,12	4,278
490,33	4,131
490,54	3,608
490,74	3,146
490,95	2,861
491,16	2,677
491,37	2,277
491,58	1,686
491,79	1,317
492,00	1,298
492,20	1,073
492,41	0,804
492,62	0,600
492,83	0,684
493,04	0,677
493,25	0,595
493,45	0,627
493,66	0,680
493,87	0,525
494,08	0,462
494,29	0,480
494,50	0,564
494,70	0,687
494,91	0,577
495,12	0,667
495,33	0,388
495,54	0,646
495,75	0,740
495,95	0,635
496,16	0,601
496,37	0,530
496,58	0,444
496,79	0,577
496,99	0,450
497,20	0,450
497,41	0,629
497,62	0,660
497,83	0,604
498,04	0,621
498,24	0,576
498,45	0,697
498,66	0,684
498,87	0,507
499,08	0,499
499,28	0,669
499,49	0,492
499,70	0,512
499,91	0,482
500,12	0,507
500,32	0,466
500,53	0,536
500,74	0,544
500,95	0,542
501,15	0,583
501,36	0,484
501,57	0,447
501,78	0,651
501,99	0,504
502,19	0,415
502,40	0,523
502,61	0,543
502,82	0,600
503,02	0,626
503,23	0,612
503,44	0,607
503,65	0,665
503,86	0,506
504,06	0,517
504,27	0,665
504,48	0,747
504,69	0,504
504,89	0,538
505,10	0,697
505,31	0,609
505,52	0,706
505,72	0,526
505,93	0,556
506,14	0,517
506,35	0,497
506,55	0,673
506,76	0,668
506,97	0,574
507,18	0,650
507,38	0,810
507,59	0,659
507,80	0,706
508,01	0,803
508,21	0,910
508,42	1,127
508,63	1,039
508,84	1,004
509,04	1,095
509,25	1,266
509,46	1,551
509,67	1,626
509,87	2,187
510,08	2,147
510,29	2,545
510,49	2,666
510,70	3,119
510,91	3,346
511,12	3,578
511,32	4,081
511,53	4,627
511,74	4,930
511,94	5,728
512,15	6,405
512,36	7,201
512,57	8,010
512,77	9,227
512,98	9,824
513,19	10,952
513,39	12,013
513,60	12,904
513,81	14,320
514,01	15,076
514,22	16,016
514,43	16,962
514,64	17,336
514,84	18,199
515,05	18,717
515,26	19,466
515,46	20,003
515,67	20,102
515,88	21,096
516,08	21,529
516,29	21,799
516,50	21,700
516,70	21,849
516,91	22,715
517,12	22,628
517,32	23,221
517,53	23,966
517,74	24,925
517,95	24,976
518,15	25,592
518,36	27,074
518,57	28,113
518,77	29,409
518,98	29,752
519,19	31,050
519,39	31,987
519,60	32,745
519,80	34,433
520,01	34,446
520,22	36,272
520,42	36,980
520,63	37,353
520,84	37,809
521,04	38,516
521,25	38,883
521,46	39,161
521,66	39,671
521,87	39,891
522,08	40,624
522,28	40,159
522,49	40,107
522,70	41,231
522,90	41,089
523,11	42,372
523,31	43,291
523,52	42,618
523,73	43,575
523,93	44,111
524,14	45,074
524,35	45,452
524,55	45,097
524,76	46,489
524,97	47,101
525,17	48,521
525,38	48,704
525,58	50,072
525,79	50,485
526,00	52,014
526,20	52,827
526,41	53,358
526,61	54,742
526,82	55,049
527,03	56,586
527,23	57,197
527,44	58,225
527,64	59,211
527,85	60,074
528,06	60,748
528,26	61,147
528,47	62,231
528,68	63,115
528,88	63,126
529,09	63,930
529,29	65,031
529,50	65,741
529,70	65,211
529,91	64,210
530,12	63,883
530,32	62,647
530,53	62,013
530,73	60,157
530,94	59,859
531,15	58,370
531,35	56,092
531,56	54,907
531,76	53,118
531,97	51,269
532,17	50,547
532,38	48,160
532,59	48,458
532,79	46,615
533,00	45,064
533,20	45,046
533,41	44,273
533,61	43,550
533,82	43,461
534,03	42,361
534,23	42,567
534,44	42,853
534,64	41,563
534,85	40,937
535,05	41,247
535,26	41,317
535,46	40,354
535,67	40,337
535,88	39,889
536,08	38,731
536,29	38,537
536,49	38,110
536,70	37,443
536,90	36,985
537,11	36,462
537,31	35,823
537,52	35,460
537,72	35,039
537,93	34,849
538,13	34,295
538,34	34,219
538,55	34,323
538,75	33,674
538,96	33,483
539,16	33,782
539,37	33,803
539,57	34,133
539,78	34,130
539,98	33,385
540,19	34,082
540,39	33,753
540,60	33,591
540,80	33,216
541,01	32,802
541,21	32,070
541,42	31,864
541,62	31,475
541,83	30,974
542,03	30,700
542,24	29,604
542,44	29,797
542,65	29,340
542,85	29,314
543,06	29,168
543,26	29,350
543,47	29,973
543,67	30,285
543,88	30,518
544,08	31,268
544,29	31,812
544,49	32,141
544,70	32,354
544,90	32,113
545,11	32,348
545,31	32,020
545,52	32,025
545,72	31,606
545,93	30,717
546,13	30,857
546,34	30,149
546,54	29,885
546,75	29,695
546,95	29,255
547,15	28,420
547,36	28,433
547,56	27,466
547,77	26,862
547,97	26,009
548,18	25,455
548,38	24,246
548,59	23,635
548,79	22,608
549,00	22,175
549,20	20,730
549,41	19,914
549,61	19,337
549,81	18,582
550,02	17,871
550,22	16,942
550,43	16,353
550,63	15,871
550,84	14,930
551,04	15,269
551,25	14,665
551,45	14,284
551,65	14,265
551,86	14,040
552,06	13,340
552,27	12,586
552,47	12,072
552,68	11,358
552,88	10,133
553,08	10,037
553,29	9,256
553,49	8,220
553,70	7,864
553,90	7,026
554,11	6,808
554,31	6,060
554,51	5,576
554,72	4,931
554,92	4,221
555,13	3,866
555,33	3,573
555,53	3,092
555,74	2,828
555,94	2,404
556,15	2,078
556,35	1,912
556,56	1,740
556,76	1,641
556,96	1,460
557,17	1,226
557,37	1,180
557,58	0,964
557,78	0,745
557,98	0,666
558,19	0,725
558,39	0,636
558,59	0,608
558,80	0,611
559,00	0,577
559,21	0,476
559,41	0,450
559,61	0,481
559,82	0,545
560,02	0,373
560,23	0,614
560,43	0,438
560,63	0,629
560,84	0,422
561,04	0,506
561,24	0,346
561,45	0,482
561,65	0,360
561,85	0,664
562,06	0,493
562,26	0,320
562,47	0,386
562,67	0,603
562,87	0,481
563,08	0,584
563,28	0,387
563,48	0,547
563,69	0,493
563,89	0,382
564,09	0,605
564,30	0,359
564,50	0,379
564,70	0,642
564,91	0,559
565,11	0,364
565,31	0,509
565,52	0,407
565,72	0,635
565,92	0,735
566,13	0,534
566,33	0,438
566,53	0,559
566,74	0,522
566,94	0,425
567,14	0,399
567,35	0,421
567,55	0,357
567,75	0,529
567,96	0,430
568,16	0,539
568,36	0,385
568,57	0,519
568,77	0,413
568,97	0,381
569,18	0,568
569,38	0,606
569,58	0,503
569,79	0,369
569,99	0,566
570,19	0,329
570,39	0,449
570,60	0,330
570,80	0,322
571,00	0,544
571,21	0,397
571,41	0,388
571,61	0,442
571,82	0,629
572,02	0,441
572,22	0,473
572,42	0,475
572,63	0,619
572,83	0,558
573,03	0,429
573,24	0,582
573,44	0,465
573,64	0,590
573,84	0,552
574,05	0,472
574,25	0,675
574,45	0,445
574,66	0,472
574,86	0,500
575,06	0,400
575,26	0,477
575,47	0,595
575,67	0,592
575,87	0,379
576,07	0,617
576,28	0,878
576,48	0,949
576,68	0,764
576,88	0,683
577,09	1,043
577,29	0,947
577,49	1,283
577,69	1,358
577,90	1,464
578,10	1,495
578,30	1,746
578,50	2,070
578,71	2,477
578,91	2,224
579,11	2,723
579,31	2,880
579,52	3,428
579,72	3,481
579,92	3,637
580,12	4,045
580,33	4,521
580,53	4,704
580,73	5,024
580,93	5,778
581,13	6,039
581,34	6,579
581,54	7,269
581,74	8,021
581,94	8,746
582,15	9,098
582,35	10,099
582,55	11,483
582,75	12,601
582,95	13,861
583,16	14,660
583,36	15,947
583,56	17,220
583,76	19,061
583,96	20,576
584,17	21,354
584,37	22,619
584,57	23,120
584,77	23,886
584,97	24,789
585,18	25,369
585,38	25,214
585,58	25,200
585,78	25,503
585,98	25,133
586,19	25,049
586,39	24,408
586,59	24,104
586,79	23,792
586,99	23,179
587,20	22,656
587,40	21,851
587,60	21,473
587,80	21,337
588,00	20,496
588,20	20,009
588,41	19,920
588,61	19,720
588,81	19,640
589,01	19,087
589,21	18,812
589,41	19,901
589,62	19,968
589,82	20,193
590,02	21,023
590,22	22,103
590,42	23,242
590,62	24,132
590,83	24,736
591,03	26,459
591,23	26,945
591,43	28,251
591,63	29,234
591,83	30,483
592,03	31,415
592,24	32,769
592,44	33,571
592,64	34,267
592,84	34,991
593,04	36,172
593,24	36,452
593,44	36,783
593,65	37,799
593,85	37,959
594,05	38,394
594,25	38,168
594,45	38,233
594,65	37,714
594,85	38,299
595,06	38,160
595,26	37,632
595,46	37,994
595,66	37,882
595,86	37,687
596,06	36,722
596,26	37,172
596,46	37,799
596,66	37,144
596,87	37,585
597,07	37,403
597,27	37,616
597,47	37,978
597,67	37,922
597,87	37,782
598,07	37,747
598,27	38,476
598,47	38,710
598,67	39,055
598,88	39,646
599,08	40,100
599,28	39,695
599,48	39,601
599,68	40,379
599,88	40,477
600,08	40,512
600,28	40,371
600,48	41,381
600,68	40,144
600,88	40,187
601,09	39,894
601,29	39,782
601,49	39,830
601,69	39,542
601,89	38,806
602,09	38,925
602,29	37,884
602,49	38,134
602,69	38,113
602,89	38,257
603,09	37,908
603,29	37,669
603,49	37,602
603,69	38,125
603,90	37,769
604,10	38,015
604,30	38,552
604,50	38,962
604,70	39,254
604,90	39,642
605,10	39,965
605,30	39,767
605,50	40,117
605,70	40,662
605,90	40,000
606,10	40,755
606,30	41,151
606,50	40,774
606,70	40,699
606,90	40,588
607,10	40,351
607,30	40,710
607,50	40,166
607,70	39,714
607,90	39,849
608,10	39,620
608,30	39,410
608,50	38,748
608,70	37,943
608,90	37,469
609,11	37,353
609,31	35,972
609,51	34,816
609,71	33,990
609,91	32,659
610,11	31,394
610,31	30,315
610,51	29,150
610,71	28,291
610,91	26,989
611,11	26,061
611,31	25,017
611,51	24,416
611,71	23,518
611,91	22,904
612,11	22,493
612,31	22,016
612,51	21,929
612,71	21,648
612,91	21,728
613,11	21,784
613,31	21,837
613,51	21,595
613,71	21,305
613,91	21,373
614,11	21,181
614,31	20,496
614,50	19,747
614,70	18,527
614,90	18,336
615,10	17,002
615,30	16,125
615,50	15,009
615,70	13,558
615,90	13,112
616,10	11,572
616,30	10,555
616,50	9,409
616,70	8,434
616,90	7,836
617,10	6,716
617,30	6,202
617,50	5,461
617,70	4,807
617,90	4,515
618,10	4,278
618,30	4,095
618,50	3,921
618,70	4,182
618,90	4,253
619,10	4,508
619,30	5,104
619,49	5,519
619,69	6,218
619,89	6,614
620,09	7,782
620,29	9,170
620,49	10,074
620,69	11,380
620,89	12,590
621,09	13,685
621,29	14,158
621,49	15,087
621,69	15,378
621,89	16,252
622,09	15,852
622,29	16,104
622,48	15,866
622,68	14,893
622,88	14,399
623,08	13,992
623,28	13,236
623,48	12,082
623,68	11,725
623,88	10,221
624,08	9,750
624,28	8,707
624,48	7,908
624,67	6,954
624,87	6,099
625,07	5,594
625,27	4,948
625,47	4,807
625,67	4,198
625,87	3,725
626,07	3,399
626,27	2,880
626,47	2,618
626,66	2,385
626,86	2,045
627,06	1,801
627,26	1,760
627,46	1,432
627,66	1,433
627,86	1,146
628,06	1,036
628,25	0,948
628,45	0,864
628,65	0,693
628,85	0,782
629,05	0,719
629,25	0,625
629,45	0,407
629,65	0,383
629,84	0,437
630,04	0,432
630,24	0,469
630,44	0,460
630,64	0,474
630,84	0,428
631,04	0,340
631,23	0,306
631,43	0,536
631,63	0,402
631,83	0,280
632,03	0,288
632,23	0,434
632,42	0,377
632,62	0,557
632,82	0,362
633,02	0,430
633,22	0,432
633,42	0,301
633,62	0,503
633,81	0,471
634,01	0,260
634,21	0,500
634,41	0,511
634,61	0,586
634,80	0,350
635,00	0,147
635,20	0,469
635,40	0,557
635,60	0,407
635,80	0,371
635,99	0,455
636,19	0,385
636,39	0,611
636,59	0,678
636,79	0,625
636,98	0,430
637,18	0,556
637,38	0,678
637,58	0,658
637,78	0,632
637,97	0,721
638,17	0,839
638,37	0,488
638,57	0,589
638,77	0,650
638,96	0,488
639,16	0,588
639,36	0,558
639,56	0,500
639,76	0,682
639,95	0,798
640,15	0,456
640,35	0,746
640,55	0,644
640,75	0,613
640,94	0,347
641,14	0,640
641,34	0,879
641,54	0,671
641,73	0,451
641,93	0,512
642,13	0,552
642,33	0,719
642,53	0,644
642,72	1,014
642,92	0,739
643,12	0,494
643,32	0,942
643,51	0,696
643,71	0,578
643,91	0,507
644,11	0,900
644,30	0,600
644,50	0,355
644,70	0,302
644,90	0,643
645,09	0,789
645,29	0,324
645,49	0,875
645,69	0,796
645,88	0,712
646,08	0,927
646,28	1,002
646,48	0,731
646,67	0,286
646,87	0,769
647,07	0,873
647,26	0,688
647,46	0,817
647,66	0,966
647,86	0,705
648,05	0,587
648,25	0,536
648,45	0,802
648,65	1,123
648,84	0,574
649,04	0,771
649,24	1,114
649,43	0,585
649,63	0,842
649,83	0,993
650,03	0,863
650,22	0,746
650,42	0,947
650,62	0,384
650,81	0,913
651,01	0,641
651,21	0,648
651,40	0,533
651,60	0,839
651,80	0,657
652,00	0,808
652,19	0,693
652,39	0,786
652,59	0,568
652,78	1,024
652,98	0,864
653,18	0,439
653,37	0,637
653,57	0,923
653,77	0,669
653,96	0,513
654,16	0,921
654,36	0,693
654,55	1,143
654,75	0,911
654,95	0,936
655,14	0,559
655,34	1,167
655,54	0,646
655,73	0,479
655,93	1,108
656,13	0,822
656,32	0,491
656,52	0,638
656,72	1,011
656,91	0,959
657,11	1,080
657,31	0,687
657,50	0,767
657,70	0,824
657,90	1,145
658,09	0,765
658,29	1,037
658,49	0,689
658,68	0,932
658,88	1,356
659,07	0,534
659,27	0,562
659,47	0,860
659,66	0,279
659,86	0,715
660,06	0,977
660,25	0,459
660,45	0,901
660,64	1,108
660,84	0,879
661,04	0,944
661,23	1,077
661,43	0,742
661,63	0,889
661,82	0,138
662,02	0,821
662,21	0,485
662,41	0,746
662,61	0,606
662,80	0,617
663,00	0,751
663,19	0,948
663,39	0,905
663,59	1,228
663,78	0,735
663,98	0,776
664,17	0,526
664,37	0,674
664,57	0,660
664,76	1,008
664,96	0,753
665,15	0,550
665,35	0,869
665,55	0,368
665,74	0,718
665,94	0,509
666,13	1,047
666,33	0,577
666,53	0,980
666,72	0,656
666,92	0,807
667,11	0,590
667,31	0,591
667,50	0,699
667,70	0,700
667,90	0,550
668,09	0,481
668,29	0,737
668,48	0,635
668,68	0,595
668,87	0,375
669,07	0,862
669,26	0,976
669,46	0,627
669,66	0,669
669,85	0,744
670,05	0,695
670,24	0,767
670,44	0,764
670,63	0,562
670,83	0,955
671,02	0,894
671,22	1,014
671,42	0,463
671,61	0,636
671,81	0,632
672,00	0,708
672,20	0,791
672,39	0,622
672,59	0,374
672,78	0,781
672,98	0,247
673,17	0,452
673,37	0,568
673,56	0,383
673,76	0,702
673,95	0,568
674,15	0,498
674,34	0,657
674,54	0,611
674,73	0,604
674,93	0,536
675,13	0,424
675,32	0,595
675,52	0,804
675,71	0,537
675,91	0,684
676,10	0,291
676,30	0,405
676,49	0,557
676,69	0,808
676,88	0,681
677,08	0,726
677,27	0,649
677,47	0,661
677,66	0,637
677,86	0,833
678,05	0,896
678,24	0,154
678,44	0,633
678,63	0,406
678,83	0,630
679,02	0,689
679,22	0,249
679,41	0,503
679,61	0,295
679,80	0,604
680,00	0,625
680,19	0,482
680,39	0,437
680,58	0,508
680,78	0,352
680,97	0,294
681,17	0,587
681,36	0,368
681,56	0,609
681,75	0,176
681,94	0,566
682,14	0,554
682,33	0,530
682,53	0,548
682,72	0,655
682,92	0,794
683,11	0,505
683,31	0,189
683,50	0,470
683,69	0,351
683,89	0,395
684,08	0,411
684,28	0,402
684,47	0,272
684,67	0,421
684,86	0,302
685,06	0,390
685,25	0,255
685,44	0,400
685,64	0,277
685,83	0,443
686,03	0,291
686,22	0,254
686,42	0,401
686,61	0,466
686,80	0,371
687,00	0,453
687,19	0,654
687,39	0,401
687,58	0,205
687,77	0,450
687,97	0,408
688,16	0,153
688,36	0,220
688,55	0,397
688,74	0,366
688,94	0,303
689,13	0,307
689,33	0,401
689,52	0,430
689,71	0,468
689,91	0,290
690,10	0,474
690,30	0,298
690,49	0,292
690,68	0,320
690,88	0,434
691,07	0,238
691,27	0,230
691,46	0,206
691,65	0,387
691,85	0,507
692,04	0,279
692,23	0,240
692,43	0,302
692,62	0,428
692,82	0,413
693,01	0,243
693,20	0,453
693,40	0,257
693,59	0,451
693,78	0,389
693,98	0,410
694,17	0,334
694,36	0,540
694,56	0,474
694,75	0,199
694,94	0,411
695,14	0,486
695,33	0,362
695,53	0,414
695,72	0,499
695,91	0,402
696,11	0,159
696,30	0,215
696,49	0,295
696,69	0,528
696,88	0,326
697,07	0,161
697,27	0,344
697,46	0,287
697,65	0,261
697,85	0,153
698,04	0,665
698,23	0,458
698,43	0,598
698,62	0,407
698,81	0,316
699,01	0,914
699,20	0,473
699,39	0,622
699,58	1,085
699,78	0,629
699,97	0,320
700,16	0,781
700,36	0,630
700,55	1,162
700,74	0,850
700,94	0,715
701,13	0,960
701,32	1,286
701,52	1,033
701,71	0,483
701,90	1,164
702,09	1,070
702,29	1,476
702,48	1,480
702,67	1,160
702,87	0,498
703,06	1,589
703,25	1,128
703,44	1,114
703,64	1,663
703,83	1,226
704,02	1,558
704,22	0,626
704,41	1,018
704,60	2,306
704,79	0,369
704,99	1,534
705,18	2,078
705,37	1,666
705,56	2,556
705,76	1,876
705,95	1,693
706,14	1,770
706,33	2,284
706,53	2,660
706,72	1,578
706,91	1,900
707,11	2,185
707,30	2,668
707,49	2,544
707,68	1,737
707,88	2,200
708,07	1,833
708,26	3,246
708,45	2,446
708,64	2,613
708,84	2,218
709,03	2,362
709,22	2,377
709,41	1,598
709,61	3,883
709,80	2,863
709,99	3,383
710,18	2,230
710,38	3,219
710,57	1,544
710,76	3,783
710,95	1,669
711,14	3,634
711,34	3,441
711,53	3,551
711,72	2,960
711,91	1,865
712,11	5,182
712,30	4,475
712,49	3,507
712,68	3,633
712,87	6,607
713,07	6,742
713,26	3,906
713,45	4,453
713,64	3,341
713,83	3,040
714,03	6,282
714,22	3,575
714,41	4,737
714,60	5,745
714,79	4,916
714,99	5,118
715,18	3,079
715,37	5,367
715,56	5,839
715,75	3,452
715,94	4,697
716,14	5,050
716,33	4,526
716,52	4,860
716,71	6,816
716,90	5,609
717,10	6,652
717,29	5,600
717,48	6,733
717,67	5,247
717,86	5,253
718,05	2,518
718,24	7,370
718,44	6,606
718,63	5,791
718,82	7,431
719,01	7,049
719,20	4,924
719,39	4,008
719,59	3,781
719,78	4,871
719,97	5,649
720,16	7,265
720,35	7,163
720,54	6,065
720,73	4,718
720,93	7,168
721,12	1,919
721,31	8,693
721,50	8,680
721,69	6,662
721,88	7,843
722,07	4,740
722,27	5,203
722,46	7,910
722,65	5,315
722,84	7,064
723,03	4,538
723,22	9,252
723,41	8,172
723,60	9,273
723,79	8,208
723,99	8,162
724,18	10,027
724,37	7,484
724,56	13,202
724,75	10,071
724,94	8,893
725,13	13,754
725,32	9,411
725,51	8,787
725,71	6,250
725,90	7,324
726,09	11,321
726,28	12,395
726,47	8,887
726,66	10,326
726,85	5,533
727,04	9,450
727,23	10,040
727,42	12,683
727,61	3,810
727,81	13,347
728,00	10,558
728,19	6,522
728,38	6,803
728,57	9,434
728,76	9,186
728,95	12,612
729,14	6,908
729,33	14,050
729,52	12,036
729,71	10,448
729,90	12,859
730,09	8,645
730,28	9,700
730,48	8,933
730,67	11,608
730,86	8,955
731,05	9,930
731,24	9,670
731,43	8,302
731,62	15,288
731,81	10,165
732,00	9,911
732,19	6,769
732,38	8,115
732,57	8,038
732,76	15,833
732,95	7,200
733,14	6,112
733,33	8,654
733,52	11,501
733,71	12,899
733,90	19,152
734,09	15,106
734,28	12,552
734,47	7,105
734,66	13,297
734,85	10,213
735,04	13,215
735,23	14,021
735,42	11,816
735,61	17,867
735,81	14,207
736,00	20,633
736,19	15,385
736,38	11,704
736,57	18,384
736,76	6,512
736,95	13,182
737,14	16,565
737,33	21,509
737,52	18,401
737,71	9,455
737,90	19,213
738,09	16,258
738,28	15,152
738,47	8,660
738,66	16,875
738,85	11,168
739,04	21,392
739,22	14,358
739,41	17,742
739,60	13,545
739,79	12,842
739,98	12,886
740,17	17,347
740,36	21,250
740,55	18,695
740,74	12,522
740,93	17,073
741,12	18,382
741,31	19,118
741,50	16,384
741,69	8,704
741,88	5,000
742,07	17,329
742,26	9,551
742,45	16,601
742,64	25,540
742,83	7,021
743,02	19,820
743,21	22,535
743,40	13,820
743,59	21,311
743,78	28,166
743,97	23,308
744,16	14,191
744,34	18,110
744,53	13,320
744,72	24,324
744,91	14,316
745,10	28,541
745,29	16,076
745,48	15,656
745,67	23,218
745,86	18,545
746,05	15,982
746,24	22,876
746,43	24,586
746,62	9,908
746,81	15,068
747,00	19,415
747,18	25,934
747,37	22,175
747,56	20,674
747,75	22,757
747,94	27,790
748,13	24,201
748,32	22,009
748,51	26,862
748,70	19,185
748,89	19,807
749,08	18,571
749,26	24,821
749,45	33,882
749,64	19,603
749,83	18,321
750,02	11,326
750,21	30,792
750,40	22,656
750,59	29,245
750,78	22,781
750,96	20,950
751,15	19,399
751,34	28,534
751,53	23,892
751,72	18,598
751,91	20,548
752,10	26,543
752,29	30,226
752,47	18,820
752,66	22,817
752,85	24,149
753,04	35,331
753,23	13,907
753,42	30,699
753,61	15,686
753,80	34,959
753,98	30,877
754,17	28,221
754,36	29,661
754,55	8,150
754,74	38,728
754,93	24,784
755,12	23,200
755,30	16,343
755,49	24,771
755,68	25,360
755,87	18,018
756,06	28,771
756,25	36,508
756,43	11,379
756,62	31,454
756,81	24,092
757,00	34,493
757,19	29,110
757,38	33,754
757,56	28,065
757,75	36,275
757,94	29,968
758,13	21,753
758,32	34,091
758,51	37,132
758,69	14,400
758,88	34,234
759,07	24,731
759,26	39,070
759,45	29,694
759,63	47,955
759,82	28,283
760,01	18,060
760,20	28,794
760,39	44,403
760,57	40,083
760,76	24,775
760,95	37,963
761,14	43,265
761,33	37,812
761,51	27,240
761,70	37,241
761,89	43,443
762,08	45,581
762,27	35,531
762,45	46,693
762,64	35,897
762,83	44,248
763,02	48,372
763,21	21,552
763,39	51,020
763,58	35,472
763,77	44,402
763,96	63,052
764,14	35,000
764,33	36,630
764,52	56,223
764,71	40,359
764,89	24,020
765,08	35,776
765,27	39,033
765,46	48,913
765,65	31,441
765,83	33,333
766,02	35,319
766,21	57,459
766,40	40,476
766,58	36,992
766,77	50,249
766,96	48,636
767,15	61,353
767,33	33,333
767,52	62,195
767,71	52,609
767,90	29,213
768,08	40,856
768,27	35,000
768,46	51,562
768,64	59,067
768,83	42,188
769,02	58,000
769,21	41,485
769,39	49,419
769,58	60,694
769,77	49,808
769,96	47,120
770,14	47,619
770,33	50,000
770,52	31,746
770,70	42,667
770,89	72,483
771,08	46,186
771,27	53,093
771,45	67,544
771,64	61,979
771,83	63,551
772,01	56,627
772,20	67,337
772,39	26,667
772,57	58,140
772,76	44,444
772,95	51,064
773,14	71,505
773,32	47,097
773,51	76,617
773,70	79,375
773,88	86,339
774,07	50,785
774,26	29,787
774,44	29,268
774,63	69,036
774,82	64,634
775,00	38,667
775,19	49,600
775,38	68,208
775,56	62,500
775,75	71,084
775,94	59,494
776,12	43,094
776,31	58,824
776,50	44,318
776,68	60,000
776,87	82,955
777,06	62,069
777,24	78,889
777,43	48,077
777,62	73,529
777,80	57,432
777,99	52,000
778,18	72,277
778,36	87,200
778,55	88,430
778,74	78,472
778,92	52,071
779,11	80,833
779,29	65,409
779,48	34,014
779,67	50,388
779,85	89,431
780,04	83,784
780,23	78,417
780,41	53,906
780,60	52,105
780,79	58,192
780,97	51,974
781,16	70,909
781,34	70,103
781,53	76,068
781,72	76,642
781,90	57,813
782,09	69,677
782,28	87,591
782,46	68,889
782,65	65,714
782,83	103,371
783,02	65,000
783,21	72,667
783,39	86,957
783,58	73,373
783,76	69,832
783,95	50,303
784,14	65,563
784,32	79,195
784,51	94,828
784,69	68,644
784,88	114,414
785,06	68,908
785,25	77,070
785,44	72,662
785,62	74,286
785,81	94,366
785,99	75,540
786,18	78,378
786,37	85,926
786,55	72,477
786,74	59,211
786,92	101,562
787,11	72,500
787,29	45,522
787,48	48,000
787,67	84,337
787,85	92,241
788,04	67,822
788,22	86,066
788,41	65,882
788,59	144,954
788,78	67,273
788,96	91,509
789,15	129,474
789,34	82,727
789,52	97,345
789,71	77,519
789,89	176,596
790,08	85,616
790,26	22,857
790,45	93,939
790,63	66,667
790,82	80,000
791,00	70,139
791,19	89,247
791,38	74,306
791,56	98,246
791,75	133,028
791,93	77,011
792,12	82,840
792,30	100,800
792,49	75,630
792,67	93,284
792,86	73,643
793,04	116,822
793,23	50,833
793,41	136,709
793,60	114,141
793,78	104,386
793,97	112,821
794,15	70,000
794,34	117,582
794,52	94,805
794,71	102,469
794,89	125,556
795,08	75,728
795,26	80,556
795,45	150,746
795,63	90,909
795,82	92,523
796,00	97,248
796,19	92,500
796,37	82,482
796,56	116,129
796,74	85,841
796,93	96,629
797,11	160,759
797,30	57,500
797,48	112,414
797,67	55,000
797,85	112,245
798,04	115,625
798,22	119,048
798,41	117,647
798,59	105,263
798,77	135,385
798,96	80,645
799,14	100,000
799,33	97,710
799,51	70,769
799,70	77,181
799,88	113,636
800,07	82,895
800,25	66,897
800,44	88,889
800,62	148,235
800,80	133,333
800,99	111,111
801,17	86,207
801,36	76,552
801,54	139,583
801,73	57,576
801,91	79,508
802,10	114,286
802,28	99,065
802,46	86,420
802,65	117,241
802,83	158,427
803,02	86,316
803,20	93,750
803,39	34,483
803,57	92,771
803,75	54,730
803,94	88,235
804,12	96,667
804,31	56,637
804,49	103,846
804,67	77,600
804,86	42,857
805,04	94,595
805,23	75,172
805,41	114,754
805,59	70,492
805,78	111,364
805,96	90,385
806,15	100,000
806,33	120,168
806,51	69,912
806,70	128,333
806,88	94,309
807,07	95,238
807,25	66,667
807,43	91,391
807,62	74,797
807,80	127,957
807,99	87,302
808,17	99,291
808,35	98,246
808,54	94,624
808,72	88,000
808,90	76,316
809,09	112,500
809,27	88,288
809,46	116,071
809,64	99,020
809,82	96,552
810,01	71,212
810,19	78,000
810,37	77,692
810,56	141,463
810,74	61,589
810,92	107,576
811,11	141,176
811,29	75,177
811,48	106,061
811,66	112,403
811,84	109,174
812,03	89,091
812,21	125,641
812,39	94,068
812,58	103,922
812,76	80,374
812,94	85,333
813,13	51,587
813,31	81,667
813,49	132,609
813,68	100,870
813,86	111,224
814,04	91,262
814,23	126,263
814,41	83,824
814,59	54,802
814,78	88,971
814,96	90,991
815,14	126,667
815,33	83,333
815,51	76,296
815,69	72,840
815,87	86,957
816,06	98,125
816,24	87,417
816,42	36,538
816,61	89,831
816,79	163,855
816,97	66,667
817,16	40,645
817,34	91,034
817,52	83,448
817,70	90,476
817,89	72,727
818,07	75,862
818,25	100,000
818,44	54,070
818,62	80,172
818,80	64,336
818,98	90,476
819,17	45,385
819,35	94,706
819,53	76,238
819,72	59,884
819,90	70,659
820,08	74,675
820,26	96,491
820,45	69,880
820,63	84,375
820,81	55,034
820,99	89,474
821,18	92,593
821,36	80,476
821,54	73,256
821,73	75,135
821,91	64,362
822,09	81,765
822,27	63,959
822,46	68,750
822,64	71,523
822,82	57,561
823,00	36,937
823,19	53,788
823,37	105,714
823,55	43,529
823,73	92,000
823,91	56,354
824,10	72,067
824,28	67,407
824,46	48,256
824,64	73,529
824,83	58,537
825,01	50,000
825,19	80,571
825,37	60,938
825,56	60,625
825,74	81,429
825,92	73,596
826,10	80,124
826,28	73,826
826,47	24,390
826,65	97,973
826,83	75,269
827,01	65,909
827,19	78,481
827,38	70,466
827,56	56,731
827,74	76,829
827,92	67,317
828,10	53,261
828,29	73,810
828,47	58,333
828,65	51,892
828,83	62,121
829,01	77,333
829,20	53,165
829,38	51,867
829,56	55,061
829,74	87,121
829,92	51,031
830,10	76,126
830,29	59,459
830,47	67,708
830,65	37,500
830,83	36,000
831,01	54,583
831,20	48,020
831,38	38,537
831,56	45,749
831,74	66,857
831,92	56,818
832,10	56,818
832,29	62,559
832,47	58,407
832,65	67,234
832,83	55,349
833,01	32,806
833,19	49,774
833,37	59,259
833,56	50,704
833,74	36,437
833,92	49,558
834,10	58,883
834,28	37,692
834,46	47,751
834,64	39,062
834,83	39,590
835,01	50,973
835,19	29,858
835,37	51,394
835,55	52,347
835,73	50,000
835,91	34,749
836,09	35,270
836,28	64,885
836,46	43,509
836,64	61,066
836,82	41,791
837,00	39,456
837,18	47,826
837,36	45,455
837,54	29,924
837,72	36,255
837,91	37,751
838,09	36,400
838,27	47,253
838,45	51,133
838,63	32,203
838,81	58,224
838,99	32,753
839,17	46,278
839,35	37,037
839,53	44,966
839,72	19,915
839,90	36,170
840,08	46,795
840,26	48,580
840,44	42,901
840,62	39,057
840,80	37,963
840,98	33,233
841,16	33,096
841,34	40,870
841,52	23,003
841,70	39,394
841,89	45,484
842,07	39,189
842,25	33,766
842,43	33,871
842,61	37,534
842,79	42,073
842,97	23,476
843,15	53,295
843,33	42,755
843,51	36,993
843,69	34,722
843,87	37,466
844,05	26,415
844,23	27,838
844,41	36,683
844,59	31,250
844,77	30,836
844,95	24,757
845,13	38,798
845,31	34,078
845,50	55,412
845,68	36,269
845,86	35,377
846,04	40,247
846,22	34,129
846,40	16,798
846,58	31,903
846,76	32,918
846,94	26,442
847,12	31,043
847,30	32,488
847,48	34,772
847,66	36,829
847,84	27,411
848,02	32,432
848,20	29,360
848,38	27,311
848,56	36,129
848,74	30,372
848,92	24,426
849,10	37,723
849,28	35,076
849,46	24,065
849,64	25,238
849,82	27,404
850,00	34,908
850,18	29,099
850,36	25,219
850,54	37,892
850,72	33,056
850,90	35,523
851,08	27,160
851,26	35,223
851,44	29,518
851,62	31,788
851,80	28,628
851,98	38,889
852,16	35,391
852,34	38,710
852,52	26,044
852,70	20,683
852,87	37,714
853,05	31,864
853,23	33,922
853,41	22,290
853,59	26,415
853,77	28,968
853,95	23,517
854,13	27,573
854,31	30,366
854,49	21,443
854,67	33,835
854,85	27,478
855,03	26,245
855,21	32,995
855,39	19,966
855,57	23,007
855,75	23,440
855,93	22,085
856,11	29,984
856,28	27,604
856,46	17,484
856,64	23,786
856,82	16,928
857,00	17,128
857,18	22,379
857,36	21,681
857,54	24,831
857,72	27,212
857,90	20,264
858,08	19,599
858,26	16,361
858,44	20,652
858,61	19,237
858,79	28,837
858,97	18,911
859,15	22,070
859,33	21,166
859,51	20,767
859,69	18,006
859,87	16,837
860,05	21,478
860,23	17,273
860,40	26,575
860,58	20,546
860,76	21,045
860,94	16,489
861,12	21,105
861,30	23,666
861,48	16,147
861,66	26,152
861,84	23,603
862,01	19,118
862,19	18,564
862,37	17,347
862,55	18,802
862,73	21,467
862,91	20,196
863,09	21,456
863,27	11,560
863,44	20,927
863,62	24,965
863,80	12,979
863,98	17,497
864,16	18,619
864,34	19,221
864,52	17,995
864,69	23,253
864,87	26,103
865,05	14,028
865,23	16,063
865,41	14,064
865,59	20,890
865,76	17,829
865,94	20,323
866,12	20,725
866,30	17,791
866,48	18,579
866,66	21,367
866,83	19,803
867,01	19,521
867,19	17,469
867,37	17,767
867,55	21,186
867,73	19,704
867,90	19,565
868,08	24,183
868,26	18,016
868,44	17,489
868,62	18,286
868,79	18,074
868,97	22,495
869,15	21,550
869,33	19,184
869,51	24,522
869,69	18,665
869,86	19,897
870,04	23,069
870,22	18,106
870,40	23,636
870,57	23,600
870,75	23,755
870,93	22,685
871,11	21,668
871,29	21,850
871,46	17,825
871,64	21,068
871,82	21,659
872,00	27,102
872,18	19,854
872,35	23,975
872,53	23,724
872,71	23,292
872,89	26,043
873,06	22,878
873,24	23,162
873,42	20,251
873,60	16,345
873,77	21,263
873,95	22,543
874,13	22,719
874,31	20,053
874,49	23,976
874,66	22,680
874,84	21,758
875,02	24,247
875,20	23,554
875,37	16,865
875,55	20,660
875,73	20,794
875,91	25,234
876,08	20,780
876,26	21,982
876,44	19,169
876,61	23,740
876,79	22,664
876,97	21,288
877,15	24,351
877,32	22,520
877,50	20,015
877,68	25,307
877,86	21,983
878,03	22,947
878,21	20,501
878,39	19,704
878,56	25,664
878,74	23,500
878,92	18,991
879,10	23,964
879,27	21,151
879,45	25,117
879,63	20,950
879,80	22,298
879,98	20,854
880,16	19,443
880,34	16,745
880,51	22,259
880,69	21,537
880,87	18,900
881,04	19,858
881,22	22,530
881,40	19,596
881,57	22,283
881,75	20,599
881,93	18,607
882,10	20,307
882,28	17,922
882,46	21,909
882,63	21,922
882,81	19,425
882,99	16,822
883,16	21,200
883,34	19,366
883,52	17,689
883,69	21,749
883,87	21,388
884,05	16,726
884,22	16,867
884,40	18,245
884,58	17,263
884,75	15,091
884,93	19,005
885,11	15,887
885,28	17,187
885,46	15,282
885,64	16,859
885,81	17,607
885,99	15,323
886,17	17,951
886,34	17,462
886,52	16,054
886,70	18,007
886,87	17,815
887,05	15,752
887,22	14,505
887,40	16,776
887,58	15,920
887,75	16,650
887,93	16,495
888,11	14,829
888,28	14,272
888,46	13,149
888,63	17,581
888,81	14,320
888,99	13,128
889,16	13,457
889,34	13,843
889,51	14,102
889,69	12,412
889,87	13,910
890,04	13,318
890,22	10,892
890,39	9,465
890,57	12,354
890,75	14,023
890,92	12,260
891,10	12,254
891,27	12,392
891,45	12,583
891,63	12,706
891,80	12,407
891,98	13,574
892,15	12,225
892,33	9,769
892,51	11,065
892,68	10,965
892,86	11,080
893,03	12,121
893,21	11,973
893,38	12,526
893,56	11,257
893,74	11,350
893,91	10,800
894,09	11,788
894,26	11,285
894,44	11,042
894,61	10,595
894,79	10,443
894,96	11,367
895,14	10,241
895,32	9,166
895,49	10,698
895,67	8,914
895,84	12,709
896,02	10,095
896,19	9,852
896,37	11,523
896,54	12,113
896,72	8,880
896,89	12,505
897,07	12,458
897,25	12,763
897,42	10,579
897,60	11,449
897,77	14,206
897,95	13,876
898,12	11,253
898,30	11,388
898,47	12,540
898,65	12,435
898,82	12,423
899,00	11,863
899,17	11,852
899,35	14,571
899,52	12,613
899,70	13,520
899,87	14,615
900,05	13,717
900,22	14,261
900,40	14,198
900,57	14,364
900,75	14,024
900,92	14,080
901,10	14,420
901,27	14,078
901,45	14,701
901,62	13,008
901,80	14,796
901,97	14,084
902,15	14,713
902,32	16,346
902,50	15,099
902,67	15,678
902,85	15,520
903,02	15,546
903,20	15,289
903,37	14,457
903,54	16,589
903,72	15,038
903,89	15,458
904,07	13,531
904,24	16,147
904,42	15,182
904,59	15,387
904,77	15,417
904,94	15,060
905,12	14,375
905,29	14,655
905,47	15,432
905,64	15,848
905,81	15,511
905,99	13,250
906,16	16,969
906,34	15,302
906,51	13,900
906,69	13,257
906,86	14,204
907,03	14,299
907,21	14,447
907,38	14,158
907,56	14,553
907,73	14,784
907,91	15,380
908,08	15,563
908,25	13,075
908,43	13,968
908,60	14,204
908,78	15,307
908,95	14,684
909,13	14,230
909,30	13,647
909,47	15,599
909,65	14,906
909,82	15,760
910,00	14,436
910,17	14,189
910,34	15,238
910,52	13,951
910,69	14,500
910,87	16,076
911,04	13,866
911,21	15,636
911,39	14,497
911,56	15,126
911,73	15,694
911,91	15,321
912,08	15,237
912,26	15,015
912,43	13,680
912,60	16,599
912,78	14,649
912,95	16,855
913,13	15,899
913,30	16,361
913,47	17,637
913,65	16,071
913,82	16,091
913,99	16,154
914,17	16,131
914,34	18,908
914,51	18,252
914,69	16,998
914,86	18,217
915,03	19,650
915,21	18,380
915,38	18,661
915,56	19,294
915,73	19,613
915,90	20,205
916,08	19,717
916,25	20,861
916,42	20,245
916,60	21,351
916,77	21,257
916,94	20,234
917,12	22,611
917,29	23,440
917,46	22,589
917,64	23,940
917,81	22,521
917,98	23,174
918,16	24,188
918,33	24,336
918,50	25,042
918,67	24,512
918,85	25,503
919,02	26,038
919,19	26,617
919,37	26,457
919,54	25,834
919,71	26,771
919,89	25,206
920,06	25,574
920,23	26,860
920,41	27,304
920,58	27,857
920,75	27,553
920,92	28,237
921,10	28,495
921,27	28,490
921,44	28,847
921,62	29,159
921,79	29,827
921,96	30,509
922,13	28,717
922,31	30,240
922,48	30,766
922,65	30,879
922,82	32,197
923,00	31,981
923,17	31,466
923,34	32,159
923,52	30,992
923,69	31,194
923,86	32,498
924,03	32,405
924,21	33,101
924,38	33,536
924,55	34,278
924,72	35,497
924,90	35,474
925,07	34,327
925,24	35,402
925,41	35,279
925,59	33,763
925,76	34,463
925,93	35,119
926,10	35,858
926,28	36,612
926,45	36,443
926,62	36,773
926,79	35,619
926,96	36,220
927,14	35,118
927,31	36,177
927,48	36,136
927,65	36,845
927,83	36,365
928,00	37,798
928,17	35,958
928,34	37,423
928,51	37,740
928,69	36,878
928,86	36,282
929,03	37,445
929,20	38,022
929,37	35,771
929,55	37,659
929,72	37,911
929,89	36,170
930,06	37,701
930,23	37,729
930,41	37,225
930,58	37,464
930,75	37,618
930,92	36,998
931,09	39,645
931,27	37,162
931,44	36,981
931,61	39,539
931,78	38,852
931,95	38,709
932,12	37,962
932,30	39,829
932,47	39,407
932,64	37,866
932,81	38,485
932,98	38,358
933,16	37,334
933,33	37,995
933,50	39,188
933,67	38,937
933,84	38,167
934,01	36,947
934,18	37,975
934,36	38,430
934,53	38,864
934,70	37,921
934,87	37,411
935,04	37,451
935,21	38,372
935,38	37,394
935,56	37,318
935,73	36,907
935,90	35,979
936,07	38,432
936,24	37,857
936,41	38,222
936,58	38,015
936,76	40,427
936,93	38,310
937,10	39,609
937,27	40,630
937,44	39,058
937,61	40,396
937,78	38,313
937,95	38,833
938,13	38,227
938,30	38,852
938,47	39,094
938,64	40,245
938,81	39,837
938,98	39,561
939,15	41,139
939,32	41,888
939,49	40,272
939,66	42,970
939,84	42,101
940,01	42,221
940,18	43,987
940,35	42,759
940,52	42,005
940,69	43,366
940,86	42,130
941,03	42,187
941,20	43,230
941,37	43,582
941,54	43,794
941,71	41,916
941,89	44,455
942,06	43,399
942,23	43,869
942,40	44,391
942,57	42,503
942,74	43,863
942,91	44,047
943,08	45,415
943,25	45,258
943,42	45,491
943,59	44,125
943,76	47,387
943,93	44,192
944,10	44,854
944,27	47,550
944,44	43,049
944,61	45,470
944,79	46,207
944,96	46,440
945,13	46,187
945,30	45,297
945,47	48,123
945,64	48,304
945,81	46,237
945,98	47,127
946,15	50,000
946,32	47,433
946,49	46,098
946,66	48,227
946,83	48,846
947,00	48,915
947,17	48,921
947,34	48,405
947,51	48,535
947,68	49,920
947,85	48,134
948,02	47,823
948,19	46,347
948,36	47,974
948,53	49,555
948,70	49,351
948,87	49,857
949,04	47,466
949,21	48,117
949,38	46,974
949,55	47,456
949,72	47,724
949,89	49,359
950,06	48,101
950,23	46,805
950,40	47,893
950,57	47,425
950,74	50,397
950,91	46,545
951,08	47,397
951,25	46,314
951,42	47,909
951,59	49,056
951,76	47,674
951,93	49,373
952,10	46,743
952,27	47,629
952,44	48,925
952,61	48,023
952,77	45,718
952,94	50,488
953,11	50,878
953,28	52,117
953,45	51,364
953,62	53,880
953,79	51,076
953,96	51,130
954,13	51,578
954,30	53,128
954,47	52,973
954,64	54,071
954,81	51,966
954,98	51,228
955,15	50,475
955,32	57,534
955,49	54,837
955,65	58,333
955,82	59,340
955,99	60,294
956,16	60,250
956,33	56,834
956,50	58,871
956,67	60,854
956,84	65,481
957,01	60,140
957,18	58,544
957,35	60,248
957,52	65,772
957,68	60,167
957,85	64,255
958,02	60,896
958,19	63,795
958,36	66,755
958,53	62,949
958,70	60,724
958,87	67,123
959,04	61,223
959,21	67,879
959,37	68,074
959,54	68,357
959,71	56,471
959,88	62,239
960,05	66,446
960,22	62,249
960,39	73,067
960,56	61,519
960,72	65,997
960,89	66,286
961,06	66,752
961,23	68,268
961,40	73,160
961,57	67,760
961,74	70,886
961,90	65,000
962,07	62,557
962,24	68,455
962,41	74,372
962,58	69,707
962,75	70,442
962,92	72,523
963,08	66,909
963,25	69,189
963,42	86,232
963,59	68,388
963,76	85,169
963,93	64,989
964,10	82,227
964,26	72,807
964,43	82,171
964,60	76,943
964,77	85,783
964,94	73,864
965,10	85,714
965,27	79,373
965,44	70,390
965,61	67,769
965,78	74,121
965,95	88,623
966,11	80,186
966,28	97,026
966,45	82,243
966,62	80,923
966,79	108,571
966,95	68,060
967,12	77,603
967,29	78,819
967,46	82,197
967,63	95,472
967,79	114,865
967,96	93,939
968,13	95,000
968,30	89,919
968,47	89,691
968,63	94,595
968,80	103,670
968,97	102,404
969,14	102,907
969,31	104,444
969,47	106,471
969,64	93,939
969,81	92,228
969,98	98,901
970,14	108,589
970,31	101,258
970,48	120,833
970,65	109,467
970,81	143,151
970,98	123,358
971,15	160,204
971,32	103,906
971,48	143,537
971,65	81,538
971,82	141,176
971,99	147,126
972,15	130,282
972,32	168,468
972,49	119,580
972,66	157,273
972,82	177,907
972,99	161,789
973,16	172,414
973,33	133,036
973,49	140,000
973,66	140,860
973,83	165,049
974,00	209,302
974,16	158,824
974,33	129,825
974,50	143,158
974,67	198,947
974,83	78,571
975,00	177,895
975,17	126,374
975,33	194,382
975,50	201,493
975,67	283,673
975,84	259,701
976,00	155,056
976,17	180,328
976,34	90,000
976,50	177,528
976,67	101,942
976,84	3633,333
977,00	295,918
977,17	195,556
977,34	207,692
977,50	183,582
977,67	237,500
977,84	253,226
978,01	276,596
978,17	644,444
978,34	358,333
978,51	226,471
978,67	146,053
978,84	160,937
979,01	400,000
979,17	166,667
979,34	122,603
979,51	281,633
979,67	204,938
979,84	336,735
980,01	320,000
980,17	290,141
980,34	455,556
980,51	179,710
980,67	162,353
980,84	563,333
981,01	620,000
981,17	616,000
981,34	933,333
981,50	223,529
981,67	250,847
981,84	4350,000
982,00	453,333
982,17	233,333
982,34	121,111
982,50	733,333
982,67	185,417
982,84	2080,000
983,00	1383,333
983,17	176,119
983,33	189,655
983,50	1640,000
983,67	-289,655
983,83	300,000
984,00	-1700,000
984,17	750,000
984,33	-5800,000
984,50	420,000
984,66	441,304
984,83	174,026
985,00	-566,667
985,16	555,172
985,33	800,000
985,49	655,556
985,66	473,529
985,83	326,087
985,99	341,026
986,16	-2850,000
986,32	500,000
986,49	12100,000
986,66	333,333
986,82	866,667
986,99	294,340
987,15	-536,842
987,32	-425,000
987,49	212,000
987,65	4850,000
987,82	233,333
987,98	357,143
988,15	330,000
988,31	940,000
988,48	-1783,333
988,65	352,381
988,81	283,333
988,98	343,902
989,14	395,238
989,31	661,905
989,47	250,000
989,64	-876,923
989,80	631,250
989,97	332,432
990,14	-310,870
990,30	-581,818
990,47	353,061
990,63	333,333
990,80	162,000
990,96	-480,000
991,13	487,500
991,29	482,759
991,46	0,000
991,62	-1123,077
991,79	1008,333
991,95	11000,000
992,12	-1130,000
992,29	-612,500
992,45	165,882
992,62	283,721
992,78	368,182
992,95	-560,000
993,11	321,429
993,28	1160,000
993,44	-720,000
993,61	-587,500
993,77	-3625,000
993,94	-3766,667
994,10	-140,000
994,27	652,632
994,43	283,721
994,60	0,000
994,76	3925,000
994,93	660,000
995,09	-800,000
995,26	1155,556
995,42	264,706
995,59	557,143
995,75	1069,231
995,92	2157,143
996,08	466,667
996,25	-1250,000
996,41	-6000,000
996,58	860,000
996,74	329,545
996,91	368,966
997,07	0,000
997,23	12200,000
997,40	-17700,000
997,56	-861,538
997,73	-1762,500
997,89	352,632
998,06	1207,692
998,22	-516,667
998,39	536,000
998,55	1400,000
998,72	-1762,500
998,88	-336,667
999,05	-101,282
999,21	380,952
999,37	-646,667
999,54	-1116,667
999,70	-256,667
999,87	887,500
1000,03	464,103
1000,20	302,083
1000,36	0,000
1000,52	533,333
1000,69	-614,286
1000,85	-950,000
1001,02	-604,167
1001,18	2375,000
1001,35	984,615
1001,51	670,588
1001,67	-723,077
1001,84	-2540,000
1002,00	370,270
1002,17	918,182
1002,33	-3400,000
1002,50	538,095
1002,66	-792,308
1002,82	287,500
1002,99	742,857
1003,15	-1200,000
1003,32	-1200,000
1003,48	335,714
1003,64	800,000
1003,81	618,519
1003,97	-5200,000
1004,14	790,909
1004,30	240,000
1004,46	-686,667
1004,63	1021,429
1004,79	325,000
1004,95	706,667
1005,12	4950,000
1005,28	551,724
1005,45	335,135
1005,61	434,483
1005,77	-258,333
1005,94	-395,238
1006,10	-4450,000
1006,26	1015,385
1006,43	-253,846
1006,59	-972,727
1006,76	871,429
1006,92	1633,333
1007,08	10800,000
1007,25	-225,926
1007,41	468,966
1007,57	3900,000
1007,74	840,000
1007,90	-437,931
1008,06	245,652
1008,23	1035,294
1008,39	-606,250
1008,55	-469,231
1008,72	-1985,714
1008,88	0,000
1009,04	353,659
1009,21	-184,211
1009,37	-975,000
1009,53	235,714
1009,70	2700,000
1009,86	-707,143
1010,02	4066,667
1010,19	1181,818
1010,35	297,059
1010,51	-5450,000
1010,68	-1525,000
1010,84	-143,182
1011,00	625,000
1011,17	-386,364
1011,33	0,000
1011,49	-806,667
1011,66	928,571
1011,82	480,645
1011,98	721,429
1012,14	-518,182
1012,31	315,385
1012,47	0,000
1012,63	2266,667
1012,80	992,857
1012,96	-587,500
1013,12	-2516,667
1013,29	911,111
1013,45	351,220
1013,61	5000,000
1013,77	-119,643
1013,94	2260,000
1014,10	191,525
1014,26	-2325,000
1014,43	-432,000
1014,59	405,000
1014,75	-388,889
1014,91	-473,333
1015,08	450,000
1015,24	7700,000
1015,40	682,353
1015,56	-11200,000
1015,73	252,381
1015,89	936,364
1016,05	3250,000
1016,21	-1150,000
1016,38	821,053
1016,54	969,231
1016,70	-3866,667
1016,86	381,250
1017,03	900,000
1017,19	-615,385
1017,35	-647,059
1017,51	-2200,000
1017,68	-470,000
1017,84	-2285,714
1018,00	309,524
1018,16	373,077
1018,33	-1957,143
1018,49	-916,667
1018,65	-318,919
1018,81	261,538
1018,97	-1557,143
1019,14	-3033,333
1019,30	-210,256
1019,46	0,000
1019,62	-588,235
1019,79	-5033,333
1019,95	1175,000
1020,11	6750,000
1020,27	-496,296
1020,43	-407,692
1020,60	1966,667
1020,76	694,444
1020,92	726,667
1021,08	695,000
1021,24	1240,000
1021,41	1133,333
1021,57	1737,500
1021,73	1107,692
1021,89	2060,000
1022,05	-303,571
1022,21	695,000
1022,38	-916,667
1022,54	-2333,333
1022,70	308,889
1022,86	-1512,500
1023,02	533,333
1023,19	3020,000
1023,35	3433,333
1023,51	475,000
1023,67	466,667
1023,83	-775,000
1023,99	284,211
1024,16	-346,154
1024,32	-1522,222
1024,48	-960,000
1024,64	278,571
1024,80	643,478
1024,96	364,103
1025,12	400,000
1025,29	471,429
1025,45	334,211
1025,61	594,444
1025,77	-2360,000
1025,93	-7800,000
1026,09	-1314,286
1026,26	791,667
1026,42	612,500
1026,58	421,212
1026,74	1566,667
1026,90	428,000
1027,06	335,714
1027,22	942,857
1027,38	305,769
1027,55	2233,333
1027,71	600,000
1027,87	-272,000
1028,03	950,000
1028,19	337,500
1028,35	670,000
1028,51	1020,000
1028,67	708,333
1028,83	-1950,000
1029,00	-185,714
1029,16	1280,000
1029,32	-321,429
1029,48	275,556
1029,64	383,333
1029,80	5550,000
1029,96	766,667
1030,12	526,087
1030,28	-3333,333
1030,44	-484,615
1030,61	-454,167
1030,77	-294,286
1030,93	-786,667
1031,09	1900,000
1031,25	-11000,000
1031,41	-260,000
1031,57	415,385
1031,73	637,500
1031,89	-1227,273
1032,05	-351,852
1032,21	1027,273
1032,37	-148,148
1032,53	-850,000
1032,69	-195,833
1032,86	437,037
1033,02	-322,500
1033,18	-712,500
1033,34	578,947
1033,50	-4450,000
1033,66	-268,293
1033,82	639,130
1033,98	-392,593
1034,14	211,538
1034,30	406,452
1034,46	-4133,333
1034,62	540,000
1034,78	-438,095
1034,94	260,526
1035,10	-669,231
1035,26	-188,372
1035,42	-193,103
1035,58	-438,889
1035,74	800,000
1035,90	-823,077
1036,06	-1533,333
1036,22	1750,000
1036,38	-805,882
1036,54	-537,500
1036,70	-203,030
1036,86	11500,000
1037,02	461,111
1037,18	821,053
1037,34	144,762
1037,50	-156,098
1037,66	-447,059
1037,82	2160,000
1037,98	-388,889
1038,14	-308,000
1038,30	-675,000
1038,46	-757,143
1038,62	639,130
1038,78	-3533,333
1038,94	-484,211
1039,10	545,455
1039,26	492,593
1039,42	-733,333
1039,58	1900,000
1039,74	-652,632
1039,90	437,500
1040,06	-346,154
>>>>>End Processed Spectral Data<<<<<
