SpectraSuite Data File
++++++++++++++++++++++++++++++++++++
Date: Thu Feb 02 17:22:27 EET 2017
User: optolab
Dark Spectrum Present: Yes
Reference Spectrum Present: Yes
Number of Sampled Component Spectra: 1
Spectrometers: USB4C02475
Integration Time (usec): 100000 (USB4C02475)
Spectra Averaged: 1 (USB4C02475)
Boxcar Smoothing: 0 (USB4C02475)
Correct for Electrical Dark: No (USB4C02475)
Strobe/Lamp Enabled: No (USB4C02475)
Correct for Detector Non-linearity: No (USB4C02475)
Correct for Stray Light: No (USB4C02475)
Number of Pixels in Processed Spectrum: 3648
>>>>>Begin Processed Spectral Data<<<<<
344,91	-1350,000
345,13	-1350,000
345,35	-1350,000
345,57	-47,059
345,79	47,826
346,00	20,588
346,22	-1057,143
346,44	-66,667
346,66	206,383
346,87	417,391
347,09	507,692
347,31	4700,000
347,53	-200,000
347,74	-167,442
347,96	-785,714
348,18	226,471
348,40	376,471
348,61	-210,256
348,83	3000,000
349,05	233,333
349,27	247,059
349,48	-2050,000
349,70	607,143
349,92	190,476
350,14	78,378
350,35	-453,846
350,57	-266,667
350,79	20,513
351,01	-393,333
351,22	450,000
351,44	541,667
351,66	211,111
351,87	733,333
352,09	132,895
352,31	141,071
352,53	222,857
352,74	-285,714
352,96	73,684
353,18	146,875
353,40	137,500
353,61	386,667
353,83	108,333
354,05	225,000
354,26	210,714
354,48	-1100,000
354,70	261,905
354,92	250,000
355,13	-72,093
355,35	214,815
355,57	217,188
355,78	-92,857
356,00	174,468
356,22	95,455
356,44	223,256
356,65	364,286
356,87	161,111
357,09	205,714
357,30	115,909
357,52	-1200,000
357,74	270,968
357,95	177,143
358,17	73,913
358,39	104,000
358,60	169,444
358,82	322,727
359,04	235,897
359,26	140,909
359,47	-507,692
359,69	196,429
359,91	304,000
360,12	180,000
360,34	50,000
360,56	-150,000
360,77	733,333
360,99	312,500
361,21	30,435
361,42	-1800,000
361,64	-74,074
361,86	94,030
362,07	413,333
362,29	237,500
362,51	208,108
362,72	-1260,000
362,94	188,889
363,16	135,714
363,37	636,364
363,59	-3300,000
363,81	962,500
364,02	76,000
364,24	161,364
364,46	304,762
364,67	90,476
364,89	170,588
365,11	156,757
365,32	288,889
365,54	187,500
365,76	115,909
365,97	39,024
366,19	112,281
366,41	240,000
366,62	86,000
366,84	350,000
367,05	78,431
367,27	800,000
367,49	212,821
367,70	666,667
367,92	110,417
368,14	23,077
368,35	119,118
368,57	106,061
368,79	184,615
369,00	62,821
369,22	166,667
369,43	263,158
369,65	-24,138
369,87	-188,235
370,08	260,000
370,30	157,143
370,51	390,909
370,73	127,778
370,95	205,000
371,16	135,088
371,38	190,566
371,60	53,333
371,81	123,913
372,03	-1550,000
372,24	-84,375
372,46	1766,667
372,68	150,000
372,89	49,541
373,11	62,791
373,32	74,790
373,54	354,545
373,76	116,667
373,97	130,303
374,19	-247,368
374,40	84,286
374,62	441,176
374,84	241,667
375,05	125,000
375,27	105,405
375,48	106,173
375,70	364,706
375,92	142,857
376,13	405,263
376,35	275,000
376,56	185,000
376,78	53,061
376,99	239,394
377,21	243,750
377,43	190,909
377,64	84,000
377,86	293,750
378,07	75,000
378,29	138,889
378,51	108,333
378,72	-368,182
378,94	93,478
379,15	104,545
379,37	250,000
379,58	76,667
379,80	88,636
380,01	126,000
380,23	86,957
380,45	179,167
380,66	76,389
380,88	100,000
381,09	308,696
381,31	189,744
381,52	178,261
381,74	123,214
381,95	210,714
382,17	240,000
382,39	108,065
382,60	347,059
382,82	200,000
383,03	2400,000
383,25	96,296
383,46	633,333
383,68	172,340
383,89	168,182
384,11	115,068
384,32	89,474
384,54	-700,000
384,76	158,824
384,97	100,000
385,19	173,684
385,40	368,750
385,62	138,710
385,83	142,553
386,05	928,571
386,26	280,769
386,48	176,923
386,69	191,667
386,91	90,000
387,12	133,333
387,34	59,322
387,55	191,429
387,77	144,000
387,98	97,959
388,20	119,718
388,41	47,619
388,63	138,571
388,84	302,500
389,06	176,744
389,27	34,375
389,49	73,494
389,70	215,254
389,92	25,000
390,13	138,462
390,35	66,667
390,56	57,812
390,78	163,636
390,99	144,444
391,21	59,091
391,42	63,043
391,64	120,000
391,85	129,310
392,07	-150,000
392,28	73,077
392,50	660,000
392,71	4300,000
392,93	66,129
393,14	154,348
393,36	83,333
393,57	233,333
393,79	74,603
394,00	21,918
394,22	140,000
394,43	175,000
394,65	128,571
394,86	171,875
395,08	-725,000
395,29	57,447
395,50	-3900,000
395,72	942,857
395,93	56,000
396,15	-135,714
396,36	120,000
396,58	-185,714
396,79	139,535
397,01	378,571
397,22	117,391
397,44	180,851
397,65	90,541
397,87	115,714
398,08	130,769
398,29	275,000
398,51	221,951
398,72	58,696
398,94	139,535
399,15	116,667
399,37	89,130
399,58	90,476
399,80	193,333
400,01	179,412
400,22	321,429
400,44	219,048
400,65	101,370
400,87	3500,000
401,08	94,382
401,30	94,667
401,51	110,909
401,72	156,452
401,94	124,390
402,15	28,571
402,37	136,364
402,58	134,884
402,80	175,000
403,01	111,111
403,22	62,651
403,44	219,444
403,65	34,694
403,87	116,000
404,08	205,769
404,30	103,125
404,51	71,429
404,72	581,818
404,94	45,783
405,15	134,328
405,37	129,670
405,58	229,032
405,79	442,857
406,01	57,037
406,22	100,000
406,44	145,614
406,65	134,524
406,86	125,000
407,08	112,346
407,29	77,333
407,51	88,462
407,72	66,337
407,93	108,861
408,15	64,773
408,36	328,571
408,58	66,667
408,79	52,713
409,00	59,574
409,22	92,157
409,43	96,396
409,64	77,564
409,86	120,455
410,07	85,217
410,29	75,333
410,50	104,762
410,71	81,452
410,93	70,297
411,14	166,355
411,35	102,083
411,57	87,500
411,78	110,294
412,00	106,000
412,21	77,876
412,42	80,000
412,64	97,778
412,85	87,565
413,06	95,982
413,28	96,863
413,49	100,465
413,70	106,009
413,92	106,190
414,13	96,047
414,34	83,271
414,56	108,085
414,77	101,845
414,98	83,746
415,20	99,283
415,41	89,935
415,63	78,632
415,84	81,994
416,05	73,795
416,27	76,602
416,48	74,408
416,69	90,407
416,91	70,667
417,12	57,466
417,33	67,269
417,55	73,800
417,76	67,442
417,97	62,734
418,19	54,812
418,40	55,224
418,61	49,400
418,83	57,042
419,04	50,543
419,25	46,252
419,46	53,612
419,68	35,251
419,89	34,124
420,10	34,946
420,32	31,788
420,53	29,952
420,74	26,523
420,96	23,697
421,17	24,059
421,38	20,422
421,60	20,043
421,81	22,122
422,02	23,651
422,23	24,167
422,45	26,603
422,66	28,177
422,87	22,561
423,09	23,605
423,30	27,075
423,51	24,981
423,73	24,734
423,94	21,083
424,15	23,147
424,36	20,394
424,58	16,958
424,79	11,646
425,00	11,911
425,22	10,706
425,43	9,471
425,64	5,324
425,85	5,299
426,07	3,945
426,28	3,897
426,49	2,747
426,71	2,319
426,92	4,116
427,13	1,916
427,34	1,793
427,56	6,520
427,77	-0,414
427,98	2,459
428,19	-0,775
428,41	0,232
428,62	1,896
428,83	0,308
429,04	2,911
429,26	1,485
429,47	3,134
429,68	0,840
429,89	0,734
430,11	1,447
430,32	1,919
430,53	1,000
430,74	2,575
430,96	1,429
431,17	1,391
431,38	2,007
431,59	1,147
431,81	0,861
432,02	1,059
432,23	1,430
432,44	1,456
432,66	1,812
432,87	0,676
433,08	1,168
433,29	0,611
433,51	1,197
433,72	1,930
433,93	0,627
434,14	1,477
434,35	0,315
434,57	0,304
434,78	1,094
434,99	0,803
435,20	1,503
435,42	1,026
435,63	1,073
435,84	0,690
436,05	0,401
436,26	-0,014
436,48	1,428
436,69	0,765
436,90	-0,038
437,11	1,100
437,32	0,552
437,54	0,309
437,75	0,806
437,96	0,595
438,17	0,619
438,38	0,381
438,60	0,902
438,81	0,334
439,02	0,646
439,23	0,714
439,44	0,343
439,66	0,522
439,87	0,583
440,08	0,404
440,29	0,467
440,50	0,824
440,72	0,269
440,93	0,696
441,14	0,545
441,35	0,276
441,56	0,364
441,77	0,576
441,99	0,426
442,20	0,563
442,41	0,130
442,62	0,318
442,83	0,230
443,04	0,433
443,26	0,299
443,47	0,439
443,68	0,424
443,89	0,549
444,10	0,426
444,31	0,785
444,53	0,425
444,74	0,088
444,95	0,200
445,16	0,062
445,37	0,289
445,58	0,174
445,80	0,188
446,01	0,553
446,22	0,769
446,43	0,480
446,64	0,238
446,85	0,212
447,06	0,229
447,28	0,212
447,49	0,347
447,70	0,413
447,91	0,663
448,12	0,268
448,33	0,192
448,54	0,122
448,76	0,382
448,97	0,055
449,18	0,469
449,39	0,415
449,60	0,303
449,81	0,766
450,02	0,441
450,23	0,446
450,45	0,591
450,66	0,007
450,87	0,640
451,08	0,204
451,29	0,637
451,50	0,369
451,71	0,458
451,92	0,303
452,13	0,363
452,35	0,416
452,56	0,279
452,77	0,409
452,98	0,558
453,19	0,421
453,40	0,556
453,61	0,475
453,82	0,517
454,03	0,446
454,25	0,461
454,46	0,596
454,67	0,531
454,88	0,568
455,09	0,456
455,30	0,521
455,51	0,411
455,72	0,832
455,93	0,284
456,14	0,601
456,35	0,522
456,56	0,309
456,78	0,752
456,99	0,740
457,20	0,524
457,41	0,433
457,62	0,270
457,83	0,422
458,04	0,640
458,25	0,401
458,46	0,625
458,67	0,244
458,88	0,344
459,09	0,404
459,30	0,138
459,51	0,490
459,73	0,173
459,94	0,593
460,15	0,481
460,36	0,309
460,57	0,581
460,78	0,485
460,99	0,452
461,20	0,496
461,41	0,522
461,62	0,261
461,83	0,461
462,04	0,460
462,25	0,552
462,46	0,351
462,67	0,501
462,88	0,409
463,09	0,429
463,30	0,516
463,51	0,377
463,72	0,602
463,93	0,555
464,15	0,687
464,36	0,666
464,57	0,404
464,78	0,596
464,99	0,897
465,20	0,727
465,41	0,722
465,62	1,187
465,83	1,067
466,04	1,542
466,25	1,558
466,46	1,998
466,67	2,296
466,88	3,068
467,09	3,932
467,30	4,757
467,51	6,081
467,72	7,523
467,93	9,213
468,14	10,770
468,35	12,532
468,56	14,121
468,77	15,935
468,98	17,662
469,19	19,496
469,40	21,530
469,61	23,325
469,82	25,698
470,03	28,231
470,24	30,462
470,45	33,344
470,66	36,288
470,87	38,927
471,08	42,427
471,29	46,043
471,50	48,651
471,71	50,592
471,92	54,392
472,13	56,475
472,34	59,287
472,55	61,935
472,76	64,402
472,97	65,412
473,18	68,534
473,39	69,682
473,60	71,252
473,81	73,017
474,01	75,869
474,22	77,700
474,43	79,989
474,64	80,861
474,85	81,073
475,06	83,525
475,27	84,596
475,48	84,743
475,69	86,293
475,90	87,298
476,11	88,733
476,32	89,376
476,53	90,429
476,74	90,224
476,95	90,570
477,16	91,719
477,37	91,283
477,58	90,946
477,79	93,800
478,00	93,155
478,21	93,354
478,41	93,217
478,62	93,545
478,83	93,400
479,04	91,872
479,25	92,538
479,46	95,269
479,67	94,738
479,88	94,206
480,09	93,793
480,30	94,007
480,51	93,312
480,72	92,579
480,93	91,831
481,14	91,560
481,34	91,963
481,55	90,989
481,76	90,690
481,97	91,289
482,18	89,750
482,39	89,915
482,60	89,651
482,81	90,748
483,02	89,225
483,23	89,408
483,44	89,394
483,65	88,814
483,85	88,935
484,06	87,354
484,27	87,347
484,48	87,219
484,69	86,131
484,90	85,155
485,11	83,512
485,32	84,468
485,53	83,117
485,73	82,237
485,94	81,215
486,15	82,608
486,36	80,530
486,57	79,086
486,78	77,571
486,99	76,787
487,20	74,969
487,41	73,947
487,61	72,003
487,82	71,738
488,03	69,756
488,24	68,607
488,45	66,970
488,66	65,720
488,87	65,356
489,08	64,973
489,28	63,700
489,49	61,820
489,70	60,764
489,91	60,154
490,12	58,105
490,33	56,651
490,54	55,956
490,74	52,931
490,95	50,408
491,16	48,806
491,37	45,689
491,58	43,520
491,79	40,771
492,00	37,585
492,20	35,007
492,41	32,564
492,62	29,471
492,83	26,426
493,04	23,615
493,25	21,241
493,45	18,242
493,66	15,937
493,87	13,719
494,08	11,591
494,29	9,538
494,50	8,366
494,70	7,018
494,91	5,858
495,12	4,926
495,33	4,112
495,54	3,581
495,75	2,885
495,95	2,495
496,16	2,023
496,37	1,664
496,58	1,211
496,79	1,010
496,99	0,800
497,20	0,640
497,41	0,676
497,62	0,531
497,83	0,554
498,04	0,519
498,24	0,461
498,45	0,392
498,66	0,463
498,87	0,524
499,08	0,337
499,28	0,275
499,49	0,366
499,70	0,313
499,91	0,294
500,12	0,233
500,32	0,346
500,53	0,320
500,74	0,458
500,95	0,219
501,15	0,445
501,36	0,371
501,57	0,239
501,78	0,247
501,99	0,260
502,19	0,263
502,40	0,241
502,61	0,242
502,82	0,250
503,02	0,253
503,23	0,357
503,44	0,455
503,65	0,387
503,86	0,124
504,06	0,267
504,27	0,413
504,48	0,264
504,69	0,395
504,89	0,211
505,10	0,251
505,31	0,444
505,52	0,484
505,72	0,478
505,93	0,298
506,14	0,186
506,35	0,476
506,55	0,227
506,76	0,342
506,97	0,245
507,18	0,313
507,38	0,229
507,59	0,362
507,80	0,304
508,01	0,269
508,21	0,115
508,42	0,076
508,63	0,243
508,84	0,561
509,04	0,339
509,25	0,389
509,46	0,305
509,67	0,358
509,87	0,301
510,08	0,346
510,29	0,242
510,49	0,325
510,70	0,365
510,91	0,366
511,12	0,231
511,32	0,358
511,53	0,264
511,74	0,208
511,94	0,094
512,15	0,245
512,36	0,127
512,57	0,299
512,77	0,286
512,98	0,276
513,19	0,421
513,39	0,157
513,60	0,209
513,81	0,349
514,01	0,309
514,22	0,376
514,43	0,176
514,64	0,338
514,84	0,405
515,05	0,410
515,26	0,285
515,46	0,279
515,67	0,331
515,88	0,232
516,08	0,249
516,29	0,147
516,50	0,234
516,70	0,193
516,91	0,458
517,12	0,368
517,32	0,186
517,53	0,065
517,74	0,305
517,95	0,403
518,15	0,318
518,36	0,450
518,57	0,313
518,77	0,329
518,98	0,410
519,19	0,271
519,39	0,511
519,60	0,249
519,80	0,186
520,01	0,209
520,22	0,313
520,42	0,214
520,63	0,318
520,84	0,245
521,04	0,232
521,25	0,343
521,46	0,356
521,66	0,263
521,87	0,179
522,08	0,331
522,28	0,475
522,49	0,308
522,70	0,282
522,90	0,344
523,11	0,200
523,31	0,098
523,52	0,309
523,73	0,161
523,93	0,392
524,14	0,365
524,35	0,385
524,55	0,350
524,76	0,301
524,97	0,260
525,17	0,304
525,38	0,292
525,58	0,185
525,79	0,360
526,00	0,341
526,20	0,324
526,41	0,177
526,61	0,262
526,82	0,326
527,03	0,332
527,23	0,341
527,44	0,285
527,64	0,512
527,85	0,222
528,06	0,527
528,26	0,373
528,47	0,461
528,68	0,509
528,88	0,465
529,09	0,339
529,29	0,657
529,50	0,527
529,70	0,721
529,91	0,504
530,12	0,899
530,32	0,833
530,53	1,080
530,73	0,999
530,94	1,330
531,15	1,505
531,35	1,874
531,56	2,293
531,76	2,598
531,97	3,022
532,17	3,350
532,38	4,006
532,59	4,806
532,79	5,934
533,00	6,576
533,20	7,596
533,41	8,690
533,61	9,546
533,82	10,731
534,03	12,323
534,23	13,265
534,44	14,693
534,64	16,242
534,85	17,807
535,05	19,812
535,26	21,211
535,46	22,714
535,67	24,251
535,88	25,474
536,08	27,484
536,29	27,976
536,49	29,093
536,70	29,833
536,90	30,363
537,11	30,562
537,31	31,905
537,52	32,340
537,72	32,836
537,93	34,182
538,13	34,631
538,34	35,727
538,55	37,055
538,75	38,572
538,96	40,041
539,16	42,958
539,37	45,028
539,57	46,390
539,78	48,985
539,98	51,883
540,19	54,349
540,39	57,106
540,60	59,219
540,80	62,524
541,01	63,980
541,21	65,720
541,42	67,731
541,62	69,285
541,83	70,620
542,03	70,879
542,24	71,339
542,44	71,915
542,65	72,144
542,85	70,450
543,06	71,155
543,26	71,204
543,47	69,752
543,67	70,915
543,88	71,216
544,08	70,454
544,29	70,622
544,49	70,036
544,70	70,242
544,90	71,810
545,11	72,139
545,31	72,787
545,52	73,148
545,72	73,591
545,93	75,348
546,13	74,740
546,34	75,908
546,54	76,845
546,75	76,603
546,95	76,754
547,15	77,637
547,36	77,686
547,56	76,880
547,77	76,508
547,97	75,157
548,18	75,838
548,38	74,910
548,59	74,106
548,79	73,259
549,00	72,364
549,20	70,505
549,41	68,784
549,61	68,040
549,81	65,112
550,02	63,762
550,22	61,678
550,43	60,278
550,63	58,540
550,84	56,898
551,04	55,492
551,25	53,613
551,45	52,815
551,65	50,085
551,86	49,351
552,06	47,790
552,27	47,802
552,47	46,197
552,68	46,177
552,88	45,386
553,08	45,330
553,29	44,757
553,49	43,310
553,70	42,820
553,90	42,829
554,11	41,848
554,31	41,528
554,51	40,793
554,72	40,132
554,92	39,188
555,13	38,473
555,33	37,529
555,53	36,957
555,74	36,595
555,94	34,997
556,15	34,426
556,35	33,504
556,56	32,311
556,76	31,423
556,96	30,881
557,17	30,010
557,37	29,336
557,58	27,609
557,78	26,208
557,98	24,948
558,19	23,150
558,39	21,295
558,59	19,897
558,80	18,181
559,00	16,494
559,21	15,142
559,41	13,604
559,61	12,534
559,82	11,888
560,02	10,615
560,23	10,053
560,43	9,410
560,63	8,263
560,84	7,826
561,04	6,888
561,24	6,308
561,45	5,210
561,65	4,081
561,85	3,314
562,06	2,824
562,26	2,120
562,47	1,920
562,67	1,410
562,87	0,996
563,08	0,987
563,28	0,887
563,48	0,597
563,69	0,549
563,89	0,530
564,09	0,309
564,30	0,418
564,50	0,310
564,70	0,372
564,91	0,297
565,11	0,191
565,31	0,288
565,52	0,118
565,72	0,414
565,92	0,263
566,13	0,251
566,33	0,286
566,53	0,215
566,74	0,045
566,94	0,356
567,14	0,355
567,35	0,368
567,55	0,290
567,75	0,432
567,96	0,330
568,16	0,192
568,36	0,089
568,57	0,230
568,77	0,131
568,97	0,411
569,18	0,212
569,38	0,071
569,58	0,281
569,79	0,030
569,99	0,174
570,19	0,063
570,39	0,152
570,60	0,261
570,80	0,218
571,00	0,156
571,21	0,339
571,41	0,227
571,61	0,270
571,82	0,366
572,02	0,155
572,22	0,056
572,42	0,263
572,63	0,357
572,83	0,181
573,03	0,067
573,24	0,052
573,44	0,229
573,64	0,134
573,84	-0,022
574,05	0,114
574,25	0,200
574,45	0,180
574,66	0,298
574,86	0,211
575,06	0,304
575,26	0,105
575,47	0,358
575,67	0,200
575,87	0,203
576,07	0,111
576,28	0,203
576,48	0,118
576,68	0,181
576,88	0,220
577,09	0,107
577,29	0,323
577,49	0,123
577,69	0,088
577,90	0,041
578,10	0,129
578,30	0,235
578,50	0,091
578,71	0,188
578,91	0,096
579,11	0,191
579,31	0,332
579,52	0,160
579,72	0,048
579,92	0,255
580,12	0,118
580,33	0,214
580,53	0,080
580,73	0,093
580,93	0,295
581,13	0,026
581,34	0,022
581,54	0,247
581,74	0,178
581,94	0,291
582,15	0,329
582,35	0,124
582,55	0,178
582,75	0,205
582,95	0,309
583,16	0,158
583,36	0,118
583,56	0,166
583,76	0,022
583,96	0,044
584,17	0,148
584,37	0,129
584,57	0,123
584,77	0,070
584,97	0,088
585,18	0,151
585,38	0,048
585,58	0,143
585,78	0,070
585,98	0,333
586,19	0,193
586,39	0,287
586,59	0,214
586,79	0,183
586,99	-0,007
587,20	0,153
587,40	0,183
587,60	-0,055
587,80	0,088
588,00	0,132
588,20	0,310
588,41	0,282
588,61	0,223
588,81	0,131
589,01	0,221
589,21	0,154
589,41	0,054
589,62	0,110
589,82	0,146
590,02	0,150
590,22	0,164
590,42	0,303
590,62	0,073
590,83	0,132
591,03	0,051
591,23	0,131
591,43	0,299
591,63	0,219
591,83	0,101
592,03	0,190
592,24	0,239
592,44	0,026
592,64	0,126
592,84	0,116
593,04	0,076
593,24	0,152
593,44	0,127
593,65	0,054
593,85	0,097
594,05	0,151
594,25	0,076
594,45	0,079
594,65	0,086
594,85	0,000
595,06	0,018
595,26	0,321
595,46	0,138
595,66	0,108
595,86	0,190
596,06	0,177
596,26	0,102
596,46	0,417
596,66	0,051
596,87	0,130
597,07	0,109
597,27	-0,011
597,47	0,164
597,67	0,134
597,87	0,033
598,07	0,121
598,27	0,143
598,47	0,239
598,67	0,117
598,88	0,201
599,08	0,129
599,28	0,181
599,48	0,059
599,68	0,239
599,88	0,093
600,08	0,078
600,28	0,151
600,48	0,208
600,68	0,104
600,88	0,138
601,09	0,184
601,29	0,224
601,49	0,147
601,69	0,169
601,89	0,117
602,09	0,125
602,29	0,136
602,49	0,080
602,69	0,103
602,89	0,038
603,09	0,166
603,29	0,307
603,49	0,207
603,69	0,034
603,90	0,107
604,10	0,103
604,30	0,093
604,50	0,091
604,70	0,069
604,90	0,088
605,10	0,030
605,30	0,100
605,50	0,015
605,70	0,305
605,90	-0,077
606,10	0,150
606,30	0,315
606,50	0,313
606,70	0,174
606,90	0,043
607,10	0,154
607,30	0,264
607,50	0,213
607,70	0,159
607,90	0,180
608,10	0,152
608,30	0,073
608,50	0,239
608,70	0,371
608,90	0,148
609,11	0,105
609,31	0,035
609,51	0,085
609,71	0,086
609,91	0,023
610,11	0,375
610,31	0,164
610,51	0,163
610,71	0,086
610,91	0,137
611,11	0,204
611,31	0,129
611,51	-0,016
611,71	-0,028
611,91	0,205
612,11	0,189
612,31	0,166
612,51	0,177
612,71	0,000
612,91	-0,087
613,11	-0,004
613,31	0,071
613,51	0,056
613,71	0,171
613,91	0,103
614,11	0,116
614,31	0,087
614,50	0,191
614,70	0,110
614,90	0,028
615,10	0,055
615,30	0,099
615,50	0,016
615,70	0,238
615,90	0,192
616,10	0,156
616,30	0,199
616,50	0,094
616,70	0,236
616,90	0,142
617,10	0,187
617,30	0,131
617,50	0,174
617,70	0,140
617,90	0,163
618,10	0,194
618,30	-0,103
618,50	0,198
618,70	0,217
618,90	-0,099
619,10	0,023
619,30	-0,012
619,49	0,130
619,69	0,123
619,89	0,304
620,09	0,071
620,29	0,134
620,49	0,174
620,69	-0,091
620,89	0,036
621,09	0,164
621,29	0,201
621,49	0,106
621,69	0,074
621,89	0,190
622,09	0,305
622,29	0,121
622,48	0,247
622,68	0,023
622,88	0,093
623,08	0,178
623,28	-0,043
623,48	0,136
623,68	0,078
623,88	0,046
624,08	0,113
624,28	0,216
624,48	0,278
624,67	0,000
624,87	0,142
625,07	0,184
625,27	0,104
625,47	0,127
625,67	0,250
625,87	0,115
626,07	0,015
626,27	0,186
626,47	0,246
626,66	0,045
626,86	0,144
627,06	0,217
627,26	0,172
627,46	-0,004
627,66	0,034
627,86	0,127
628,06	0,067
628,25	0,133
628,45	0,230
628,65	0,194
628,85	0,119
629,05	0,224
629,25	0,141
629,45	0,248
629,65	0,108
629,84	0,049
630,04	0,146
630,24	0,049
630,44	-0,155
630,64	0,155
630,84	0,111
631,04	0,248
631,23	-0,104
631,43	0,204
631,63	0,008
631,83	0,031
632,03	0,024
632,23	0,149
632,42	0,155
632,62	0,151
632,82	0,120
633,02	0,240
633,22	0,190
633,42	0,043
633,62	0,009
633,81	0,070
634,01	0,241
634,21	0,165
634,41	0,132
634,61	0,032
634,80	0,126
635,00	0,354
635,20	0,144
635,40	-0,101
635,60	0,152
635,80	0,152
635,99	0,382
636,19	0,095
636,39	0,005
636,59	0,046
636,79	0,170
636,98	0,157
637,18	0,121
637,38	0,276
637,58	0,065
637,78	0,329
637,97	0,088
638,17	0,266
638,37	0,327
638,57	-0,151
638,77	0,295
638,96	-0,097
639,16	0,312
639,36	0,132
639,56	0,471
639,76	0,100
639,95	0,183
640,15	0,048
640,35	0,036
640,55	0,169
640,75	0,232
640,94	0,145
641,14	0,487
641,34	0,037
641,54	0,177
641,73	-0,144
641,93	0,260
642,13	0,206
642,33	0,300
642,53	0,434
642,72	0,305
642,92	0,241
643,12	-0,027
643,32	0,297
643,51	0,320
643,71	-0,080
643,91	0,190
644,11	0,329
644,30	0,302
644,50	0,209
644,70	0,244
644,90	0,563
645,09	-0,021
645,29	0,397
645,49	0,207
645,69	-0,165
645,88	0,281
646,08	0,289
646,28	0,380
646,48	-0,118
646,67	0,029
646,87	0,310
647,07	0,127
647,26	0,529
647,46	0,325
647,66	0,137
647,86	0,393
648,05	0,137
648,25	0,847
648,45	0,217
648,65	-0,053
648,84	-0,138
649,04	0,281
649,24	0,409
649,43	0,095
649,63	0,334
649,83	0,211
650,03	0,212
650,22	0,188
650,42	0,087
650,62	0,435
650,81	0,129
651,01	0,303
651,21	0,556
651,40	0,549
651,60	-0,122
651,80	0,147
652,00	0,415
652,19	0,492
652,39	0,228
652,59	0,535
652,78	0,164
652,98	-0,050
653,18	0,201
653,37	0,259
653,57	0,484
653,77	0,309
653,96	0,170
654,16	0,269
654,36	0,246
654,55	0,059
654,75	0,017
654,95	0,153
655,14	0,362
655,34	0,308
655,54	0,594
655,73	0,261
655,93	0,157
656,13	0,183
656,32	-0,070
656,52	0,591
656,72	0,261
656,91	0,476
657,11	0,147
657,31	0,331
657,50	0,474
657,70	0,260
657,90	0,443
658,09	0,486
658,29	0,337
658,49	0,253
658,68	0,096
658,88	0,384
659,07	0,349
659,27	0,366
659,47	0,157
659,66	0,018
659,86	-0,105
660,06	-0,130
660,25	0,212
660,45	0,469
660,64	0,307
660,84	0,418
661,04	0,403
661,23	0,352
661,43	0,272
661,63	0,155
661,82	0,165
662,02	0,634
662,21	0,105
662,41	0,577
662,61	0,436
662,80	0,149
663,00	-0,087
663,19	0,437
663,39	0,130
663,59	0,482
663,78	0,129
663,98	0,342
664,17	0,503
664,37	0,681
664,57	0,377
664,76	0,365
664,96	0,264
665,15	0,528
665,35	0,424
665,55	-0,017
665,74	0,607
665,94	0,042
666,13	0,291
666,33	0,363
666,53	0,535
666,72	0,278
666,92	0,165
667,11	0,258
667,31	-0,140
667,50	-0,058
667,70	0,411
667,90	0,147
668,09	0,197
668,29	0,008
668,48	0,154
668,68	0,276
668,87	0,282
669,07	0,032
669,26	0,401
669,46	0,224
669,66	0,285
669,85	0,276
670,05	0,395
670,24	0,144
670,44	0,063
670,63	0,047
670,83	0,055
671,02	0,125
671,22	0,178
671,42	0,139
671,61	0,110
671,81	0,492
672,00	0,469
672,20	0,205
672,39	0,450
672,59	0,180
672,78	0,166
672,98	0,143
673,17	0,015
673,37	0,172
673,56	0,022
673,76	-0,146
673,95	0,379
674,15	0,339
674,34	0,086
674,54	0,342
674,73	0,249
674,93	0,369
675,13	0,230
675,32	0,182
675,52	0,315
675,71	0,082
675,91	0,429
676,10	-0,021
676,30	0,041
676,49	-0,034
676,69	0,154
676,88	0,132
677,08	0,255
677,27	0,163
677,47	0,085
677,66	0,265
677,86	0,218
678,05	0,147
678,24	0,203
678,44	0,537
678,63	0,224
678,83	0,198
679,02	0,184
679,22	0,358
679,41	0,196
679,61	-0,012
679,80	0,260
680,00	-0,012
680,19	0,404
680,39	0,244
680,58	0,250
680,78	0,207
680,97	0,176
681,17	0,243
681,36	0,023
681,56	0,213
681,75	0,101
681,94	0,033
682,14	0,328
682,33	0,098
682,53	0,016
682,72	0,108
682,92	0,427
683,11	0,121
683,31	0,178
683,50	0,131
683,69	-0,015
683,89	0,087
684,08	0,061
684,28	-0,199
684,47	0,040
684,67	-0,089
684,86	0,183
685,06	0,010
685,25	0,197
685,44	0,005
685,64	0,280
685,83	0,142
686,03	0,047
686,22	0,065
686,42	0,000
686,61	0,127
686,80	0,055
687,00	0,104
687,19	0,133
687,39	0,156
687,58	0,040
687,77	0,135
687,97	0,148
688,16	0,313
688,36	0,083
688,55	0,009
688,74	-0,047
688,94	0,120
689,13	0,193
689,33	0,133
689,52	0,190
689,71	0,041
689,91	0,000
690,10	0,126
690,30	-0,105
690,49	0,060
690,68	0,274
690,88	-0,012
691,07	0,095
691,27	-0,078
691,46	0,213
691,65	-0,012
691,85	0,134
692,04	-0,071
692,23	-0,063
692,43	0,028
692,62	0,267
692,82	0,196
693,01	-0,072
693,20	0,133
693,40	0,056
693,59	-0,057
693,78	0,090
693,98	0,159
694,17	-0,042
694,36	0,361
694,56	0,046
694,75	0,043
694,94	0,179
695,14	0,048
695,33	0,233
695,53	0,311
695,72	0,101
695,91	-0,009
696,11	-0,052
696,30	0,159
696,49	0,333
696,69	0,218
696,88	0,036
697,07	0,104
697,27	0,096
697,46	0,242
697,65	-0,045
697,85	-0,181
698,04	-0,006
698,23	0,061
698,43	0,250
698,62	-0,122
698,81	0,197
699,01	0,239
699,20	0,014
699,39	0,108
699,58	0,173
699,78	-0,184
699,97	0,314
700,16	0,218
700,36	0,292
700,55	0,216
700,74	0,525
700,94	0,063
701,13	0,095
701,32	-0,204
701,52	0,448
701,71	0,471
701,90	0,427
702,09	0,423
702,29	0,706
702,48	-0,125
702,67	0,868
702,87	1,022
703,06	0,814
703,25	0,909
703,44	0,309
703,64	0,498
703,83	0,645
704,02	0,634
704,22	-0,015
704,41	0,619
704,60	0,592
704,79	0,256
704,99	1,473
705,18	1,016
705,37	0,672
705,56	0,778
705,76	1,174
705,95	1,066
706,14	-0,097
706,33	-0,059
706,53	0,770
706,72	0,481
706,91	1,450
707,11	0,107
707,30	0,314
707,49	0,890
707,68	-0,023
707,88	0,704
708,07	-0,098
708,26	0,224
708,45	-0,545
708,64	1,584
708,84	0,296
709,03	1,135
709,22	-0,028
709,41	1,845
709,61	0,812
709,80	1,187
709,99	0,901
710,18	1,295
710,38	0,440
710,57	-0,858
710,76	0,229
710,95	1,217
711,14	1,655
711,34	0,172
711,53	2,520
711,72	0,393
711,91	0,701
712,11	2,491
712,30	0,462
712,49	1,417
712,68	0,040
712,87	1,102
713,07	4,055
713,26	0,833
713,45	0,166
713,64	0,960
713,83	0,000
714,03	0,806
714,22	1,538
714,41	2,328
714,60	3,322
714,79	-1,488
714,99	1,705
715,18	3,953
715,37	1,672
715,56	1,747
715,75	1,401
715,94	4,528
716,14	3,790
716,33	0,468
716,52	2,149
716,71	3,560
716,90	-0,277
717,10	1,726
717,29	2,082
717,48	0,389
717,67	0,282
717,86	2,710
718,05	2,927
718,24	3,508
718,44	2,804
718,63	1,217
718,82	2,498
719,01	1,743
719,20	2,794
719,39	3,660
719,59	-1,758
719,78	1,670
719,97	1,138
720,16	2,554
720,35	0,138
720,54	-0,839
720,73	5,666
720,93	1,229
721,12	0,647
721,31	2,114
721,50	4,073
721,69	1,338
721,88	4,992
722,07	3,676
722,27	3,435
722,46	4,798
722,65	5,401
722,84	5,161
723,03	0,617
723,22	3,223
723,41	2,326
723,60	3,925
723,79	6,188
723,99	4,275
724,18	4,311
724,37	-0,454
724,56	0,170
724,75	0,957
724,94	5,321
725,13	1,030
725,32	2,970
725,51	-0,093
725,71	2,484
725,90	5,198
726,09	2,100
726,28	4,004
726,47	-2,367
726,66	5,866
726,85	3,981
727,04	1,937
727,23	6,877
727,42	5,355
727,61	3,395
727,81	-1,622
728,00	2,807
728,19	4,875
728,38	-1,528
728,57	2,813
728,76	4,292
728,95	4,167
729,14	-0,758
729,33	3,656
729,52	4,387
729,71	0,542
729,90	7,143
730,09	4,918
730,28	5,325
730,48	3,950
730,67	2,344
730,86	6,501
731,05	3,034
731,24	-3,902
731,43	9,175
731,62	3,551
731,81	0,908
732,00	7,186
732,19	1,683
732,38	5,641
732,57	4,156
732,76	1,778
732,95	2,059
733,14	-0,287
733,33	-7,540
733,52	4,494
733,71	8,178
733,90	1,554
734,09	2,838
734,28	3,018
734,47	6,111
734,66	1,070
734,85	6,143
735,04	3,566
735,23	6,443
735,42	4,235
735,61	5,685
735,81	5,030
736,00	0,142
736,19	4,103
736,38	1,796
736,57	11,111
736,76	3,066
736,95	2,548
737,14	5,582
737,33	9,477
737,52	2,769
737,71	0,820
737,90	9,428
738,09	6,697
738,28	7,175
738,47	7,299
738,66	6,731
738,85	11,411
739,04	9,434
739,22	-3,679
739,41	-0,919
739,60	0,341
739,79	1,439
739,98	0,717
740,17	7,850
740,36	5,967
740,55	11,306
740,74	8,748
740,93	2,868
741,12	0,179
741,31	2,289
741,50	1,323
741,69	12,389
741,88	5,731
742,07	13,768
742,26	6,476
742,45	11,066
742,64	4,570
742,83	9,027
743,02	-4,842
743,21	12,455
743,40	1,035
743,59	10,110
743,78	3,914
743,97	6,538
744,16	7,283
744,34	-2,331
744,53	12,990
744,72	12,526
744,91	-2,101
745,10	2,516
745,29	6,855
745,48	3,864
745,67	12,301
745,86	6,843
746,05	3,791
746,24	3,918
746,43	8,137
746,62	18,750
746,81	10,337
747,00	7,221
747,18	5,447
747,37	12,842
747,56	13,412
747,75	-9,606
747,94	16,748
748,13	15,660
748,32	15,952
748,51	7,868
748,70	15,198
748,89	6,089
749,08	1,163
749,26	19,383
749,45	7,239
749,64	10,327
749,83	10,112
750,02	12,500
750,21	-1,781
750,40	15,992
750,59	-5,362
750,78	4,738
750,96	-3,591
751,15	6,542
751,34	-5,398
751,53	9,290
751,72	23,944
751,91	9,585
752,10	2,094
752,29	12,533
752,47	4,011
752,66	16,825
752,85	19,399
753,04	-1,676
753,23	1,858
753,42	12,129
753,61	10,345
753,80	0,000
753,98	23,232
754,17	11,246
754,36	4,194
754,55	10,843
754,74	6,494
754,93	16,529
755,12	8,605
755,30	12,013
755,49	11,919
755,68	17,178
755,87	8,580
756,06	-0,694
756,25	10,942
756,43	-1,342
756,62	15,839
756,81	4,305
757,00	17,105
757,19	2,083
757,38	-0,772
757,56	3,600
757,75	-0,683
757,94	-3,042
758,13	3,425
758,32	11,869
758,51	-0,337
758,69	0,386
758,88	11,111
759,07	23,054
759,26	10,954
759,45	8,070
759,63	-0,866
759,82	16,491
760,01	10,623
760,20	27,358
760,39	26,183
760,57	19,164
760,76	25,087
760,95	25,347
761,14	27,007
761,33	19,032
761,51	11,429
761,70	21,190
761,89	-4,444
762,08	15,613
762,27	8,303
762,45	10,870
762,64	-14,070
762,83	30,677
763,02	10,870
763,21	-19,000
763,39	9,091
763,58	3,717
763,77	19,409
763,96	7,171
764,14	7,083
764,33	8,571
764,52	7,589
764,71	16,393
764,89	25,893
765,08	5,911
765,27	5,532
765,46	17,489
765,65	5,098
765,83	20,362
766,02	6,190
766,21	-12,022
766,40	14,008
766,58	5,291
766,77	15,138
766,96	10,163
767,15	11,345
767,33	9,662
767,52	7,860
767,71	11,404
767,90	13,568
768,08	8,383
768,27	19,919
768,46	38,596
768,64	11,111
768,83	13,725
769,02	14,778
769,21	27,083
769,39	10,000
769,58	17,316
769,77	32,979
769,96	19,369
770,14	16,940
770,33	31,308
770,52	23,741
770,70	5,405
770,89	34,054
771,08	11,446
771,27	1,579
771,45	34,118
771,64	33,333
771,83	12,745
772,01	32,990
772,20	17,413
772,39	5,063
772,57	13,930
772,76	10,135
772,95	15,517
773,14	38,776
773,32	23,164
773,51	10,119
773,70	29,496
773,88	-14,194
774,07	29,442
774,26	2,419
774,44	39,098
774,63	21,557
774,82	16,234
775,00	22,430
775,19	-0,595
775,38	17,021
775,56	36,025
775,75	18,681
775,94	15,833
776,12	26,797
776,31	3,759
776,50	-2,740
776,68	22,043
776,87	44,019
777,06	41,509
777,24	10,084
777,43	27,807
777,62	35,955
777,80	32,075
777,99	35,000
778,18	35,632
778,36	25,424
778,55	0,000
778,74	25,781
778,92	25,926
779,11	38,182
779,29	0,000
779,48	26,950
779,67	65,766
779,85	1,754
780,04	41,304
780,23	25,000
780,41	41,525
780,60	16,107
780,79	39,516
780,97	24,183
781,16	28,723
781,34	28,378
781,53	47,321
781,72	24,324
781,90	47,904
782,09	53,488
782,28	39,456
782,46	31,429
782,65	29,577
782,83	17,610
783,02	41,228
783,21	24,812
783,39	60,504
783,58	18,261
783,76	24,490
783,95	62,676
784,14	47,368
784,32	-2,353
784,51	58,108
784,69	6,250
784,88	29,907
785,06	47,020
785,25	34,043
785,44	0,000
785,62	13,571
785,81	36,111
785,99	23,308
786,18	25,225
786,37	32,967
786,55	44,444
786,74	50,000
786,92	32,168
787,11	18,750
787,29	22,321
787,48	51,613
787,67	34,906
787,85	24,051
788,04	23,423
788,22	-6,931
788,41	37,795
788,59	13,158
788,78	31,868
788,96	28,099
789,15	27,500
789,34	32,692
789,52	24,194
789,71	56,115
789,89	29,870
790,08	13,750
790,26	49,045
790,45	55,556
790,63	31,034
790,82	31,538
791,00	-11,504
791,19	16,000
791,38	26,667
791,56	16,364
791,75	-34,722
791,93	84,000
792,12	47,826
792,30	35,036
792,49	15,152
792,67	25,000
792,86	28,000
793,04	46,296
793,23	29,474
793,41	28,986
793,60	32,639
793,78	35,238
793,97	43,750
794,15	61,654
794,34	6,667
794,52	-3,226
794,71	38,760
794,89	22,727
795,08	47,200
795,26	33,333
795,45	58,333
795,63	20,968
795,82	38,462
796,00	76,000
796,19	51,220
796,37	35,878
796,56	28,155
796,74	-24,211
796,93	68,182
797,11	44,578
797,30	43,333
797,48	22,656
797,67	30,081
797,85	61,538
798,04	26,271
798,22	71,795
798,41	-2,885
798,59	18,095
798,77	14,458
798,96	43,210
799,14	53,226
799,33	30,275
799,51	84,722
799,70	56,154
799,88	55,963
800,07	67,176
800,25	22,892
800,44	51,852
800,62	55,556
800,80	31,690
800,99	93,151
801,17	40,517
801,36	64,286
801,54	16,000
801,73	23,158
801,91	42,149
802,10	-12,941
802,28	60,800
802,46	32,895
802,65	43,885
802,83	54,667
803,02	58,871
803,20	60,241
803,39	67,816
803,57	47,244
803,75	43,902
803,94	35,714
804,12	64,138
804,31	-46,377
804,49	27,200
804,67	16,176
804,86	35,398
805,04	1,205
805,23	66,372
805,41	31,667
805,59	37,671
805,78	64,000
805,96	95,181
806,15	48,515
806,33	73,684
806,51	37,333
806,70	33,083
806,88	27,907
807,07	31,532
807,25	5,495
807,43	57,143
807,62	42,478
807,80	36,190
807,99	30,769
808,17	35,433
808,35	4,000
808,54	62,319
808,72	26,126
808,90	16,438
809,09	38,043
809,27	42,667
809,46	49,451
809,64	71,951
809,82	45,033
810,01	47,656
810,19	20,202
810,37	14,844
810,56	83,333
810,74	75,325
810,92	34,667
811,11	8,772
811,29	32,075
811,48	32,308
811,66	21,348
811,84	-3,297
812,03	-4,098
812,21	53,509
812,39	56,522
812,58	63,158
812,76	44,604
812,94	83,133
813,13	18,085
813,31	18,000
813,49	42,593
813,68	35,455
813,86	-10,112
814,04	38,843
814,23	22,892
814,41	3,371
814,59	43,689
814,78	11,029
814,96	17,610
815,14	28,972
815,33	20,155
815,51	28,346
815,69	9,524
815,87	35,644
816,06	32,174
816,24	34,161
816,42	44,853
816,61	40,881
816,79	48,276
816,97	34,091
817,16	17,751
817,34	45,238
817,52	37,190
817,70	52,475
817,89	40,000
818,07	14,384
818,25	-15,306
818,44	66,667
818,62	35,659
818,80	41,353
818,98	26,115
819,17	26,050
819,35	26,596
819,53	35,075
819,72	38,608
819,90	52,713
820,08	0,855
820,26	30,172
820,45	6,040
820,63	79,464
820,81	12,800
820,99	40,426
821,18	30,612
821,36	67,089
821,54	42,759
821,73	38,333
821,91	50,000
822,09	16,129
822,27	3,871
822,46	6,618
822,64	18,400
822,82	37,017
823,00	1,105
823,19	21,978
823,37	46,667
823,55	40,341
823,73	23,448
823,91	46,377
824,10	30,645
824,28	41,206
824,46	6,796
824,64	28,947
824,83	40,994
825,01	26,000
825,19	50,000
825,37	37,391
825,56	33,491
825,74	35,714
825,92	33,121
826,10	28,409
826,28	21,429
826,47	31,053
826,65	46,809
826,83	17,241
827,01	46,821
827,19	44,643
827,38	34,568
827,56	28,977
827,74	29,609
827,92	16,860
828,10	22,436
828,29	36,686
828,47	49,593
828,65	30,000
828,83	-14,545
829,01	25,543
829,20	41,209
829,38	46,591
829,56	22,283
829,74	42,138
829,92	24,603
830,10	30,460
830,29	25,628
830,47	17,085
830,65	-5,488
830,83	6,696
831,01	43,452
831,20	43,204
831,38	21,531
831,56	21,860
831,74	35,071
831,92	34,868
832,10	11,429
832,29	-2,703
832,47	-6,742
832,65	17,647
832,83	17,371
833,01	20,500
833,19	4,072
833,37	27,149
833,56	12,236
833,74	19,118
833,92	5,556
834,10	22,407
834,28	15,612
834,46	12,217
834,64	24,537
834,83	16,364
835,01	43,568
835,19	22,400
835,37	9,917
835,55	8,333
835,73	22,167
835,91	18,450
836,09	-8,365
836,28	24,723
836,46	1,600
836,64	25,940
836,82	-4,072
837,00	25,000
837,18	23,048
837,36	41,036
837,54	15,000
837,72	10,345
837,91	17,910
838,09	19,522
838,27	24,333
838,45	13,121
838,63	7,353
838,81	5,907
838,99	18,548
839,17	20,946
839,35	17,376
839,53	12,982
839,72	1,128
839,90	20,619
840,08	27,077
840,26	23,413
840,44	28,097
840,62	10,000
840,80	17,347
840,98	4,706
841,16	16,350
841,34	1,338
841,52	11,927
841,70	16,923
841,89	19,355
842,07	8,777
842,25	26,437
842,43	6,466
842,61	23,860
842,79	4,520
842,97	-0,326
843,15	18,152
843,33	11,041
843,51	9,639
843,69	27,350
843,87	13,060
844,05	12,462
844,23	13,814
844,41	-1,254
844,59	10,375
844,77	8,964
844,95	19,075
845,13	13,846
845,31	5,814
845,50	13,351
845,68	9,646
845,86	2,586
846,04	23,743
846,22	12,534
846,40	20,968
846,58	9,972
846,76	14,516
846,94	4,239
847,12	13,472
847,30	8,505
847,48	8,359
847,66	14,532
847,84	12,568
848,02	14,251
848,20	6,977
848,38	14,815
848,56	10,511
848,74	20,286
848,92	1,496
849,10	4,750
849,28	5,466
849,46	13,333
849,64	7,852
849,82	8,333
850,00	23,598
850,18	20,426
850,36	4,415
850,54	5,764
850,72	21,851
850,90	13,913
851,08	9,409
851,26	11,379
851,44	8,850
851,62	5,349
851,80	13,216
851,98	9,231
852,16	14,894
852,34	5,979
852,52	6,473
852,70	-3,645
852,87	7,991
853,05	0,195
853,23	17,526
853,41	12,698
853,59	8,921
853,77	13,294
853,95	11,814
854,13	8,407
854,31	10,267
854,49	8,782
854,67	1,512
854,85	4,762
855,03	9,820
855,21	5,684
855,39	3,219
855,57	10,394
855,75	13,869
855,93	4,902
856,11	18,762
856,28	4,613
856,46	14,947
856,64	12,571
856,82	8,247
857,00	5,477
857,18	15,884
857,36	9,949
857,54	7,439
857,72	8,246
857,90	7,749
858,08	4,510
858,26	0,207
858,44	-0,390
858,61	4,878
858,79	11,592
858,97	8,850
859,15	6,811
859,33	12,031
859,51	3,685
859,69	-2,862
859,87	9,390
860,05	-3,020
860,23	4,058
860,40	9,253
860,58	5,410
860,76	2,698
860,94	10,407
861,12	4,000
861,30	7,064
861,48	12,143
861,66	12,698
861,84	6,129
862,01	8,247
862,19	8,814
862,37	8,472
862,55	11,671
862,73	6,502
862,91	2,203
863,09	6,696
863,27	8,333
863,44	7,334
863,62	5,571
863,80	1,969
863,98	4,896
864,16	-2,746
864,34	8,062
864,52	7,507
864,69	5,409
864,87	-1,737
865,05	6,667
865,23	9,150
865,41	5,780
865,59	0,673
865,76	6,856
865,94	10,078
866,12	5,290
866,30	9,116
866,48	12,118
866,66	4,032
866,83	9,542
867,01	7,545
867,19	7,152
867,37	0,388
867,55	2,151
867,73	4,688
867,90	3,832
868,08	2,056
868,26	5,270
868,44	2,696
868,62	4,177
868,79	4,926
868,97	4,282
869,15	1,160
869,33	6,716
869,51	5,807
869,69	0,244
869,86	5,614
870,04	8,506
870,22	6,955
870,40	4,795
870,57	2,422
870,75	5,746
870,93	6,316
871,11	4,329
871,29	7,763
871,46	-0,331
871,64	6,799
871,82	3,552
872,00	8,230
872,18	1,793
872,35	8,741
872,53	1,754
872,71	3,571
872,89	4,034
873,06	4,465
873,24	5,432
873,42	5,655
873,60	4,215
873,77	1,022
873,95	1,138
874,13	-1,691
874,31	-0,206
874,49	5,421
874,66	4,323
874,84	4,313
875,02	8,066
875,20	9,360
875,37	3,479
875,55	6,489
875,73	2,710
875,91	0,093
876,08	2,925
876,26	0,972
876,44	6,342
876,61	5,802
876,79	6,912
876,97	-1,004
877,15	2,996
877,32	1,364
877,50	1,325
877,68	1,114
877,86	1,529
878,03	4,797
878,21	1,663
878,39	3,609
878,56	-0,826
878,74	4,128
878,92	0,484
879,10	1,998
879,27	4,857
879,45	3,323
879,63	0,466
879,80	5,389
879,98	-0,527
880,16	3,421
880,34	4,422
880,51	-0,473
880,69	1,042
880,87	2,550
881,04	4,776
881,22	5,677
881,40	6,858
881,57	3,722
881,75	3,463
881,93	5,989
882,10	3,303
882,28	3,379
882,46	4,726
882,63	1,325
882,81	4,055
882,99	3,194
883,16	1,051
883,34	1,270
883,52	2,347
883,69	4,494
883,87	-0,716
884,05	3,289
884,22	2,218
884,40	5,241
884,58	-0,322
884,75	4,688
884,93	3,406
885,11	2,668
885,28	0,561
885,46	0,800
885,64	2,905
885,81	2,002
885,99	0,496
886,17	3,492
886,34	2,899
886,52	1,923
886,70	4,878
886,87	1,958
887,05	4,938
887,22	0,553
887,40	3,352
887,58	1,229
887,75	2,189
887,93	1,815
888,11	2,272
888,28	2,495
888,46	2,743
888,63	1,178
888,81	3,283
888,99	3,535
889,16	4,511
889,34	0,149
889,51	3,002
889,69	2,621
889,87	3,579
890,04	1,773
890,22	1,365
890,39	1,737
890,57	4,307
890,75	0,842
890,92	0,382
891,10	0,844
891,27	2,411
891,45	2,784
891,63	3,184
891,80	2,526
891,98	1,747
892,15	2,107
892,33	1,569
892,51	3,006
892,68	2,491
892,86	2,508
893,03	2,654
893,21	3,625
893,38	-0,091
893,56	2,206
893,74	1,215
893,91	3,087
894,09	4,410
894,26	2,997
894,44	2,465
894,61	1,063
894,79	0,722
894,96	1,536
895,14	3,051
895,32	3,993
895,49	2,301
895,67	1,351
895,84	1,016
896,02	2,105
896,19	0,929
896,37	2,162
896,54	2,227
896,72	1,948
896,89	0,526
897,07	3,275
897,25	2,771
897,42	2,227
897,60	4,846
897,77	2,494
897,95	3,312
898,12	3,747
898,30	2,445
898,47	0,854
898,65	1,527
898,82	1,593
899,00	1,062
899,17	2,837
899,35	0,867
899,52	3,305
899,70	2,900
899,87	1,298
900,05	2,435
900,22	2,857
900,40	1,172
900,57	0,668
900,75	2,465
900,92	1,965
901,10	2,866
901,27	0,407
901,45	3,927
901,62	3,784
901,80	1,642
901,97	2,122
902,15	2,708
902,32	2,767
902,50	0,323
902,67	3,048
902,85	3,316
903,02	2,220
903,20	2,069
903,37	1,601
903,54	2,909
903,72	1,760
903,89	2,563
904,07	0,998
904,24	3,589
904,42	1,796
904,59	2,607
904,77	1,663
904,94	1,678
905,12	1,063
905,29	0,632
905,47	2,370
905,64	2,651
905,81	0,418
905,99	-0,070
906,16	1,387
906,34	2,020
906,51	2,176
906,69	2,864
906,86	1,776
907,03	1,547
907,21	1,726
907,38	0,749
907,56	2,399
907,73	1,839
907,91	2,094
908,08	1,805
908,25	2,195
908,43	0,705
908,60	-0,809
908,78	1,049
908,95	3,197
909,13	2,899
909,30	1,729
909,47	0,294
909,65	1,883
909,82	2,285
910,00	2,013
910,17	1,438
910,34	1,355
910,52	0,903
910,69	0,158
910,87	2,569
911,04	1,635
911,21	3,816
911,39	-0,881
911,56	2,646
911,73	1,292
911,91	1,388
912,08	2,293
912,26	0,151
912,43	2,279
912,60	0,388
912,78	1,306
912,95	0,090
913,13	1,328
913,30	2,284
913,47	2,462
913,65	1,995
913,82	1,642
913,99	0,553
914,17	1,817
914,34	0,201
914,51	2,372
914,69	1,090
914,86	3,053
915,03	2,103
915,21	0,947
915,38	2,255
915,56	0,695
915,73	0,370
915,90	2,034
916,08	0,736
916,25	0,697
916,42	1,437
916,60	1,501
916,77	2,151
916,94	1,363
917,12	0,591
917,29	1,544
917,46	1,949
917,64	1,113
917,81	0,931
917,98	0,000
918,16	1,686
918,33	1,377
918,50	0,995
918,67	1,484
918,85	0,842
919,02	1,347
919,19	0,990
919,37	0,576
919,54	1,869
919,71	2,022
919,89	1,407
920,06	1,409
920,23	1,407
920,41	0,823
920,58	1,118
920,75	1,616
920,92	0,406
921,10	0,770
921,27	0,700
921,44	2,314
921,62	1,519
921,79	1,787
921,96	1,447
922,13	1,677
922,31	1,240
922,48	-0,025
922,65	1,264
922,82	0,469
923,00	1,883
923,17	0,636
923,34	0,571
923,52	0,772
923,69	1,641
923,86	2,165
924,03	0,896
924,21	0,709
924,38	1,518
924,55	0,397
924,72	0,189
924,90	0,373
925,07	1,182
925,24	0,849
925,41	1,576
925,59	0,480
925,76	0,323
925,93	1,363
926,10	0,998
926,28	0,794
926,45	-0,182
926,62	0,271
926,79	1,366
926,96	2,517
927,14	2,620
927,31	0,817
927,48	1,148
927,65	1,319
927,83	1,898
928,00	1,400
928,17	1,651
928,34	1,388
928,51	1,008
928,69	0,620
928,86	1,115
929,03	1,296
929,20	1,507
929,37	0,872
929,55	1,876
929,72	2,115
929,89	0,691
930,06	1,064
930,23	1,966
930,41	0,770
930,58	1,473
930,75	0,726
930,92	1,951
931,09	2,027
931,27	1,733
931,44	1,514
931,61	3,127
931,78	1,907
931,95	2,449
932,12	2,766
932,30	3,193
932,47	1,444
932,64	2,375
932,81	2,941
932,98	3,019
933,16	3,063
933,33	3,161
933,50	3,726
933,67	4,991
933,84	4,048
934,01	3,664
934,18	4,157
934,36	4,396
934,53	4,769
934,70	5,792
934,87	5,606
935,04	6,740
935,21	5,978
935,38	5,650
935,56	6,955
935,73	7,685
935,90	7,062
936,07	7,636
936,24	8,150
936,41	8,026
936,58	8,816
936,76	9,963
936,93	9,313
937,10	11,270
937,27	10,721
937,44	11,452
937,61	12,359
937,78	12,409
937,95	12,758
938,13	11,910
938,30	12,874
938,47	14,042
938,64	13,943
938,81	13,854
938,98	13,821
939,15	15,564
939,32	15,692
939,49	15,947
939,66	15,885
939,84	16,276
940,01	17,143
940,18	17,551
940,35	16,540
940,52	18,225
940,69	16,795
940,86	19,022
941,03	17,189
941,20	18,797
941,37	18,966
941,54	20,718
941,71	20,795
941,89	20,679
942,06	20,876
942,23	21,919
942,40	21,848
942,57	22,587
942,74	21,620
942,91	23,171
943,08	21,833
943,25	24,745
943,42	23,518
943,59	25,714
943,76	25,484
943,93	24,664
944,10	23,762
944,27	25,642
944,44	26,060
944,61	26,426
944,79	27,995
944,96	28,322
945,13	27,430
945,30	27,392
945,47	27,823
945,64	29,556
945,81	30,027
945,98	29,685
946,15	28,991
946,32	30,220
946,49	30,149
946,66	31,583
946,83	28,783
947,00	29,466
947,17	29,728
947,34	29,849
947,51	29,266
947,68	28,368
947,85	28,768
948,02	28,665
948,19	28,638
948,36	27,707
948,53	29,083
948,70	27,663
948,87	29,824
949,04	29,624
949,21	27,969
949,38	29,628
949,55	28,352
949,72	27,595
949,89	28,576
950,06	27,451
950,23	26,640
950,40	27,704
950,57	27,462
950,74	26,621
950,91	27,036
951,08	26,573
951,25	26,182
951,42	25,998
951,59	26,140
951,76	25,667
951,93	28,996
952,10	26,683
952,27	27,503
952,44	27,745
952,61	26,822
952,77	27,412
952,94	25,851
953,11	26,026
953,28	28,200
953,45	27,400
953,62	27,528
953,79	26,765
953,96	26,118
954,13	24,006
954,30	27,044
954,47	27,082
954,64	26,358
954,81	26,596
954,98	24,551
955,15	22,310
955,32	25,305
955,49	26,252
955,65	25,048
955,82	22,776
955,99	26,041
956,16	23,025
956,33	22,607
956,50	23,599
956,67	19,099
956,84	22,968
957,01	20,522
957,18	20,304
957,35	21,040
957,52	17,330
957,68	20,957
957,85	21,295
958,02	19,491
958,19	21,649
958,36	19,757
958,53	16,431
958,70	18,326
958,87	16,267
959,04	17,894
959,21	19,580
959,37	20,244
959,54	16,859
959,71	19,168
959,88	12,558
960,05	18,743
960,22	19,119
960,39	18,593
960,56	17,775
960,72	15,789
960,89	14,765
961,06	16,898
961,23	16,972
961,40	12,335
961,57	12,939
961,74	21,966
961,90	20,029
962,07	18,984
962,24	14,928
962,41	19,483
962,58	17,893
962,75	16,410
962,92	11,930
963,08	12,083
963,25	16,135
963,42	20,482
963,59	12,526
963,76	15,706
963,93	17,515
964,10	11,086
964,26	20,000
964,43	8,372
964,60	17,633
964,77	16,331
964,94	20,988
965,10	28,134
965,27	6,704
965,44	20,635
965,61	25,342
965,78	23,292
965,95	23,134
966,11	13,030
966,28	12,849
966,45	15,033
966,62	19,861
966,79	18,771
966,95	20,641
967,12	35,556
967,29	29,630
967,46	27,046
967,63	41,961
967,79	54,362
967,96	30,275
968,13	37,619
968,30	42,798
968,47	27,692
968,63	38,725
968,80	25,670
968,97	33,526
969,14	22,034
969,31	35,204
969,47	38,043
969,64	25,275
969,81	24,516
969,98	46,316
970,14	12,903
970,31	29,560
970,48	39,597
970,65	41,322
970,81	16,783
970,98	39,583
971,15	64,242
971,32	40,909
971,48	61,310
971,65	47,020
971,82	38,182
971,99	60,759
972,15	43,023
972,32	54,861
972,49	45,902
972,66	52,893
972,82	49,315
972,99	18,750
973,16	73,510
973,33	30,370
973,49	51,220
973,66	22,857
973,83	58,025
974,00	41,772
974,16	83,636
974,33	14,667
974,50	66,667
974,67	54,762
974,83	66,327
975,00	54,545
975,17	79,032
975,33	93,103
975,50	52,459
975,67	21,154
975,84	3,659
976,00	98,684
976,17	-43,478
976,34	65,882
976,50	47,253
976,67	77,381
976,84	187,500
977,00	67,949
977,17	71,111
977,34	146,154
977,50	72,619
977,67	105,882
977,84	144,068
978,01	100,000
978,17	24,138
978,34	18,519
978,51	144,000
978,67	85,714
978,84	63,636
979,01	26,316
979,17	35,714
979,34	110,870
979,51	150,000
979,67	225,000
979,84	38,983
980,01	57,692
980,17	217,647
980,34	19,178
980,51	488,889
980,67	48,889
980,84	17,143
981,01	82,353
981,17	73,529
981,34	87,143
981,50	121,053
981,67	169,048
981,84	67,857
982,00	3000,000
982,17	92,188
982,34	126,829
982,50	0,000
982,67	-100,000
982,84	300,000
983,00	140,741
983,17	-528,571
983,33	444,444
983,50	95,122
983,67	97,101
983,83	395,238
984,00	178,261
984,17	588,889
984,33	-50,000
984,50	86,486
984,66	300,000
984,83	-212,500
985,00	284,615
985,16	158,065
985,33	1850,000
985,49	101,163
985,66	150,000
985,83	-1366,667
985,99	344,444
986,16	168,421
986,32	101,370
986,49	-540,000
986,66	880,000
986,82	103,030
986,99	-0,000
987,15	221,212
987,32	258,824
987,49	128,571
987,65	-117,391
987,82	-165,000
987,98	143,939
988,15	42,857
988,31	-11,429
988,48	115,686
988,65	320,000
988,81	138,182
988,98	267,568
989,14	210,000
989,31	91,525
989,47	57,143
989,64	455,556
989,80	97,872
989,97	150,909
990,14	714,286
990,30	-725,000
990,47	-29,167
990,63	265,789
990,80	1083,333
990,96	633,333
991,13	126,667
991,29	100,000
991,46	141,667
991,62	0,000
991,79	-80,000
991,95	152,941
992,12	983,333
992,29	-166,667
992,45	166,667
992,62	39,286
992,78	-683,333
992,95	238,710
993,11	975,000
993,28	-100,000
993,44	-10,345
993,61	147,368
993,77	0,000
993,94	266,667
994,10	585,714
994,27	-2,632
994,43	193,750
994,60	685,714
994,76	100,000
994,93	-420,000
995,09	-243,750
995,26	275,000
995,42	300,000
995,59	186,667
995,75	-308,333
995,92	-385,714
996,08	-440,000
996,25	190,909
996,41	1720,000
996,58	284,000
996,74	-650,000
996,91	95,161
997,07	252,000
997,23	107,843
997,40	1066,667
997,56	-1533,333
997,73	317,391
997,89	1060,000
998,06	107,018
998,22	176,596
998,39	148,980
998,55	468,421
998,72	-5500,000
998,88	106,000
999,05	313,333
999,21	388,235
999,37	241,860
999,54	187,097
999,70	66,667
999,87	583,333
1000,03	276,667
1000,20	342,857
1000,36	-625,000
1000,52	1500,000
1000,69	284,000
1000,85	-333,333
1001,02	204,762
1001,18	420,000
1001,35	0,000
1001,51	192,857
1001,67	30,000
1001,84	148,780
1002,00	-136,364
1002,17	1375,000
1002,33	-475,000
1002,50	408,333
1002,66	487,500
1002,82	168,293
1002,99	-181,818
1003,15	-7500,000
1003,32	-7,143
1003,48	-1133,333
1003,64	152,174
1003,81	-42,105
1003,97	111,594
1004,14	-67,273
1004,30	272,727
1004,46	-6200,000
1004,63	-207,692
1004,79	118,919
1004,95	-680,000
1005,12	-69,231
1005,28	158,333
1005,45	-700,000
1005,61	61,538
1005,77	-871,429
1005,94	113,043
1006,10	-290,000
1006,26	-166,667
1006,43	148,485
1006,59	351,613
1006,76	-168,000
1006,92	269,565
1007,08	72,727
1007,25	158,333
1007,41	227,273
1007,57	-429,412
1007,74	226,087
1007,90	-242,857
1008,06	-0,000
1008,23	-10,526
1008,39	216,667
1008,55	101,176
1008,72	-650,000
1008,88	-171,429
1009,04	-300,000
1009,21	-18,750
1009,37	441,935
1009,53	-280,000
1009,70	-0,000
1009,86	147,368
1010,02	161,364
1010,19	453,333
1010,35	4900,000
1010,51	285,714
1010,68	300,000
1010,84	375,000
1011,00	178,571
1011,17	1500,000
1011,33	273,077
1011,49	312,500
1011,66	134,375
1011,82	-558,333
1011,98	386,667
1012,14	446,154
1012,31	179,545
1012,47	-685,714
1012,63	2000,000
1012,80	211,111
1012,96	52,778
1013,12	-44,444
1013,29	220,833
1013,45	5,882
1013,61	-880,000
1013,77	-688,889
1013,94	154,167
1014,10	2800,000
1014,26	-50,000
1014,43	271,053
1014,59	0,000
1014,75	390,000
1014,91	194,286
1015,08	207,692
1015,24	253,333
1015,40	346,667
1015,56	417,647
1015,73	234,694
1015,89	311,111
1016,05	208,108
1016,21	262,963
1016,38	157,895
1016,54	-268,000
1016,70	410,526
1016,86	-330,769
1017,03	0,000
1017,19	300,000
1017,35	183,333
1017,51	966,667
1017,68	828,571
1017,84	194,737
1018,00	385,714
1018,16	-350,000
1018,33	527,273
1018,49	514,286
1018,65	-195,455
1018,81	-141,463
1018,97	492,308
1019,14	-442,857
1019,30	328,571
1019,46	141,026
1019,62	1900,000
1019,79	-371,429
1019,95	-1125,000
1020,11	380,000
1020,27	115,000
1020,43	-500,000
1020,60	0,000
1020,76	42,647
1020,92	6600,000
1021,08	-53,333
1021,24	-1400,000
1021,41	248,485
1021,57	-162,500
1021,73	0,000
1021,89	-168,182
1022,05	251,429
1022,21	-130,769
1022,38	452,632
1022,54	820,000
1022,70	325,926
1022,86	-1750,000
1023,02	122,222
1023,19	-165,000
1023,35	113,208
1023,51	241,935
1023,67	71,053
1023,83	572,727
1023,99	165,714
1024,16	-49,231
1024,32	312,500
1024,48	175,510
1024,64	-220,000
1024,80	191,667
1024,96	292,308
1025,12	2700,000
1025,29	-0,000
1025,45	141,667
1025,61	1466,667
1025,77	209,524
1025,93	-238,462
1026,09	4000,000
1026,26	-885,714
1026,42	-1475,000
1026,58	190,385
1026,74	542,857
1026,90	263,158
1027,06	-510,000
1027,22	-325,000
1027,38	777,778
1027,55	-164,000
1027,71	337,500
1027,87	132,500
1028,03	59,091
1028,19	-93,939
1028,35	100,000
1028,51	11,290
1028,67	-240,000
1028,83	159,524
1029,00	357,143
1029,16	-573,333
1029,32	129,412
1029,48	1900,000
1029,64	1085,714
1029,80	816,667
1029,96	158,824
1030,12	-262,500
1030,28	700,000
1030,44	150,000
1030,61	178,125
1030,77	-186,957
1030,93	176,744
1031,09	-257,143
1031,25	-466,667
1031,41	-1050,000
1031,57	68,421
1031,73	736,364
1031,89	-3,030
1032,05	1085,714
1032,21	560,000
1032,37	-167,647
1032,53	-40,000
1032,69	-4300,000
1032,86	1433,333
1033,02	12,500
1033,18	-546,154
1033,34	-84,615
1033,50	109,677
1033,66	-122,222
1033,82	128,571
1033,98	-247,059
1034,14	900,000
1034,30	-81,818
1034,46	220,833
1034,62	238,889
1034,78	95,238
1034,94	-19,355
1035,10	-218,182
1035,26	-677,778
1035,42	97,143
1035,58	1360,000
1035,74	-20,000
1035,90	16,667
1036,06	177,358
1036,22	-300,000
1036,38	406,667
1036,54	780,000
1036,70	-1150,000
1036,86	-428,571
1037,02	-1900,000
1037,18	-0,000
1037,34	226,087
1037,50	-506,667
1037,66	-2300,000
1037,82	-64,706
1037,98	128,571
1038,14	-55,172
1038,30	51,923
1038,46	175,000
1038,62	119,355
1038,78	166,667
1038,94	-86,842
1039,10	-208,333
1039,26	36,842
1039,42	-342,857
1039,58	71,698
1039,74	143,750
1039,90	-71,795
1040,06	252,941
>>>>>End Processed Spectral Data<<<<<
