SpectraSuite Data File
++++++++++++++++++++++++++++++++++++
Date: Thu Feb 02 17:24:04 EET 2017
User: optolab
Dark Spectrum Present: Yes
Reference Spectrum Present: Yes
Number of Sampled Component Spectra: 1
Spectrometers: USB4C02475
Integration Time (usec): 100000 (USB4C02475)
Spectra Averaged: 1 (USB4C02475)
Boxcar Smoothing: 0 (USB4C02475)
Correct for Electrical Dark: No (USB4C02475)
Strobe/Lamp Enabled: No (USB4C02475)
Correct for Detector Non-linearity: No (USB4C02475)
Correct for Stray Light: No (USB4C02475)
Number of Pixels in Processed Spectrum: 3648
>>>>>Begin Processed Spectral Data<<<<<
344,91	-150,000
345,13	-150,000
345,35	-150,000
345,57	-200,000
345,79	76,087
346,00	38,235
346,22	-1400,000
346,44	-42,424
346,66	210,638
346,87	239,130
347,09	515,385
347,31	7400,000
347,53	-900,000
347,74	-179,070
347,96	-742,857
348,18	182,353
348,40	576,471
348,61	-125,641
348,83	2400,000
349,05	135,897
349,27	329,412
349,48	-1850,000
349,70	450,000
349,92	276,190
350,14	29,730
350,35	-492,308
350,57	-277,778
350,79	-46,154
351,01	-426,667
351,22	620,000
351,44	466,667
351,66	283,333
351,87	1016,667
352,09	88,158
352,31	230,357
352,53	171,429
352,74	-114,286
352,96	73,684
353,18	53,125
353,40	-687,500
353,61	406,667
353,83	166,667
354,05	175,000
354,26	196,429
354,48	-600,000
354,70	223,810
354,92	255,556
355,13	-58,140
355,35	200,000
355,57	137,500
355,78	228,571
356,00	93,617
356,22	172,727
356,44	144,186
356,65	250,000
356,87	144,444
357,09	220,000
357,30	36,364
357,52	-816,667
357,74	306,452
357,95	200,000
358,17	53,623
358,39	100,000
358,60	66,667
358,82	295,455
359,04	164,103
359,26	45,455
359,47	-507,692
359,69	371,429
359,91	444,000
360,12	265,000
360,34	44,444
360,56	-650,000
360,77	633,333
360,99	441,667
361,21	191,304
361,42	-1050,000
361,64	-159,259
361,86	68,657
362,07	486,667
362,29	202,500
362,51	200,000
362,72	-300,000
362,94	107,407
363,16	77,143
363,37	781,818
363,59	-3400,000
363,81	687,500
364,02	78,667
364,24	154,545
364,46	328,571
364,67	109,524
364,89	476,471
365,11	194,595
365,32	300,000
365,54	250,000
365,76	118,182
365,97	124,390
366,19	56,140
366,41	860,000
366,62	140,000
366,84	166,667
367,05	148,039
367,27	1140,000
367,49	202,564
367,70	266,667
367,92	143,750
368,14	-30,769
368,35	91,176
368,57	54,545
368,79	223,077
369,00	82,051
369,22	327,778
369,43	178,947
369,65	-79,310
369,87	-382,353
370,08	465,000
370,30	492,857
370,51	-145,455
370,73	161,111
370,95	295,000
371,16	128,070
371,38	205,660
371,60	226,667
371,81	105,435
372,03	-1550,000
372,24	-162,500
372,46	2233,333
372,68	135,294
372,89	85,321
373,11	144,186
373,32	100,000
373,54	181,818
373,76	250,000
373,97	209,091
374,19	-210,526
374,40	71,429
374,62	476,471
374,84	179,167
375,05	121,154
375,27	186,486
375,48	111,111
375,70	158,824
375,92	89,286
376,13	363,158
376,35	91,667
376,56	180,000
376,78	61,224
376,99	187,879
377,21	234,375
377,43	69,697
377,64	108,000
377,86	256,250
378,07	102,273
378,29	61,111
378,51	82,143
378,72	-290,909
378,94	30,435
379,15	81,818
379,37	175,000
379,58	33,333
379,80	81,818
380,01	154,000
380,23	95,652
380,45	189,583
380,66	58,333
380,88	210,811
381,09	200,000
381,31	161,538
381,52	278,261
381,74	153,571
381,95	175,000
382,17	232,000
382,39	109,677
382,60	494,118
382,82	303,448
383,03	966,667
383,25	69,136
383,46	408,333
383,68	206,383
383,89	72,727
384,11	104,110
384,32	55,263
384,54	-814,286
384,76	179,412
384,97	205,000
385,19	210,526
385,40	225,000
385,62	209,677
385,83	153,191
386,05	942,857
386,26	284,615
386,48	392,308
386,69	161,111
386,91	310,000
387,12	115,385
387,34	98,305
387,55	177,143
387,77	300,000
387,98	128,571
388,20	160,563
388,41	82,540
388,63	157,143
388,84	147,500
389,06	151,163
389,27	162,500
389,49	108,434
389,70	145,763
389,92	129,545
390,13	133,333
390,35	45,833
390,56	140,625
390,78	54,545
390,99	146,667
391,21	77,273
391,42	47,826
391,64	-180,000
391,85	179,310
392,07	-0,000
392,28	15,385
392,50	1480,000
392,71	1800,000
392,93	64,516
393,14	200,000
393,36	91,026
393,57	150,000
393,79	96,825
394,00	27,397
394,22	90,000
394,43	32,143
394,65	242,857
394,86	212,500
395,08	-375,000
395,29	25,532
395,50	-6700,000
395,72	885,714
395,93	200,000
396,15	14,286
396,36	63,333
396,58	-238,095
396,79	104,651
397,01	154,762
397,22	75,362
397,44	61,702
397,65	36,486
397,87	95,714
398,08	92,308
398,29	366,667
398,51	195,122
398,72	80,435
398,94	132,558
399,15	95,000
399,37	147,826
399,58	128,571
399,80	60,000
400,01	232,353
400,22	214,286
400,44	276,190
400,65	82,192
400,87	2500,000
401,08	79,775
401,30	113,333
401,51	125,455
401,72	109,677
401,94	102,439
402,15	106,122
402,37	125,000
402,58	167,442
402,80	200,000
403,01	88,889
403,22	95,181
403,44	288,889
403,65	79,592
403,87	97,333
404,08	105,769
404,30	78,125
404,51	67,143
404,72	672,727
404,94	103,614
405,15	125,373
405,37	53,846
405,58	200,000
405,79	314,286
406,01	74,815
406,22	41,667
406,44	80,702
406,65	95,238
406,86	110,000
407,08	61,728
407,29	84,000
407,51	77,885
407,72	60,396
407,93	81,013
408,15	21,591
408,36	94,286
408,58	65,833
408,79	25,581
409,00	60,993
409,22	64,706
409,43	57,658
409,64	39,103
409,86	46,591
410,07	34,783
410,29	43,333
410,50	24,603
410,71	45,161
410,93	-6,931
411,14	23,364
411,35	26,389
411,57	31,944
411,78	26,471
412,00	42,667
412,21	26,106
412,42	30,244
412,64	49,444
412,85	16,580
413,06	47,768
413,28	35,686
413,49	34,884
413,70	30,472
413,92	44,286
414,13	34,387
414,34	30,855
414,56	31,915
414,77	23,616
414,98	18,375
415,20	30,824
415,41	28,896
415,63	27,350
415,84	19,945
416,05	7,530
416,27	13,092
416,48	9,242
416,69	1,453
416,91	9,867
417,12	-0,226
417,33	2,709
417,55	15,400
417,76	11,628
417,97	17,790
418,19	4,603
418,40	1,706
418,61	2,744
418,83	9,683
419,04	7,442
419,25	7,656
419,46	12,039
419,68	5,015
419,89	5,534
420,10	5,780
420,32	6,093
420,53	6,205
420,74	6,332
420,96	8,768
421,17	6,271
421,38	3,996
421,60	4,394
421,81	5,706
422,02	0,785
422,23	5,614
422,45	3,636
422,66	6,438
422,87	2,714
423,09	0,601
423,30	5,721
423,51	4,387
423,73	2,428
423,94	4,910
424,15	1,329
424,36	4,011
424,58	4,845
424,79	1,171
425,00	0,310
425,22	1,882
425,43	2,557
425,64	2,420
425,85	0,902
426,07	2,788
426,28	1,335
426,49	1,068
426,71	3,015
426,92	3,356
427,13	1,783
427,34	1,494
427,56	2,710
427,77	0,248
427,98	1,349
428,19	-0,233
428,41	1,664
428,62	3,100
428,83	2,123
429,04	2,979
429,26	1,130
429,47	4,006
429,68	0,218
429,89	1,101
430,11	1,013
430,32	1,240
430,53	1,472
430,74	2,187
430,96	1,217
431,17	1,524
431,38	1,286
431,59	1,073
431,81	0,263
432,02	1,312
432,23	1,743
432,44	1,699
432,66	1,391
432,87	0,930
433,08	0,881
433,29	0,651
433,51	1,197
433,72	1,677
433,93	0,818
434,14	1,157
434,35	0,664
434,57	1,198
434,78	1,599
434,99	0,514
435,20	0,807
435,42	1,011
435,63	0,343
435,84	0,778
436,05	0,215
436,26	0,263
436,48	1,495
436,69	0,960
436,90	0,405
437,11	0,892
437,32	0,672
437,54	0,813
437,75	0,795
437,96	0,707
438,17	0,554
438,38	0,964
438,60	0,922
438,81	0,425
439,02	0,676
439,23	0,945
439,44	0,455
439,66	0,261
439,87	0,465
440,08	0,553
440,29	0,864
440,50	0,798
440,72	0,504
440,93	0,663
441,14	0,585
441,35	0,283
441,56	0,433
441,77	0,547
441,99	0,360
442,20	0,808
442,41	0,565
442,62	0,106
442,83	0,516
443,04	0,378
443,26	0,571
443,47	0,493
443,68	0,159
443,89	0,477
444,10	0,426
444,31	0,753
444,53	0,681
444,74	0,345
444,95	0,325
445,16	0,217
445,37	0,483
445,58	0,240
445,80	0,494
446,01	0,710
446,22	0,475
446,43	0,541
446,64	0,300
446,85	0,188
447,06	0,565
447,28	0,224
447,49	0,213
447,70	0,437
447,91	0,737
448,12	0,224
448,33	0,180
448,54	0,360
448,76	0,468
448,97	0,424
449,18	0,450
449,39	0,415
449,60	0,442
449,81	0,810
450,02	0,709
450,23	0,835
450,45	0,655
450,66	0,469
450,87	0,614
451,08	0,656
451,29	1,089
451,50	0,886
451,71	0,870
451,92	1,036
452,13	1,040
452,35	1,321
452,56	1,551
452,77	2,642
452,98	2,860
453,19	3,664
453,40	4,441
453,61	5,417
453,82	5,910
454,03	7,528
454,25	8,434
454,46	9,877
454,67	10,208
454,88	11,732
455,09	12,294
455,30	13,742
455,51	13,851
455,72	15,329
455,93	16,199
456,14	17,181
456,35	17,356
456,56	18,047
456,78	19,203
456,99	20,454
457,20	21,039
457,41	21,741
457,62	23,302
457,83	24,445
458,04	26,207
458,25	28,213
458,46	29,883
458,67	31,743
458,88	33,988
459,09	35,440
459,30	37,198
459,51	39,042
459,73	40,516
459,94	43,203
460,15	46,149
460,36	48,309
460,57	51,149
460,78	53,131
460,99	56,545
461,20	57,723
461,41	59,904
461,62	62,986
461,83	65,582
462,04	65,800
462,25	69,718
462,46	70,303
462,67	73,030
462,88	73,376
463,09	76,521
463,30	77,180
463,51	78,503
463,72	79,956
463,93	81,960
464,15	82,183
464,36	82,880
464,57	83,790
464,78	84,068
464,99	83,749
465,20	83,841
465,41	83,093
465,62	81,774
465,83	81,804
466,04	80,298
466,25	78,711
466,46	77,208
466,67	76,284
466,88	76,052
467,09	73,121
467,30	72,333
467,51	71,174
467,72	69,735
467,93	71,030
468,14	69,429
468,35	68,345
468,56	67,460
468,77	67,587
468,98	67,306
469,19	67,193
469,40	66,892
469,61	65,130
469,82	64,585
470,03	63,993
470,24	62,706
470,45	61,590
470,66	60,747
470,87	59,683
471,08	59,187
471,29	59,118
471,50	56,455
471,71	55,638
471,92	54,405
472,13	53,530
472,34	52,787
472,55	51,225
472,76	50,050
472,97	47,836
473,18	46,617
473,39	45,202
473,60	43,598
473,81	41,976
474,01	41,571
474,22	40,588
474,43	39,831
474,64	38,969
474,85	38,109
475,06	37,191
475,27	36,822
475,48	36,495
475,69	36,668
475,90	35,750
476,11	34,838
476,32	33,251
476,53	32,520
476,74	31,735
476,95	29,839
477,16	28,545
477,37	26,556
477,58	25,397
477,79	24,085
478,00	22,244
478,21	21,443
478,41	19,547
478,62	17,962
478,83	16,328
479,04	14,805
479,25	13,287
479,46	12,350
479,67	10,856
479,88	9,590
480,09	8,118
480,30	6,774
480,51	6,056
480,72	4,787
480,93	4,203
481,14	3,319
481,34	2,990
481,55	2,229
481,76	2,134
481,97	1,651
482,18	1,216
482,39	1,390
482,60	1,144
482,81	1,038
483,02	1,005
483,23	0,858
483,44	0,819
483,65	0,676
483,85	0,445
484,06	0,818
484,27	0,522
484,48	0,636
484,69	0,571
484,90	0,202
485,11	0,408
485,32	0,384
485,53	0,429
485,73	0,504
485,94	0,315
486,15	0,297
486,36	0,404
486,57	0,233
486,78	0,512
486,99	0,203
487,20	0,134
487,41	0,521
487,61	0,284
487,82	0,184
488,03	0,213
488,24	0,345
488,45	0,474
488,66	0,256
488,87	0,275
489,08	0,359
489,28	0,092
489,49	0,091
489,70	0,211
489,91	0,325
490,12	0,200
490,33	0,135
490,54	0,226
490,74	0,457
490,95	0,255
491,16	0,307
491,37	0,342
491,58	0,243
491,79	0,216
492,00	0,156
492,20	0,342
492,41	0,370
492,62	0,338
492,83	0,067
493,04	0,237
493,25	0,403
493,45	0,201
493,66	0,367
493,87	0,189
494,08	0,174
494,29	0,283
494,50	0,054
494,70	0,278
494,91	0,382
495,12	0,271
495,33	0,433
495,54	0,274
495,75	0,359
495,95	0,315
496,16	0,270
496,37	0,234
496,58	0,305
496,79	0,214
496,99	0,168
497,20	0,297
497,41	0,232
497,62	0,226
497,83	0,332
498,04	0,199
498,24	0,358
498,45	0,026
498,66	0,243
498,87	0,234
499,08	0,265
499,28	0,260
499,49	0,291
499,70	0,181
499,91	0,128
500,12	0,162
500,32	0,387
500,53	0,218
500,74	0,292
500,95	0,129
501,15	0,392
501,36	0,269
501,57	0,280
501,78	0,184
501,99	0,046
502,19	0,236
502,40	0,137
502,61	0,146
502,82	0,303
503,02	0,165
503,23	0,223
503,44	0,555
503,65	0,165
503,86	0,247
504,06	0,313
504,27	0,417
504,48	0,287
504,69	0,226
504,89	0,188
505,10	0,317
505,31	0,444
505,52	0,403
505,72	0,416
505,93	0,368
506,14	0,194
506,35	0,114
506,55	0,305
506,76	0,244
506,97	0,229
507,18	0,180
507,38	0,198
507,59	0,310
507,80	0,261
508,01	0,218
508,21	0,265
508,42	0,246
508,63	0,203
508,84	0,259
509,04	0,323
509,25	0,270
509,46	0,147
509,67	0,513
509,87	0,301
510,08	0,261
510,29	0,246
510,49	0,377
510,70	0,312
510,91	0,362
511,12	0,429
511,32	0,548
511,53	0,358
511,74	0,416
511,94	0,306
512,15	0,558
512,36	0,312
512,57	0,550
512,77	0,527
512,98	0,604
513,19	0,847
513,39	0,767
513,60	0,720
513,81	1,135
514,01	1,195
514,22	1,367
514,43	1,694
514,64	1,813
514,84	2,083
515,05	2,201
515,26	2,755
515,46	2,978
515,67	3,219
515,88	3,935
516,08	4,425
516,29	4,603
516,50	5,254
516,70	5,968
516,91	6,938
517,12	7,475
517,32	7,945
517,53	8,676
517,74	9,539
517,95	10,672
518,15	11,456
518,36	12,230
518,57	12,893
518,77	13,320
518,98	13,708
519,19	14,083
519,39	14,490
519,60	14,431
519,80	14,487
520,01	15,221
520,22	15,495
520,42	14,975
520,63	15,264
520,84	15,248
521,04	15,577
521,25	15,690
521,46	16,076
521,66	16,127
521,87	16,669
522,08	17,172
522,28	18,009
522,49	18,567
522,70	19,820
522,90	20,413
523,11	21,641
523,31	22,695
523,52	23,571
523,73	25,629
523,93	27,088
524,14	28,225
524,35	29,793
524,55	31,365
524,76	32,863
524,97	34,465
525,17	36,209
525,38	36,714
525,58	37,713
525,79	39,330
526,00	40,637
526,20	41,367
526,41	42,442
526,61	44,216
526,82	44,529
527,03	45,885
527,23	45,999
527,44	47,552
527,64	47,346
527,85	47,866
528,06	47,326
528,26	47,685
528,47	47,172
528,68	47,016
528,88	47,070
529,09	46,476
529,29	46,666
529,50	45,409
529,70	44,688
529,91	44,222
530,12	44,194
530,32	44,364
530,53	43,347
530,73	43,081
530,94	43,348
531,15	42,894
531,35	42,578
531,56	43,451
531,76	42,527
531,97	42,791
532,17	42,345
532,38	42,287
532,59	42,452
532,79	42,013
533,00	41,526
533,20	41,651
533,41	40,956
533,61	41,113
533,82	39,906
534,03	40,447
534,23	40,361
534,44	40,249
534,64	40,415
534,85	39,768
535,05	39,640
535,26	39,511
535,46	39,484
535,67	39,357
535,88	38,494
536,08	39,618
536,29	39,161
536,49	39,757
536,70	39,496
536,90	39,475
537,11	39,467
537,31	39,398
537,52	39,786
537,72	40,152
537,93	39,390
538,13	38,780
538,34	38,384
538,55	38,292
538,75	37,290
538,96	36,575
539,16	36,618
539,37	35,455
539,57	34,308
539,78	33,207
539,98	31,841
540,19	30,535
540,39	29,155
540,60	28,053
540,80	26,597
541,01	25,381
541,21	24,135
541,42	22,952
541,62	21,904
541,83	21,164
542,03	19,741
542,24	19,517
542,44	18,413
542,65	17,807
542,85	16,756
543,06	15,557
543,26	15,090
543,47	13,704
543,67	12,899
543,88	10,996
544,08	10,221
544,29	9,379
544,49	8,097
544,70	7,294
544,90	6,784
545,11	6,020
545,31	5,103
545,52	4,865
545,72	4,309
545,93	3,957
546,13	3,755
546,34	3,562
546,54	3,251
546,75	3,074
546,95	3,094
547,15	2,486
547,36	2,814
547,56	2,105
547,77	1,905
547,97	1,693
548,18	1,405
548,38	1,286
548,59	1,064
548,79	1,068
549,00	0,857
549,20	0,610
549,41	0,580
549,61	0,522
549,81	0,423
550,02	0,393
550,22	0,317
550,43	0,291
550,63	0,159
550,84	0,381
551,04	0,127
551,25	0,322
551,45	0,403
551,65	0,221
551,86	0,098
552,06	0,308
552,27	0,036
552,47	0,231
552,68	0,378
552,88	0,209
553,08	0,276
553,29	0,267
553,49	0,133
553,70	0,452
553,90	0,236
554,11	0,573
554,31	0,168
554,51	0,340
554,72	0,144
554,92	0,121
555,13	0,272
555,33	0,158
555,53	0,158
555,74	0,311
555,94	0,065
556,15	0,235
556,35	0,085
556,56	0,182
556,76	0,042
556,96	0,126
557,17	0,266
557,37	0,320
557,58	0,080
557,78	0,199
557,98	0,147
558,19	0,046
558,39	0,108
558,59	0,212
558,80	0,254
559,00	0,204
559,21	0,186
559,41	0,133
559,61	0,193
559,82	0,188
560,02	0,248
560,23	0,203
560,43	0,168
560,63	0,165
560,84	0,126
561,04	0,130
561,24	0,290
561,45	0,271
561,65	0,038
561,85	0,092
562,06	0,091
562,26	-0,061
562,47	0,184
562,67	0,284
562,87	-0,087
563,08	0,213
563,28	0,225
563,48	0,148
563,69	0,129
563,89	0,278
564,09	0,251
564,30	0,232
564,50	0,008
564,70	0,201
564,91	0,148
565,11	0,165
565,31	0,208
565,52	0,118
565,72	0,320
565,92	0,103
566,13	0,086
566,33	0,241
566,53	0,242
566,74	0,075
566,94	0,110
567,14	0,261
567,35	0,041
567,55	0,128
567,75	0,291
567,96	0,256
568,16	0,282
568,36	0,097
568,57	0,132
568,77	0,112
568,97	0,179
569,18	0,205
569,38	0,097
569,58	0,131
569,79	0,187
569,99	0,141
570,19	0,007
570,39	0,193
570,60	0,056
570,80	0,059
571,00	0,089
571,21	0,324
571,41	0,205
571,61	0,096
571,82	0,318
572,02	0,155
572,22	-0,085
572,42	0,155
572,63	0,074
572,83	0,214
573,03	0,187
573,24	0,022
573,44	0,236
573,64	0,371
573,84	0,004
574,05	0,070
574,25	0,026
574,45	0,177
574,66	0,164
574,86	0,067
575,06	0,174
575,26	0,097
575,47	0,233
575,67	0,044
575,87	0,266
576,07	0,033
576,28	0,284
576,48	0,181
576,68	0,366
576,88	0,149
577,09	0,092
577,29	0,294
577,49	0,089
577,69	0,081
577,90	0,034
578,10	0,225
578,30	0,246
578,50	-0,029
578,71	0,225
578,91	0,174
579,11	0,206
579,31	0,155
579,52	0,141
579,72	0,099
579,92	0,306
580,12	0,228
580,33	0,222
580,53	0,036
580,73	0,074
580,93	0,122
581,13	0,063
581,34	0,062
581,54	0,129
581,74	0,166
581,94	0,173
582,15	0,340
582,35	0,015
582,55	0,171
582,75	0,278
582,95	0,224
583,16	0,147
583,36	0,059
583,56	0,262
583,76	0,077
583,96	0,162
584,17	0,056
584,37	0,129
584,57	0,212
584,77	0,085
584,97	0,055
585,18	0,280
585,38	0,055
585,58	0,154
585,78	0,222
585,98	0,019
586,19	0,128
586,39	0,207
586,59	0,089
586,79	0,212
586,99	0,029
587,20	0,212
587,40	0,300
587,60	0,029
587,80	0,208
588,00	0,117
588,20	0,190
588,41	0,179
588,61	0,362
588,81	0,051
589,01	0,155
589,21	0,274
589,41	0,105
589,62	0,091
589,82	0,154
590,02	0,051
590,22	0,205
590,42	0,190
590,62	0,103
590,83	0,015
591,03	0,087
591,23	0,196
591,43	0,197
591,63	0,139
591,83	0,112
592,03	0,245
592,24	0,289
592,44	0,022
592,64	0,115
592,84	0,164
593,04	0,155
593,24	0,196
593,44	0,094
593,65	0,065
593,85	0,119
594,05	0,083
594,25	0,022
594,45	0,104
594,65	0,050
594,85	0,018
595,06	0,131
595,26	0,303
595,46	0,069
595,66	0,036
595,86	0,129
596,06	0,108
596,26	0,192
596,46	0,241
596,66	0,127
596,87	0,206
597,07	0,156
597,27	0,047
597,47	0,058
597,67	0,127
597,87	-0,029
598,07	0,194
598,27	0,224
598,47	0,283
598,67	0,011
598,88	0,139
599,08	0,273
599,28	0,177
599,48	0,093
599,68	0,198
599,88	0,104
600,08	0,222
600,28	0,269
600,48	0,056
600,68	0,086
600,88	0,190
601,09	0,169
601,29	0,273
601,49	0,011
601,69	0,196
601,89	0,113
602,09	0,094
602,29	0,098
602,49	-0,042
602,69	0,057
602,89	0,091
603,09	0,072
603,29	0,330
603,49	0,284
603,69	0,183
603,90	-0,008
604,10	0,114
604,30	0,143
604,50	0,217
604,70	0,062
604,90	-0,057
605,10	0,198
605,30	0,218
605,50	0,000
605,70	0,104
605,90	-0,038
606,10	0,111
606,30	0,074
606,50	0,224
606,70	0,131
606,90	0,019
607,10	0,150
607,30	0,190
607,50	0,132
607,70	0,202
607,90	0,215
608,10	0,281
608,30	0,208
608,50	0,200
608,70	0,313
608,90	0,179
609,11	0,090
609,31	0,218
609,51	0,185
609,71	0,102
609,91	0,035
610,11	0,386
610,31	0,226
610,51	0,237
610,71	0,196
610,91	0,090
611,11	0,035
611,31	0,117
611,51	0,027
611,71	0,075
611,91	0,383
612,11	0,039
612,31	0,237
612,51	0,122
612,71	0,028
612,91	-0,036
613,11	0,099
613,31	0,115
613,51	0,076
613,71	0,211
613,91	0,282
614,11	0,339
614,31	0,051
614,50	0,319
614,70	0,020
614,90	0,108
615,10	0,079
615,30	0,187
615,50	0,016
615,70	0,369
615,90	0,060
616,10	0,116
616,30	0,115
616,50	0,141
616,70	0,144
616,90	0,170
617,10	0,147
617,30	0,219
617,50	0,218
617,70	0,136
617,90	0,099
618,10	0,300
618,30	0,012
618,50	0,087
618,70	0,221
618,90	0,004
619,10	-0,082
619,30	-0,184
619,49	0,067
619,69	0,135
619,89	0,146
620,09	0,071
620,29	0,245
620,49	0,289
620,69	0,118
620,89	-0,072
621,09	0,058
621,29	0,059
621,49	0,078
621,69	-0,023
621,89	0,293
622,09	0,219
622,29	-0,004
622,48	0,129
622,68	-0,031
622,88	0,249
623,08	0,124
623,28	0,054
623,48	0,308
623,68	0,086
623,88	0,043
624,08	0,133
624,28	0,213
624,48	0,197
624,67	0,194
624,87	0,149
625,07	0,280
625,27	0,108
625,47	0,193
625,67	0,134
625,87	0,118
626,07	0,137
626,27	-0,015
626,47	0,253
626,66	0,060
626,86	0,170
627,06	0,262
627,26	0,056
627,46	-0,075
627,66	0,136
627,86	0,000
628,06	0,195
628,25	0,218
628,45	0,208
628,65	0,206
628,85	0,209
629,05	0,306
629,25	0,100
629,45	0,255
629,65	0,186
629,84	0,169
630,04	0,378
630,24	0,053
630,44	0,034
630,64	0,280
630,84	0,061
631,04	0,373
631,23	0,088
631,43	0,108
631,63	0,099
631,83	0,157
632,03	0,199
632,23	0,145
632,42	0,094
632,62	0,127
632,82	0,046
633,02	0,273
633,22	0,085
633,42	0,111
633,62	0,004
633,81	-0,070
634,01	0,344
634,21	0,291
634,41	0,141
634,61	0,069
634,80	0,219
635,00	0,219
635,20	0,101
635,40	-0,038
635,60	0,201
635,80	0,280
635,99	0,342
636,19	0,106
636,39	0,015
636,59	0,185
636,79	0,180
636,98	0,261
637,18	0,143
637,38	0,329
637,58	-0,059
637,78	0,389
637,97	0,088
638,17	0,277
638,37	0,194
638,57	-0,084
638,77	0,216
638,96	-0,051
639,16	0,248
639,36	0,086
639,56	0,291
639,76	0,271
639,95	0,443
640,15	0,167
640,35	0,091
640,55	0,393
640,75	0,213
640,94	0,194
641,14	0,333
641,34	0,222
641,54	0,076
641,73	0,025
641,93	0,430
642,13	0,361
642,33	0,065
642,53	0,240
642,72	0,208
642,92	0,241
643,12	0,100
643,32	0,317
643,51	0,427
643,71	-0,040
643,91	0,041
644,11	0,110
644,30	0,103
644,50	0,391
644,70	0,230
644,90	0,274
645,09	0,213
645,29	0,305
645,49	0,192
645,69	0,129
645,88	0,389
646,08	0,123
646,28	0,416
646,48	0,066
646,67	0,153
646,87	0,273
647,07	0,216
647,26	0,470
647,46	0,136
647,66	0,394
647,86	0,189
648,05	0,372
648,25	0,916
648,45	0,186
648,65	-0,031
648,84	0,153
649,04	0,422
649,24	0,409
649,43	0,142
649,63	0,427
649,83	0,517
650,03	0,385
650,22	0,400
650,42	0,389
650,62	0,277
650,81	0,338
651,01	0,391
651,21	0,310
651,40	0,476
651,60	-0,089
651,80	0,392
652,00	0,455
652,19	0,180
652,39	0,594
652,59	0,584
652,78	0,172
652,98	-0,248
653,18	0,201
653,37	0,426
653,57	0,367
653,77	0,544
653,96	0,017
654,16	0,151
654,36	0,144
654,55	0,076
654,75	0,052
654,95	0,340
655,14	0,259
655,34	0,666
655,54	0,379
655,73	0,356
655,93	0,026
656,13	0,330
656,32	-0,132
656,52	0,503
656,72	0,356
656,91	0,247
657,11	0,112
657,31	0,165
657,50	0,474
657,70	0,382
657,90	0,643
658,09	0,391
658,29	0,303
658,49	-0,105
658,68	0,348
658,88	0,331
659,07	0,244
659,27	0,166
659,47	0,070
659,66	0,318
659,86	0,131
660,06	0,069
660,25	-0,177
660,45	0,434
660,64	0,061
660,84	0,453
661,04	0,525
661,23	0,395
661,43	0,141
661,63	0,628
661,82	-0,035
662,02	0,660
662,21	0,148
662,41	0,752
662,61	0,547
662,80	0,070
663,00	-0,095
663,19	0,611
663,39	0,104
663,59	0,637
663,78	0,610
663,98	0,667
664,17	0,375
664,37	0,215
664,57	0,360
664,76	0,620
664,96	0,111
665,15	0,264
665,35	0,296
665,55	-0,017
665,74	0,363
665,94	0,354
666,13	0,357
666,33	0,422
666,53	0,459
666,72	0,287
666,92	0,355
667,11	0,557
667,31	-0,050
667,50	0,149
667,70	0,394
667,90	0,082
668,09	0,057
668,29	0,082
668,48	0,317
668,68	0,195
668,87	0,274
669,07	0,264
669,26	0,385
669,46	0,745
669,66	0,143
669,85	0,607
670,05	0,205
670,24	0,392
670,44	0,252
670,63	0,109
670,83	0,273
671,02	0,141
671,22	0,349
671,42	0,209
671,61	0,306
671,81	0,423
672,00	0,129
672,20	0,152
672,39	0,398
672,59	0,030
672,78	0,106
672,98	0,128
673,17	0,193
673,37	0,127
673,56	0,341
673,76	0,087
673,95	0,219
674,15	0,188
674,34	0,229
674,54	0,549
674,73	0,491
674,93	0,362
675,13	0,523
675,32	0,526
675,52	0,406
675,71	0,288
675,91	0,225
676,10	0,378
676,30	0,192
676,49	0,014
676,69	0,114
676,88	-0,105
677,08	0,190
677,27	0,130
677,47	0,195
677,66	0,084
677,86	0,243
678,05	0,134
678,24	0,267
678,44	0,346
678,63	0,230
678,83	0,192
679,02	0,252
679,22	0,185
679,41	0,250
679,61	0,170
679,80	0,071
680,00	0,030
680,19	0,193
680,39	0,424
680,58	0,244
680,78	0,023
680,97	0,182
681,17	0,204
681,36	0,187
681,56	0,213
681,75	0,039
681,94	0,176
682,14	0,460
682,33	0,190
682,53	0,038
682,72	0,183
682,92	0,405
683,11	0,226
683,31	0,094
683,50	0,037
683,69	0,139
683,89	0,072
684,08	0,273
684,28	0,010
684,47	0,191
684,67	-0,055
684,86	0,173
685,06	0,192
685,25	0,231
685,44	0,193
685,64	0,133
685,83	0,266
686,03	0,178
686,22	0,107
686,42	0,125
686,61	0,123
686,80	-0,009
687,00	0,014
687,19	0,036
687,39	0,071
687,58	0,252
687,77	0,339
687,97	0,143
688,16	0,117
688,36	0,152
688,55	0,004
688,74	-0,060
688,94	0,026
689,13	0,105
689,33	0,058
689,52	0,157
689,71	0,178
689,91	0,101
690,10	0,208
690,30	0,068
690,49	0,088
690,68	0,369
690,88	0,095
691,07	0,036
691,27	0,133
691,46	0,118
691,65	0,075
691,85	0,157
692,04	0,162
692,23	0,040
692,43	0,111
692,62	0,232
692,82	0,256
693,01	0,163
693,20	0,198
693,40	0,160
693,59	0,089
693,78	0,090
693,98	0,020
694,17	0,150
694,36	0,266
694,56	-0,017
694,75	0,085
694,94	0,192
695,14	0,100
695,33	0,246
695,53	0,230
695,72	0,315
695,91	0,032
696,11	0,136
696,30	0,111
696,49	0,171
696,69	0,076
696,88	0,081
697,07	-0,052
697,27	0,197
697,46	0,231
697,65	0,034
697,85	-0,070
698,04	0,165
698,23	0,383
698,43	0,243
698,62	0,129
698,81	0,473
699,01	0,212
699,20	-0,028
699,39	0,043
699,58	0,083
699,78	0,046
699,97	0,149
700,16	-0,186
700,36	0,418
700,55	0,190
700,74	0,849
700,94	0,081
701,13	-0,009
701,32	0,126
701,52	-0,070
701,71	0,174
701,90	0,075
702,09	0,607
702,29	0,684
702,48	0,239
702,67	0,785
702,87	0,727
703,06	0,351
703,25	0,740
703,44	0,725
703,64	0,981
703,83	0,387
704,02	0,677
704,22	0,089
704,41	0,294
704,60	0,140
704,79	0,449
704,99	1,208
705,18	1,169
705,37	1,000
705,56	0,688
705,76	1,734
705,95	0,916
706,14	0,271
706,33	0,631
706,53	1,521
706,72	0,293
706,91	0,862
707,11	0,344
707,30	0,921
707,49	1,460
707,68	0,932
707,88	0,995
708,07	0,536
708,26	0,771
708,45	0,831
708,64	1,091
708,84	0,647
709,03	1,838
709,22	0,557
709,41	2,264
709,61	1,537
709,80	1,958
709,99	1,472
710,18	1,418
710,38	0,472
710,57	-0,064
710,76	0,918
710,95	1,386
711,14	1,423
711,34	1,136
711,53	1,015
711,72	1,606
711,91	2,030
712,11	3,213
712,30	-0,539
712,49	1,417
712,68	-0,277
712,87	1,020
713,07	2,489
713,26	2,166
713,45	0,707
713,64	2,226
713,83	0,880
714,03	0,895
714,22	2,851
714,41	1,443
714,60	3,797
714,79	-0,912
714,99	0,000
715,18	1,855
715,37	2,819
715,56	1,248
715,75	2,301
715,94	4,724
716,14	4,851
716,33	2,706
716,52	2,830
716,71	3,294
716,90	3,163
717,10	-0,445
717,29	2,138
717,48	1,891
717,67	3,948
717,86	0,058
718,05	0,761
718,24	1,427
718,44	1,869
718,63	1,399
718,82	1,187
719,01	2,242
719,20	2,730
719,39	4,967
719,59	-0,260
719,78	1,069
719,97	-0,067
720,16	5,309
720,35	0,138
720,54	0,349
720,73	6,075
720,93	-0,723
721,12	-1,652
721,31	1,093
721,50	4,436
721,69	2,677
721,88	4,147
722,07	1,200
722,27	3,591
722,46	4,573
722,65	0,635
722,84	2,339
723,03	4,703
723,22	3,707
723,41	0,997
723,60	3,189
723,79	5,693
723,99	2,598
724,18	4,987
724,37	0,272
724,56	2,555
724,75	4,000
724,94	5,152
725,13	2,833
725,32	5,671
725,51	2,512
725,71	3,194
725,90	4,348
726,09	4,018
726,28	2,860
726,47	1,479
726,66	5,596
726,85	5,118
727,04	0,714
727,23	2,579
727,42	3,811
727,61	4,321
727,81	-2,486
728,00	5,925
728,19	1,408
728,38	2,838
728,57	3,229
728,76	5,365
728,95	6,771
729,14	1,732
729,33	5,161
729,52	7,087
729,71	-0,108
729,90	2,747
730,09	6,206
730,28	4,473
730,48	4,740
730,67	5,357
730,86	10,047
731,05	0,350
731,24	-5,488
731,43	3,833
731,62	6,758
731,81	4,654
732,00	9,461
732,19	-0,841
732,38	3,590
732,57	9,046
732,76	3,283
732,95	0,772
733,14	-0,574
733,33	0,529
733,52	7,444
733,71	4,878
733,90	-0,141
734,09	9,865
734,28	7,349
734,47	1,944
734,66	4,412
734,85	0,571
735,04	3,994
735,23	10,784
735,42	4,508
735,61	8,746
735,81	4,734
736,00	3,561
736,19	8,663
736,38	0,599
736,57	8,916
736,76	4,964
736,95	5,096
737,14	8,612
737,33	8,769
737,52	-1,077
737,71	3,770
737,90	6,491
738,09	7,002
738,28	10,463
738,47	6,569
738,66	3,686
738,85	9,309
739,04	-0,686
739,22	1,839
739,41	3,493
739,60	4,949
739,79	2,158
739,98	3,943
740,17	9,898
740,36	9,042
740,55	10,032
740,74	13,722
740,93	5,163
741,12	3,571
741,31	2,289
741,50	-6,616
741,69	10,442
741,88	-1,186
742,07	13,043
742,26	4,000
742,45	12,295
742,64	5,302
742,83	15,398
743,02	4,842
743,21	7,762
743,40	2,484
743,59	8,824
743,78	8,415
743,97	9,038
744,16	3,346
744,34	-0,233
744,53	12,784
744,72	5,846
744,91	6,303
745,10	12,369
745,29	11,492
745,48	7,500
745,67	8,656
745,86	13,245
746,05	4,976
746,24	10,309
746,43	5,139
746,62	7,112
746,81	7,416
747,00	11,379
747,18	9,586
747,37	15,368
747,56	15,059
747,75	-1,970
747,94	8,252
748,13	7,606
748,32	6,905
748,51	13,198
748,70	14,758
748,89	1,639
749,08	-6,686
749,26	7,930
749,45	1,072
749,64	-2,015
749,83	14,831
750,02	21,739
750,21	6,616
750,40	13,563
750,59	5,362
750,78	6,733
750,96	10,221
751,15	2,570
751,34	7,102
751,53	-2,186
751,72	10,986
751,91	5,959
752,10	9,162
752,29	9,867
752,47	0,573
752,66	5,714
752,85	15,574
753,04	10,894
753,23	4,334
753,42	12,668
753,61	15,987
753,80	3,093
753,98	17,172
754,17	12,766
754,36	-1,935
754,55	-3,012
754,74	0,649
754,93	28,375
755,12	9,792
755,30	7,468
755,49	15,407
755,68	21,779
755,87	9,763
756,06	8,681
756,25	18,845
756,43	-11,745
756,62	27,019
756,81	9,934
757,00	7,895
757,19	24,653
757,38	-2,703
757,56	11,600
757,75	10,922
757,94	0,380
758,13	15,068
758,32	9,792
758,51	9,764
758,69	6,564
758,88	7,407
759,07	14,970
759,26	20,141
759,45	8,772
759,63	5,195
759,82	11,228
760,01	8,791
760,20	28,931
760,39	20,505
760,57	18,467
760,76	12,195
760,95	25,347
761,14	8,029
761,33	17,742
761,51	9,286
761,70	24,535
761,89	12,444
762,08	24,164
762,27	17,329
762,45	27,174
762,64	0,503
762,83	29,880
763,02	9,130
763,21	-13,000
763,39	16,084
763,58	8,922
763,77	7,595
763,96	11,155
764,14	4,167
764,33	15,714
764,52	27,232
764,71	13,443
764,89	-2,679
765,08	13,300
765,27	5,532
765,46	16,143
765,65	27,843
765,83	40,271
766,02	7,619
766,21	4,918
766,40	19,455
766,58	20,106
766,77	22,477
766,96	24,797
767,15	25,210
767,33	14,010
767,52	13,100
767,71	6,579
767,90	28,643
768,08	15,569
768,27	24,797
768,46	21,930
768,64	-5,556
768,83	22,059
769,02	-3,448
769,21	8,333
769,39	24,286
769,58	11,688
769,77	30,319
769,96	9,009
770,14	22,951
770,33	10,280
770,52	26,619
770,70	10,270
770,89	7,027
771,08	36,747
771,27	-0,526
771,45	-1,176
771,64	31,515
771,83	31,373
772,01	33,505
772,20	37,313
772,39	13,291
772,57	12,935
772,76	21,622
772,95	28,161
773,14	45,578
773,32	21,469
773,51	22,024
773,70	15,827
773,88	13,548
774,07	11,168
774,26	-10,484
774,44	38,346
774,63	38,922
774,82	18,831
775,00	28,505
775,19	15,476
775,38	20,745
775,56	27,950
775,75	40,110
775,94	-15,000
776,12	6,536
776,31	16,541
776,50	-2,740
776,68	23,118
776,87	33,014
777,06	25,786
777,24	41,176
777,43	32,620
777,62	53,933
777,80	30,818
777,99	29,167
778,18	29,885
778,36	25,424
778,55	17,797
778,74	24,219
778,92	19,136
779,11	41,818
779,29	-6,383
779,48	42,553
779,67	9,910
779,85	14,035
780,04	42,029
780,23	36,905
780,41	44,915
780,60	16,107
780,79	-4,839
780,97	28,105
781,16	15,426
781,34	42,568
781,53	41,964
781,72	22,523
781,90	22,754
782,09	10,465
782,28	27,891
782,46	43,571
782,65	33,803
782,83	-11,950
783,02	38,596
783,21	12,782
783,39	44,538
783,58	33,913
783,76	32,653
783,95	60,563
784,14	48,684
784,32	21,176
784,51	56,757
784,69	29,688
784,88	21,495
785,06	33,775
785,25	48,227
785,44	12,903
785,62	21,429
785,81	31,481
785,99	42,105
786,18	36,036
786,37	46,154
786,55	36,111
786,74	35,455
786,92	2,098
787,11	26,389
787,29	22,321
787,48	54,839
787,67	65,094
787,85	64,557
788,04	10,811
788,22	17,822
788,41	35,433
788,59	44,079
788,78	23,077
788,96	28,099
789,15	68,333
789,34	22,115
789,52	53,226
789,71	76,978
789,89	20,779
790,08	20,000
790,26	32,484
790,45	94,444
790,63	-34,483
790,82	36,154
791,00	16,814
791,19	32,000
791,38	50,476
791,56	38,182
791,75	-1,389
791,93	54,000
792,12	63,478
792,30	39,416
792,49	8,081
792,67	29,412
792,86	32,800
793,04	19,444
793,23	58,947
793,41	42,754
793,60	43,056
793,78	17,143
793,97	44,444
794,15	60,150
794,34	36,000
794,52	-6,452
794,71	49,612
794,89	16,667
795,08	61,600
795,26	32,000
795,45	47,222
795,63	30,645
795,82	47,253
796,00	86,000
796,19	43,902
796,37	38,931
796,56	5,825
796,74	-11,579
796,93	40,909
797,11	50,602
797,30	27,778
797,48	17,969
797,67	49,593
797,85	46,923
798,04	11,017
798,22	79,487
798,41	-7,692
798,59	49,524
798,77	14,458
798,96	56,173
799,14	44,355
799,33	36,697
799,51	16,667
799,70	50,769
799,88	63,303
800,07	61,832
800,25	21,687
800,44	96,296
800,62	20,833
800,80	34,507
800,99	132,877
801,17	41,379
801,36	45,714
801,54	66,000
801,73	51,579
801,91	47,107
802,10	24,706
802,28	12,800
802,46	48,684
802,65	23,741
802,83	97,333
803,02	65,323
803,20	42,169
803,39	18,391
803,57	50,394
803,75	65,041
803,94	39,683
804,12	35,862
804,31	-15,942
804,49	56,000
804,67	0,735
804,86	7,080
805,04	9,639
805,23	48,673
805,41	35,000
805,59	36,986
805,78	75,200
805,96	-18,072
806,15	18,812
806,33	43,421
806,51	34,667
806,70	60,150
806,88	44,186
807,07	65,766
807,25	-6,593
807,43	42,857
807,62	30,088
807,80	32,381
807,99	44,615
808,17	27,559
808,35	44,000
808,54	44,928
808,72	76,577
808,90	39,726
809,09	33,696
809,27	53,333
809,46	57,143
809,64	54,878
809,82	35,099
810,01	63,281
810,19	72,727
810,37	37,500
810,56	87,778
810,74	77,922
810,92	35,333
811,11	43,860
811,29	81,132
811,48	35,385
811,66	2,247
811,84	32,967
812,03	32,787
812,21	9,649
812,39	26,957
812,58	26,316
812,76	61,151
812,94	42,169
813,13	36,170
813,31	52,000
813,49	26,852
813,68	35,455
813,86	-1,124
814,04	37,190
814,23	8,434
814,41	8,989
814,59	38,835
814,78	6,618
814,96	32,704
815,14	13,084
815,33	7,752
815,51	41,732
815,69	44,762
815,87	1,980
816,06	33,913
816,24	36,025
816,42	56,618
816,61	37,736
816,79	22,414
816,97	46,591
817,16	27,811
817,34	39,683
817,52	47,107
817,70	34,653
817,89	40,741
818,07	43,151
818,25	29,592
818,44	20,513
818,62	13,178
818,80	15,038
818,98	50,955
819,17	48,739
819,35	40,426
819,53	32,836
819,72	21,519
819,90	31,008
820,08	-0,855
820,26	24,138
820,45	21,477
820,63	37,500
820,81	8,000
820,99	34,043
821,18	31,973
821,36	32,278
821,54	35,172
821,73	59,444
821,91	38,596
822,09	7,258
822,27	30,968
822,46	22,059
822,64	36,000
822,82	11,602
823,00	4,972
823,19	24,176
823,37	33,939
823,55	31,250
823,73	30,345
823,91	34,783
824,10	46,774
824,28	44,724
824,46	30,097
824,64	31,579
824,83	47,826
825,01	31,333
825,19	34,677
825,37	43,478
825,56	28,302
825,74	42,347
825,92	18,471
826,10	32,955
826,28	22,024
826,47	22,105
826,65	57,447
826,83	-5,172
827,01	19,653
827,19	16,667
827,38	27,778
827,56	19,886
827,74	23,464
827,92	30,233
828,10	38,462
828,29	35,503
828,47	46,748
828,65	15,385
828,83	-1,212
829,01	38,587
829,20	31,868
829,38	32,955
829,56	31,522
829,74	-2,516
829,92	27,778
830,10	14,368
830,29	23,116
830,47	16,583
830,65	7,317
830,83	33,482
831,01	6,548
831,20	37,864
831,38	19,139
831,56	39,535
831,74	33,175
831,92	45,395
832,10	9,524
832,29	12,162
832,47	13,483
832,65	34,804
832,83	27,230
833,01	23,500
833,19	26,697
833,37	44,796
833,56	13,924
833,74	21,078
833,92	3,704
834,10	14,938
834,28	27,004
834,46	20,814
834,64	18,056
834,83	17,273
835,01	21,992
835,19	28,000
835,37	14,876
835,55	6,250
835,73	23,645
835,91	28,782
836,09	16,730
836,28	20,295
836,46	-2,400
836,64	20,301
836,82	4,977
837,00	18,116
837,18	7,435
837,36	40,239
837,54	20,909
837,72	6,466
837,91	24,254
838,09	9,163
838,27	22,667
838,45	11,348
838,63	-4,044
838,81	13,080
838,99	12,500
839,17	21,622
839,35	17,730
839,53	12,982
839,72	10,526
839,90	34,021
840,08	26,154
840,26	20,238
840,44	29,003
840,62	15,517
840,80	21,429
840,98	6,667
841,16	27,376
841,34	13,378
841,52	21,407
841,70	24,615
841,89	5,645
842,07	19,436
842,25	27,586
842,43	2,155
842,61	28,772
842,79	25,141
842,97	14,658
843,15	11,551
843,33	6,625
843,51	9,036
843,69	33,618
843,87	-12,687
844,05	8,511
844,23	6,907
844,41	3,135
844,59	9,510
844,77	13,165
844,95	11,561
845,13	21,846
845,31	6,977
845,50	15,445
845,68	7,074
845,86	-2,011
846,04	20,391
846,22	1,635
846,40	13,710
846,58	17,379
846,76	22,043
846,94	13,466
847,12	6,995
847,30	10,052
847,48	5,573
847,66	15,025
847,84	11,202
848,02	15,700
848,20	15,762
848,38	15,100
848,56	9,943
848,74	20,525
848,92	2,244
849,10	9,750
849,28	8,907
849,46	11,733
849,64	18,707
849,82	3,086
850,00	11,449
850,18	14,468
850,36	16,777
850,54	8,271
850,72	7,712
850,90	19,783
851,08	9,628
851,26	17,505
851,44	-0,442
851,62	6,977
851,80	9,912
851,98	15,604
852,16	19,385
852,34	5,979
852,52	4,241
852,70	2,961
852,87	0,000
853,05	7,992
853,23	11,546
853,41	14,286
853,59	17,220
853,77	13,294
853,95	24,051
854,13	7,743
854,31	11,499
854,49	7,984
854,67	9,935
854,85	10,352
855,03	15,832
855,21	20,000
855,39	-1,610
855,57	7,348
855,75	17,153
855,93	2,549
856,11	20,890
856,28	9,594
856,46	9,609
856,64	14,286
856,82	8,076
857,00	5,477
857,18	12,094
857,36	8,432
857,54	14,187
857,72	8,596
857,90	2,214
858,08	7,451
858,26	4,555
858,44	9,162
858,61	7,491
858,79	9,170
858,97	11,681
859,15	9,752
859,33	7,187
859,51	4,858
859,69	2,326
859,87	7,908
860,05	0,000
860,23	10,552
860,40	6,762
860,58	2,131
860,76	9,048
860,94	5,854
861,12	12,308
861,30	5,181
861,48	12,000
861,66	6,190
861,84	5,381
862,01	6,038
862,19	-2,712
862,37	8,169
862,55	6,772
862,73	5,418
862,91	5,727
863,09	1,935
863,27	5,460
863,44	6,488
863,62	5,707
863,80	1,125
863,98	4,451
864,16	1,879
864,34	12,023
864,52	12,601
864,69	6,433
864,87	-0,868
865,05	5,306
865,23	4,052
865,41	7,661
865,59	7,268
865,76	10,867
865,94	10,336
866,12	7,613
866,30	2,665
866,48	14,933
866,66	6,317
866,83	9,669
867,01	5,115
867,19	8,583
867,37	4,916
867,55	3,465
867,73	4,087
867,90	11,257
868,08	2,781
868,26	7,353
868,44	6,213
868,62	6,634
868,79	9,278
868,97	4,156
869,15	0,000
869,33	1,832
869,51	4,065
869,69	5,366
869,86	3,977
870,04	4,138
870,22	8,957
870,40	1,404
870,57	2,537
870,75	5,967
870,93	4,737
871,11	7,900
871,29	8,447
871,46	6,954
871,64	7,636
871,82	9,042
872,00	8,128
872,18	2,110
872,35	10,718
872,53	2,961
872,71	9,184
872,89	12,314
873,06	5,919
873,24	7,759
873,42	5,159
873,60	2,634
873,77	2,147
873,95	0,414
874,13	1,057
874,31	6,502
874,49	1,839
874,66	3,383
874,84	4,814
875,02	6,599
875,20	5,517
875,37	7,047
875,55	2,481
875,73	2,972
875,91	4,833
876,08	1,280
876,26	2,827
876,44	7,646
876,61	7,413
876,79	8,224
876,97	3,558
877,15	2,907
877,32	4,945
877,50	5,546
877,68	5,484
877,86	-3,653
878,03	7,113
878,21	5,146
878,39	2,807
878,56	2,562
878,74	6,193
878,92	-2,018
879,10	2,613
879,27	4,472
879,45	3,555
879,63	3,649
879,80	7,036
879,98	-0,075
880,16	4,876
880,34	4,937
880,51	-0,868
880,69	0,595
880,87	3,612
881,04	2,967
881,22	6,088
881,40	5,528
881,57	4,003
881,75	2,493
881,93	5,047
882,10	3,373
882,28	5,862
882,46	4,384
882,63	3,446
882,81	6,475
882,99	4,042
883,16	5,388
883,34	0,602
883,52	0,604
883,69	5,023
883,87	0,260
884,05	4,141
884,22	4,240
884,40	4,388
884,58	1,161
884,75	4,147
884,93	4,684
885,11	5,700
885,28	1,622
885,46	0,861
885,64	2,134
885,81	4,005
885,99	0,867
886,17	2,852
886,34	4,459
886,52	2,972
886,70	3,078
886,87	1,794
887,05	4,040
887,22	4,095
887,40	2,967
887,58	2,138
887,75	2,413
887,93	2,970
888,11	3,487
888,28	2,707
888,46	3,270
888,63	1,792
888,81	3,960
888,99	2,222
889,16	3,903
889,34	0,249
889,51	4,402
889,69	2,016
889,87	5,169
890,04	3,842
890,22	4,144
890,39	1,836
890,57	1,958
890,75	0,234
890,92	1,337
891,10	3,096
891,27	3,452
891,45	3,162
891,63	2,353
891,80	2,297
891,98	2,161
892,15	2,199
892,33	2,630
892,51	4,368
892,68	2,310
892,86	1,049
893,03	3,844
893,21	4,576
893,38	2,632
893,56	2,292
893,74	2,430
893,91	3,902
894,09	4,410
894,26	2,556
894,44	2,855
894,61	1,574
894,79	3,567
894,96	1,962
895,14	3,729
895,32	3,910
895,49	2,258
895,67	4,054
895,84	2,116
896,02	1,890
896,19	1,394
896,37	4,200
896,54	2,433
896,72	2,313
896,89	2,911
897,07	3,275
897,25	3,504
897,42	3,141
897,60	4,726
897,77	3,178
897,95	3,966
898,12	5,113
898,30	3,864
898,47	1,902
898,65	1,292
898,82	3,341
899,00	2,792
899,17	3,191
899,35	3,743
899,52	6,684
899,70	3,205
899,87	2,215
900,05	2,816
900,22	5,181
900,40	3,593
900,57	4,490
900,75	4,333
900,92	5,154
901,10	5,136
901,27	4,774
901,45	6,533
901,62	5,695
901,80	6,194
901,97	6,115
902,15	6,367
902,32	7,546
902,50	6,028
902,67	8,318
902,85	5,169
903,02	8,316
903,20	8,634
903,37	7,722
903,54	9,195
903,72	9,596
903,89	10,112
904,07	10,624
904,24	10,559
904,42	10,387
904,59	10,964
904,77	11,249
904,94	10,137
905,12	11,339
905,29	12,715
905,47	13,140
905,64	13,568
905,81	13,013
905,99	12,076
906,16	14,395
906,34	13,831
906,51	14,922
906,69	16,425
906,86	15,109
907,03	15,439
907,21	16,301
907,38	18,074
907,56	18,337
907,73	17,218
907,91	16,914
908,08	19,659
908,25	20,110
908,43	18,289
908,60	18,576
908,78	17,934
908,95	19,374
909,13	22,126
909,30	21,774
909,47	22,219
909,65	22,240
909,82	20,724
910,00	22,236
910,17	23,234
910,34	22,852
910,52	23,015
910,69	22,145
910,87	24,781
911,04	24,894
911,21	27,589
911,39	23,769
911,56	25,903
911,73	25,481
911,91	26,433
912,08	27,933
912,26	27,273
912,43	29,417
912,60	27,539
912,78	27,133
912,95	26,605
913,13	27,136
913,30	31,584
913,47	30,206
913,65	31,165
913,82	31,086
913,99	29,735
914,17	29,270
914,34	29,113
914,51	32,009
914,69	31,334
914,86	32,183
915,03	31,826
915,21	30,769
915,38	31,743
915,56	31,870
915,73	31,609
915,90	31,680
916,08	33,324
916,25	30,061
916,42	31,389
916,60	31,379
916,77	30,860
916,94	30,311
917,12	28,857
917,29	31,017
917,46	31,713
917,64	30,487
917,81	29,874
917,98	29,776
918,16	29,756
918,33	28,621
918,50	28,464
918,67	29,015
918,85	28,777
919,02	29,086
919,19	26,323
919,37	28,942
919,54	28,271
919,71	28,532
919,89	26,179
920,06	26,895
920,23	27,424
920,41	26,833
920,58	26,436
920,75	26,793
920,92	25,082
921,10	25,539
921,27	26,243
921,44	24,982
921,62	24,234
921,79	24,671
921,96	24,135
922,13	25,225
922,31	22,854
922,48	22,877
922,65	22,854
922,82	23,033
923,00	23,419
923,17	23,319
923,34	21,508
923,52	20,337
923,69	20,652
923,86	21,332
924,03	20,854
924,21	20,175
924,38	19,991
924,55	18,887
924,72	18,895
924,90	18,099
925,07	17,844
925,24	18,557
925,41	17,506
925,59	16,922
925,76	16,232
925,93	16,489
926,10	16,738
926,28	15,929
926,45	14,931
926,62	15,261
926,79	14,962
926,96	15,346
927,14	15,037
927,31	13,904
927,48	13,951
927,65	13,795
927,83	15,049
928,00	12,750
928,17	13,339
928,34	13,471
928,51	12,075
928,69	12,970
928,86	12,153
929,03	12,516
929,20	11,881
929,37	12,699
929,55	12,776
929,72	13,071
929,89	13,382
930,06	13,063
930,23	14,714
930,41	13,093
930,58	13,697
930,75	13,239
930,92	13,943
931,09	13,987
931,27	13,867
931,44	13,953
931,61	15,070
931,78	14,265
931,95	14,816
932,12	14,990
932,30	15,904
932,47	13,782
932,64	14,657
932,81	14,706
932,98	15,447
933,16	14,910
933,33	16,069
933,50	14,902
933,67	16,448
933,84	15,792
934,01	14,838
934,18	15,221
934,36	16,228
934,53	15,191
934,70	15,567
934,87	15,118
935,04	15,095
935,21	15,151
935,38	15,107
935,56	14,665
935,73	14,271
935,90	15,136
936,07	14,389
936,24	14,636
936,41	13,429
936,58	13,046
936,76	13,460
936,93	13,310
937,10	14,224
937,27	13,747
937,44	12,507
937,61	14,369
937,78	12,664
937,95	14,243
938,13	12,706
938,30	13,745
938,47	14,243
938,64	12,983
938,81	12,701
938,98	12,026
939,15	13,292
939,32	12,207
939,49	12,244
939,66	13,062
939,84	13,267
940,01	12,665
940,18	12,611
940,35	12,492
940,52	12,698
940,69	12,323
940,86	12,952
941,03	12,490
941,20	12,477
941,37	10,760
941,54	12,547
941,71	13,347
941,89	11,465
942,06	11,151
942,23	12,992
942,40	10,482
942,57	10,452
942,74	10,651
942,91	11,135
943,08	10,788
943,25	10,808
943,42	9,793
943,59	10,236
943,76	10,513
943,93	9,058
944,10	7,471
944,27	7,287
944,44	7,742
944,61	7,705
944,79	8,737
944,96	8,898
945,13	5,762
945,30	6,363
945,47	6,733
945,64	6,576
945,81	6,020
945,98	6,379
946,15	6,376
946,32	6,622
946,49	5,866
946,66	6,704
946,83	5,096
947,00	6,703
947,17	4,864
947,34	6,483
947,51	4,806
947,68	5,981
947,85	4,877
948,02	5,125
948,19	4,116
948,36	6,192
948,53	3,086
948,70	5,059
948,87	4,847
949,04	4,812
949,21	3,908
949,38	5,416
949,55	4,885
949,72	3,449
949,89	4,369
950,06	4,952
950,23	3,162
950,40	4,171
950,57	2,896
950,74	3,658
950,91	2,641
951,08	5,190
951,25	3,575
951,42	4,220
951,59	2,622
951,76	3,701
951,93	3,361
952,10	3,305
952,27	3,845
952,44	4,862
952,61	3,644
952,77	4,234
952,94	4,508
953,11	2,705
953,28	5,376
953,45	5,405
953,62	4,167
953,79	3,259
953,96	4,018
954,13	5,637
954,30	4,717
954,47	4,138
954,64	1,144
954,81	5,991
954,98	4,045
955,15	3,265
955,32	2,554
955,49	3,659
955,65	3,514
955,82	4,732
955,99	6,609
956,16	8,305
956,33	2,219
956,50	3,540
956,67	4,648
956,84	6,855
957,01	4,552
957,18	8,669
957,35	5,363
957,52	4,809
957,68	7,508
957,85	6,814
958,02	6,409
958,19	0,750
958,36	6,846
958,53	4,249
958,70	7,163
958,87	1,497
959,04	3,374
959,21	13,487
959,37	9,969
959,54	7,016
959,71	8,872
959,88	6,047
960,05	6,985
960,22	8,428
960,39	6,658
960,56	6,394
960,72	5,402
960,89	2,953
961,06	7,479
961,23	1,988
961,40	6,314
961,57	5,591
961,74	8,909
961,90	9,869
962,07	11,360
962,24	4,815
962,41	11,724
962,58	7,860
962,75	11,453
962,92	5,088
963,08	4,792
963,25	4,183
963,42	18,876
963,59	10,062
963,76	8,946
963,93	10,794
964,10	1,131
964,26	15,476
964,43	0,465
964,60	13,689
964,77	12,081
964,94	-1,975
965,10	0,836
965,27	9,497
965,44	10,794
965,61	9,932
965,78	-3,106
965,95	16,169
966,11	-0,606
966,28	9,777
966,45	12,418
966,62	-4,530
966,79	1,365
966,95	11,744
967,12	22,540
967,29	21,605
967,46	30,605
967,63	23,529
967,79	32,215
967,96	20,183
968,13	13,333
968,30	26,749
968,47	28,077
968,63	16,176
968,80	25,670
968,97	25,434
969,14	32,203
969,31	21,939
969,47	30,978
969,64	16,484
969,81	18,065
969,98	3,684
970,14	15,054
970,31	34,591
970,48	27,517
970,65	-10,744
970,81	31,469
970,98	44,271
971,15	36,970
971,32	12,121
971,48	50,000
971,65	13,245
971,82	33,636
971,99	56,329
972,15	55,814
972,32	28,472
972,49	29,508
972,66	38,017
972,82	54,110
972,99	17,500
973,16	56,954
973,33	31,111
973,49	39,024
973,66	38,095
973,83	56,790
974,00	27,848
974,16	34,545
974,33	81,333
974,50	35,354
974,67	25,000
974,83	81,633
975,00	98,182
975,17	114,516
975,33	78,161
975,50	83,607
975,67	98,077
975,84	23,171
976,00	57,895
976,17	63,043
976,34	7,059
976,50	35,165
976,67	84,524
976,84	39,583
977,00	53,846
977,17	102,222
977,34	125,000
977,50	73,810
977,67	50,588
977,84	122,034
978,01	91,892
978,17	50,000
978,34	122,222
978,51	28,000
978,67	124,490
978,84	69,091
979,01	44,737
979,17	62,857
979,34	108,696
979,51	147,727
979,67	45,833
979,84	166,102
980,01	117,308
980,17	94,118
980,34	108,219
980,51	400,000
980,67	66,667
980,84	97,143
981,01	147,059
981,17	82,353
981,34	120,000
981,50	67,368
981,67	97,619
981,84	10,714
982,00	600,000
982,17	146,875
982,34	165,854
982,50	0,000
982,67	-528,571
982,84	320,000
983,00	107,407
983,17	-314,286
983,33	266,667
983,50	139,024
983,67	78,261
983,83	261,905
984,00	304,348
984,17	500,000
984,33	-214,286
984,50	127,027
984,66	337,500
984,83	450,000
985,00	-61,538
985,16	119,355
985,33	1900,000
985,49	60,465
985,66	105,000
985,83	-1300,000
985,99	233,333
986,16	210,526
986,32	61,644
986,49	-1000,000
986,66	460,000
986,82	196,970
986,99	160,000
987,15	100,000
987,32	317,647
987,49	217,857
987,65	-65,217
987,82	10,000
987,98	127,273
988,15	485,714
988,31	60,000
988,48	100,000
988,65	340,000
988,81	92,727
988,98	186,486
989,14	530,000
989,31	74,576
989,47	3,571
989,64	216,667
989,80	108,511
989,97	170,909
990,14	300,000
990,30	-187,500
990,47	-154,167
990,63	186,842
990,80	933,333
990,96	558,333
991,13	143,333
991,29	143,137
991,46	133,333
991,62	0,000
991,79	-240,000
991,95	194,118
992,12	1416,667
992,29	-4,762
992,45	188,095
992,62	-103,571
992,78	-316,667
992,95	70,968
993,11	425,000
993,28	-1000,000
993,44	-275,862
993,61	126,316
993,77	0,000
993,94	207,692
994,10	500,000
994,27	-81,579
994,43	137,500
994,60	442,857
994,76	154,545
994,93	-680,000
995,09	-275,000
995,26	179,167
995,42	737,500
995,59	140,000
995,75	-750,000
995,92	-742,857
996,08	-1800,000
996,25	160,606
996,41	1040,000
996,58	292,000
996,74	-380,000
996,91	120,968
997,07	316,000
997,23	101,961
997,40	983,333
997,56	-1700,000
997,73	252,174
997,89	840,000
998,06	140,351
998,22	146,809
998,39	208,163
998,55	194,737
998,72	-1200,000
998,88	122,000
999,05	606,667
999,21	141,176
999,37	144,186
999,54	164,516
999,70	171,429
999,87	700,000
1000,03	166,667
1000,20	285,714
1000,36	-775,000
1000,52	1550,000
1000,69	448,000
1000,85	-483,333
1001,02	171,429
1001,18	980,000
1001,35	0,000
1001,51	507,143
1001,67	290,000
1001,84	131,707
1002,00	-327,273
1002,17	575,000
1002,33	-737,500
1002,50	750,000
1002,66	1037,500
1002,82	280,488
1002,99	-213,636
1003,15	-6000,000
1003,32	14,286
1003,48	-566,667
1003,64	126,087
1003,81	47,368
1003,97	146,377
1004,14	-87,273
1004,30	400,000
1004,46	-3200,000
1004,63	-92,308
1004,79	145,946
1004,95	-560,000
1005,12	-292,308
1005,28	236,111
1005,45	-700,000
1005,61	476,923
1005,77	-357,143
1005,94	143,478
1006,10	-350,000
1006,26	-118,519
1006,43	193,939
1006,59	251,613
1006,76	32,000
1006,92	213,043
1007,08	57,576
1007,25	150,000
1007,41	68,182
1007,57	-205,882
1007,74	104,348
1007,90	-314,286
1008,06	-233,333
1008,23	-178,947
1008,39	191,667
1008,55	96,471
1008,72	-762,500
1008,88	-37,143
1009,04	-877,778
1009,21	112,500
1009,37	383,871
1009,53	-200,000
1009,70	1,515
1009,86	157,895
1010,02	245,455
1010,19	720,000
1010,35	3500,000
1010,51	268,571
1010,68	459,091
1010,84	240,000
1011,00	242,857
1011,17	2133,333
1011,33	76,923
1011,49	356,250
1011,66	159,375
1011,82	-700,000
1011,98	586,667
1012,14	530,769
1012,31	236,364
1012,47	-428,571
1012,63	6700,000
1012,80	494,444
1012,96	88,889
1013,12	-107,407
1013,29	212,500
1013,45	-17,647
1013,61	-860,000
1013,77	-277,778
1013,94	225,000
1014,10	3900,000
1014,26	-55,882
1014,43	218,421
1014,59	0,000
1014,75	260,000
1014,91	191,429
1015,08	273,077
1015,24	366,667
1015,40	520,000
1015,56	217,647
1015,73	169,388
1015,89	377,778
1016,05	159,459
1016,21	222,222
1016,38	115,789
1016,54	-196,000
1016,70	310,526
1016,86	-623,077
1017,03	0,000
1017,19	900,000
1017,35	236,667
1017,51	600,000
1017,68	800,000
1017,84	363,158
1018,00	33,333
1018,16	-206,250
1018,33	300,000
1018,49	300,000
1018,65	-218,182
1018,81	-114,634
1018,97	607,692
1019,14	-914,286
1019,30	304,762
1019,46	115,385
1019,62	2200,000
1019,79	-328,571
1019,95	-1750,000
1020,11	420,000
1020,27	175,000
1020,43	-675,000
1020,60	0,000
1020,76	110,294
1020,92	2900,000
1021,08	-162,222
1021,24	-250,000
1021,41	172,727
1021,57	-316,667
1021,73	0,000
1021,89	-245,455
1022,05	302,857
1022,21	-400,000
1022,38	410,526
1022,54	840,000
1022,70	240,741
1022,86	-400,000
1023,02	333,333
1023,19	-180,000
1023,35	100,000
1023,51	251,613
1023,67	126,316
1023,83	300,000
1023,99	197,143
1024,16	-52,308
1024,32	231,250
1024,48	202,041
1024,64	-600,000
1024,80	325,000
1024,96	253,846
1025,12	1033,333
1025,29	-225,000
1025,45	158,333
1025,61	2000,000
1025,77	190,476
1025,93	-107,692
1026,09	2100,000
1026,26	-771,429
1026,42	-1375,000
1026,58	180,769
1026,74	857,143
1026,90	252,632
1027,06	-490,000
1027,22	-458,333
1027,38	777,778
1027,55	-224,000
1027,71	500,000
1027,87	45,000
1028,03	78,788
1028,19	-96,970
1028,35	95,946
1028,51	-17,742
1028,67	-640,000
1028,83	223,810
1029,00	392,857
1029,16	-346,667
1029,32	-23,529
1029,48	3200,000
1029,64	671,429
1029,80	1216,667
1029,96	107,843
1030,12	-25,000
1030,28	925,000
1030,44	-2700,000
1030,61	87,500
1030,77	-26,087
1030,93	169,767
1031,09	-392,857
1031,25	-666,667
1031,41	-2100,000
1031,57	-205,263
1031,73	445,455
1031,89	-124,242
1032,05	1171,429
1032,21	580,000
1032,37	-129,412
1032,53	-30,000
1032,69	-6700,000
1032,86	1300,000
1033,02	281,250
1033,18	-307,692
1033,34	-215,385
1033,50	141,935
1033,66	-133,333
1033,82	189,286
1033,98	-358,824
1034,14	800,000
1034,30	-186,364
1034,46	254,167
1034,62	416,667
1034,78	177,778
1034,94	-12,903
1035,10	-350,000
1035,26	-622,222
1035,42	-14,286
1035,58	760,000
1035,74	-43,333
1035,90	-233,333
1036,06	128,302
1036,22	-280,000
1036,38	746,667
1036,54	460,000
1036,70	-3400,000
1036,86	-321,429
1037,02	-800,000
1037,18	-139,286
1037,34	221,739
1037,50	-460,000
1037,66	-2066,667
1037,82	-5,882
1037,98	314,286
1038,14	-10,345
1038,30	40,385
1038,46	66,667
1038,62	80,645
1038,78	154,762
1038,94	-7,895
1039,10	-258,333
1039,26	-189,474
1039,42	-1271,429
1039,58	96,226
1039,74	146,875
1039,90	-141,026
1040,06	317,647
>>>>>End Processed Spectral Data<<<<<
