SpectraSuite Data File
++++++++++++++++++++++++++++++++++++
Date: Thu Feb 02 17:34:31 EET 2017
User: optolab
Dark Spectrum Present: Yes
Reference Spectrum Present: Yes
Number of Sampled Component Spectra: 1
Spectrometers: USB4C02475
Integration Time (usec): 100000 (USB4C02475)
Spectra Averaged: 1 (USB4C02475)
Boxcar Smoothing: 0 (USB4C02475)
Correct for Electrical Dark: No (USB4C02475)
Strobe/Lamp Enabled: No (USB4C02475)
Correct for Detector Non-linearity: No (USB4C02475)
Correct for Stray Light: No (USB4C02475)
Number of Pixels in Processed Spectrum: 3648
>>>>>Begin Processed Spectral Data<<<<<
344,91	-475,000
345,13	-475,000
345,35	-475,000
345,57	-311,765
345,79	-32,609
346,00	-126,471
346,22	-1157,143
346,44	-66,667
346,66	295,745
346,87	326,087
347,09	546,154
347,31	4900,000
347,53	-1925,000
347,74	-174,419
347,96	-1542,857
348,18	279,412
348,40	388,235
348,61	-148,718
348,83	3900,000
349,05	294,872
349,27	311,765
349,48	-3450,000
349,70	771,429
349,92	252,381
350,14	24,324
350,35	-353,846
350,57	-444,444
350,79	-110,256
351,01	-426,667
351,22	790,000
351,44	408,333
351,66	227,778
351,87	916,667
352,09	136,842
352,31	183,929
352,53	337,143
352,74	14,286
352,96	468,421
353,18	46,875
353,40	-862,500
353,61	513,333
353,83	75,000
354,05	175,000
354,26	289,286
354,48	-720,000
354,70	333,333
354,92	269,444
355,13	-137,209
355,35	185,185
355,57	165,625
355,78	214,286
356,00	127,660
356,22	222,727
356,44	234,884
356,65	300,000
356,87	172,222
357,09	297,143
357,30	172,727
357,52	-616,667
357,74	248,387
357,95	217,143
358,17	92,754
358,39	268,000
358,60	205,556
358,82	200,000
359,04	302,564
359,26	61,364
359,47	-207,692
359,69	203,571
359,91	344,000
360,12	335,000
360,34	94,444
360,56	-2550,000
360,77	622,222
360,99	425,000
361,21	156,522
361,42	-1300,000
361,64	-140,741
361,86	137,313
362,07	700,000
362,29	247,500
362,51	137,838
362,72	-1100,000
362,94	277,778
363,16	104,286
363,37	645,455
363,59	-5000,000
363,81	1275,000
364,02	78,667
364,24	204,545
364,46	552,381
364,67	100,000
364,89	247,059
365,11	186,486
365,32	318,519
365,54	487,500
365,76	190,909
365,97	253,659
366,19	129,825
366,41	760,000
366,62	130,000
366,84	158,333
367,05	93,137
367,27	1040,000
367,49	276,923
367,70	466,667
367,92	185,417
368,14	-261,538
368,35	177,941
368,57	203,030
368,79	238,462
369,00	92,308
369,22	238,889
369,43	415,789
369,65	-79,310
369,87	-341,176
370,08	235,000
370,30	442,857
370,51	281,818
370,73	219,444
370,95	490,000
371,16	121,053
371,38	175,472
371,60	273,333
371,81	126,087
372,03	-1000,000
372,24	-131,250
372,46	1833,333
372,68	252,941
372,89	77,064
373,11	127,907
373,32	93,277
373,54	390,909
373,76	455,556
373,97	215,152
374,19	-373,684
374,40	100,000
374,62	382,353
374,84	395,833
375,05	146,154
375,27	243,243
375,48	132,099
375,70	447,059
375,92	162,500
376,13	331,579
376,35	300,000
376,56	215,000
376,78	159,184
376,99	275,758
377,21	96,875
377,43	169,697
377,64	54,000
377,86	587,500
378,07	104,545
378,29	158,333
378,51	105,952
378,72	-236,364
378,94	76,087
379,15	129,545
379,37	531,250
379,58	163,333
379,80	97,727
380,01	68,000
380,23	243,478
380,45	168,750
380,66	143,056
380,88	143,243
381,09	300,000
381,31	282,051
381,52	313,043
381,74	146,429
381,95	328,571
382,17	364,000
382,39	108,065
382,60	335,294
382,82	275,862
383,03	1866,667
383,25	86,420
383,46	466,667
383,68	142,553
383,89	181,818
384,11	112,329
384,32	118,421
384,54	-828,571
384,76	252,941
384,97	265,000
385,19	26,316
385,40	325,000
385,62	116,129
385,83	134,043
386,05	914,286
386,26	334,615
386,48	684,615
386,69	327,778
386,91	160,000
387,12	169,231
387,34	122,034
387,55	154,286
387,77	256,000
387,98	130,612
388,20	123,944
388,41	80,952
388,63	151,429
388,84	197,500
389,06	220,930
389,27	159,375
389,49	92,771
389,70	128,814
389,92	163,636
390,13	120,513
390,35	76,042
390,56	187,500
390,78	204,545
390,99	204,444
391,21	100,000
391,42	134,783
391,64	-430,000
391,85	93,103
392,07	92,857
392,28	142,308
392,50	1520,000
392,71	2700,000
392,93	66,129
393,14	176,087
393,36	119,231
393,57	175,000
393,79	125,397
394,00	84,932
394,22	88,000
394,43	246,429
394,65	225,000
394,86	315,625
395,08	-375,000
395,29	61,702
395,50	-1200,000
395,72	700,000
395,93	280,000
396,15	-250,000
396,36	143,333
396,58	-352,381
396,79	190,698
397,01	242,857
397,22	108,696
397,44	214,894
397,65	102,703
397,87	170,000
398,08	192,308
398,29	183,333
398,51	212,195
398,72	128,261
398,94	172,093
399,15	138,333
399,37	91,304
399,58	174,603
399,80	366,667
400,01	155,882
400,22	192,857
400,44	361,905
400,65	97,260
400,87	3600,000
401,08	47,191
401,30	114,667
401,51	94,545
401,72	116,129
401,94	180,488
402,15	134,694
402,37	54,545
402,58	113,953
402,80	306,250
403,01	72,222
403,22	85,542
403,44	236,111
403,65	95,918
403,87	117,333
404,08	217,308
404,30	178,125
404,51	101,429
404,72	790,909
404,94	96,386
405,15	111,940
405,37	126,374
405,58	190,323
405,79	592,857
406,01	95,556
406,22	78,571
406,44	119,298
406,65	77,381
406,86	134,000
407,08	106,173
407,29	104,000
407,51	62,500
407,72	107,921
407,93	86,076
408,15	140,909
408,36	277,143
408,58	75,000
408,79	72,093
409,00	77,305
409,22	77,451
409,43	53,153
409,64	58,333
409,86	65,909
410,07	30,435
410,29	56,000
410,50	36,508
410,71	38,710
410,93	40,594
411,14	45,794
411,35	45,139
411,57	37,500
411,78	45,588
412,00	35,333
412,21	38,938
412,42	46,341
412,64	36,667
412,85	33,161
413,06	37,946
413,28	46,667
413,49	40,465
413,70	38,627
413,92	28,095
414,13	30,830
414,34	24,164
414,56	40,426
414,77	19,926
414,98	25,442
415,20	27,240
415,41	20,130
415,63	23,077
415,84	25,762
416,05	25,301
416,27	20,056
416,48	19,668
416,69	21,512
416,91	14,933
417,12	3,167
417,33	12,867
417,55	23,000
417,76	9,091
417,97	22,472
418,19	0,837
418,40	7,036
418,61	7,719
418,83	14,965
419,04	12,248
419,25	9,250
419,46	17,978
419,68	5,605
419,89	7,378
420,10	9,812
420,32	7,417
420,53	9,666
420,74	13,381
420,96	6,161
421,17	5,929
421,38	5,105
421,60	10,504
421,81	4,705
422,02	4,122
422,23	6,660
422,45	3,062
422,66	5,686
422,87	3,817
423,09	4,378
423,30	6,608
423,51	2,230
423,73	4,476
423,94	4,477
424,15	2,028
424,36	6,186
424,58	5,855
424,79	1,887
425,00	3,598
425,22	3,882
425,43	6,043
425,64	1,996
425,85	2,480
426,07	3,840
426,28	4,378
426,49	0,509
426,71	3,293
426,92	3,714
427,13	2,451
427,34	1,024
427,56	4,022
427,77	1,408
427,98	0,873
428,19	0,194
428,41	0,310
428,62	2,115
428,83	1,198
429,04	2,158
429,26	0,097
429,47	3,328
429,68	1,089
429,89	0,948
430,11	2,257
430,32	2,598
430,53	1,555
430,74	2,547
430,96	1,826
431,17	2,273
431,38	1,492
431,59	1,293
431,81	1,818
432,02	2,118
432,23	1,945
432,44	1,368
432,66	2,465
432,87	0,845
433,08	0,902
433,29	1,341
433,51	1,511
433,72	1,136
433,93	1,293
434,14	1,513
434,35	1,241
434,57	0,692
434,78	1,355
434,99	1,141
435,20	1,313
435,42	1,706
435,63	0,358
435,84	0,764
436,05	1,075
436,26	0,388
436,48	1,724
436,69	1,063
436,90	0,266
437,11	0,623
437,32	0,720
437,54	1,111
437,75	0,568
437,96	0,786
438,17	0,728
438,38	1,006
438,60	0,993
438,81	0,597
439,02	0,617
439,23	0,666
439,44	0,594
439,66	0,588
439,87	0,866
440,08	0,711
440,29	0,943
440,50	0,902
440,72	0,680
440,93	0,885
441,14	0,683
441,35	0,252
441,56	0,580
441,77	0,496
441,99	0,455
442,20	0,678
442,41	0,659
442,62	0,198
442,83	0,488
443,04	0,481
443,26	0,523
443,47	0,811
443,68	0,331
443,89	0,641
444,10	0,710
444,31	0,611
444,53	0,524
444,74	0,313
444,95	0,444
445,16	0,378
445,37	0,383
445,58	0,487
445,80	0,450
446,01	0,601
446,22	0,649
446,43	0,504
446,64	0,257
446,85	0,388
447,06	0,535
447,28	0,176
447,49	0,567
447,70	0,450
447,91	0,516
448,12	0,436
448,33	0,407
448,54	0,226
448,76	0,351
448,97	0,448
449,18	0,704
449,39	0,363
449,60	0,404
449,81	0,912
450,02	0,715
450,23	0,383
450,45	0,539
450,66	0,462
450,87	0,544
451,08	0,460
451,29	0,879
451,50	0,624
451,71	0,412
451,92	0,834
452,13	0,579
452,35	0,677
452,56	0,578
452,77	0,885
452,98	1,082
453,19	0,936
453,40	1,119
453,61	1,104
453,82	1,387
454,03	1,423
454,25	1,745
454,46	1,946
454,67	2,260
454,88	2,937
455,09	3,483
455,30	4,048
455,51	4,524
455,72	5,394
455,93	6,401
456,14	7,609
456,35	7,661
456,56	8,748
456,78	10,330
456,99	10,997
457,20	11,783
457,41	12,534
457,62	14,095
457,83	15,715
458,04	16,358
458,25	17,654
458,46	18,752
458,67	20,058
458,88	20,889
459,09	22,180
459,30	23,597
459,51	24,927
459,73	25,705
459,94	27,589
460,15	28,346
460,36	29,135
460,57	30,839
460,78	32,012
460,99	34,017
461,20	35,848
461,41	37,069
461,62	39,980
461,83	43,059
462,04	44,915
462,25	48,540
462,46	50,617
462,67	53,621
462,88	56,377
463,09	59,348
463,30	61,966
463,51	63,561
463,72	65,903
463,93	67,589
464,15	69,490
464,36	70,393
464,57	72,005
464,78	73,333
464,99	75,448
465,20	77,697
465,41	79,131
465,62	80,575
465,83	83,410
466,04	84,406
466,25	85,541
466,46	85,255
466,67	86,221
466,88	87,184
467,09	87,035
467,30	87,064
467,51	86,081
467,72	85,826
467,93	87,128
468,14	85,350
468,35	84,340
468,56	83,562
468,77	83,030
468,98	82,172
469,19	82,835
469,40	80,060
469,61	79,959
469,82	78,980
470,03	77,631
470,24	76,886
470,45	76,179
470,66	74,500
470,87	74,294
471,08	72,963
471,29	71,743
471,50	70,156
471,71	69,149
471,92	69,321
472,13	67,548
472,34	67,233
472,55	67,248
472,76	66,445
472,97	65,877
473,18	66,152
473,39	64,620
473,60	63,859
473,81	61,840
474,01	61,250
474,22	60,451
474,43	59,259
474,64	57,838
474,85	54,998
475,06	52,246
475,27	51,428
475,48	48,558
475,69	47,963
475,90	46,140
476,11	45,250
476,32	43,361
476,53	43,446
476,74	42,269
476,95	41,767
477,16	41,905
477,37	40,036
477,58	38,730
477,79	38,590
478,00	37,054
478,21	35,967
478,41	34,424
478,62	33,788
478,83	31,303
479,04	30,000
479,25	28,125
479,46	27,240
479,67	25,660
479,88	24,292
480,09	23,055
480,30	21,281
480,51	19,326
480,72	17,312
480,93	16,047
481,14	13,440
481,34	12,178
481,55	10,232
481,76	8,916
481,97	7,481
482,18	5,875
482,39	5,217
482,60	4,219
482,81	3,393
483,02	3,016
483,23	2,651
483,44	2,011
483,65	1,900
483,85	1,192
484,06	1,522
484,27	1,139
484,48	0,959
484,69	1,013
484,90	0,674
485,11	0,776
485,32	0,826
485,53	0,655
485,73	0,645
485,94	0,512
486,15	0,310
486,36	0,611
486,57	0,531
486,78	0,686
486,99	0,535
487,20	0,284
487,41	0,344
487,61	0,415
487,82	0,428
488,03	0,463
488,24	0,468
488,45	0,550
488,66	0,395
488,87	0,469
489,08	0,519
489,28	0,315
489,49	0,396
489,70	0,310
489,91	0,354
490,12	0,229
490,33	0,319
490,54	0,271
490,74	0,445
490,95	0,327
491,16	0,319
491,37	0,375
491,58	0,386
491,79	0,356
492,00	0,183
492,20	0,243
492,41	0,314
492,62	0,306
492,83	0,350
493,04	0,501
493,25	0,485
493,45	0,307
493,66	0,343
493,87	0,326
494,08	0,097
494,29	0,353
494,50	0,214
494,70	0,421
494,91	0,266
495,12	0,213
495,33	0,467
495,54	0,408
495,75	0,427
495,95	0,308
496,16	0,468
496,37	0,208
496,58	0,174
496,79	0,164
496,99	0,333
497,20	0,389
497,41	0,281
497,62	0,399
497,83	0,332
498,04	0,305
498,24	0,304
498,45	0,215
498,66	0,258
498,87	0,336
499,08	0,375
499,28	0,162
499,49	0,374
499,70	0,294
499,91	0,200
500,12	0,274
500,32	0,384
500,53	0,313
500,74	0,299
500,95	0,098
501,15	0,407
501,36	0,322
501,57	0,360
501,78	0,172
501,99	0,268
502,19	0,240
502,40	0,302
502,61	0,215
502,82	0,246
503,02	0,315
503,23	0,238
503,44	0,402
503,65	0,364
503,86	0,297
504,06	0,126
504,27	0,321
504,48	0,260
504,69	0,437
504,89	0,230
505,10	0,193
505,31	0,413
505,52	0,341
505,72	0,470
505,93	0,337
506,14	0,210
506,35	0,315
506,55	0,309
506,76	0,224
506,97	0,328
507,18	0,172
507,38	0,379
507,59	0,346
507,80	0,272
508,01	0,265
508,21	0,324
508,42	0,227
508,63	0,243
508,84	0,426
509,04	0,371
509,25	0,472
509,46	0,372
509,67	0,275
509,87	0,265
510,08	0,269
510,29	0,398
510,49	0,381
510,70	0,405
510,91	0,558
511,12	0,417
511,32	0,418
511,53	0,309
511,74	0,228
511,94	0,224
512,15	0,442
512,36	0,201
512,57	0,485
512,77	0,409
512,98	0,223
513,19	0,515
513,39	0,480
513,60	0,532
513,81	0,604
514,01	0,781
514,22	0,622
514,43	0,702
514,64	0,717
514,84	0,930
515,05	0,910
515,26	1,012
515,46	1,113
515,67	1,112
515,88	1,354
516,08	1,653
516,29	1,605
516,50	1,983
516,70	2,602
516,91	3,092
517,12	3,524
517,32	3,665
517,53	4,179
517,74	4,930
517,95	5,824
518,15	6,230
518,36	6,967
518,57	7,567
518,77	8,484
518,98	8,741
519,19	9,561
519,39	10,580
519,60	11,252
519,80	11,878
520,01	12,834
520,22	13,651
520,42	13,534
520,63	13,944
520,84	14,803
521,04	14,704
521,25	14,972
521,46	15,004
521,66	15,419
521,87	15,973
522,08	15,871
522,28	16,126
522,49	15,914
522,70	16,278
522,90	16,412
523,11	16,655
523,31	17,305
523,52	17,741
523,73	18,701
523,93	19,041
524,14	19,495
524,35	20,150
524,55	21,049
524,76	22,219
524,97	23,007
525,17	24,378
525,38	25,660
525,58	26,928
525,79	28,351
526,00	29,682
526,20	31,529
526,41	32,784
526,61	34,550
526,82	35,802
527,03	37,647
527,23	38,557
527,44	40,667
527,64	41,333
527,85	43,553
528,06	44,218
528,26	45,471
528,47	45,977
528,68	47,315
528,88	48,054
529,09	47,992
529,29	49,143
529,50	49,211
529,70	49,640
529,91	49,124
530,12	49,283
530,32	48,421
530,53	48,795
530,73	47,962
530,94	47,858
531,15	47,093
531,35	46,904
531,56	46,177
531,76	45,884
531,97	45,374
532,17	45,006
532,38	44,795
532,59	44,470
532,79	44,907
533,00	44,040
533,20	44,136
533,41	44,291
533,61	43,361
533,82	43,249
534,03	43,719
534,23	42,491
534,44	42,719
534,64	41,476
534,85	41,942
535,05	42,013
535,26	41,574
535,46	41,199
535,67	41,689
535,88	41,018
536,08	40,972
536,29	40,282
536,49	40,348
536,70	40,500
536,90	40,761
537,11	39,800
537,31	39,745
537,52	40,455
537,72	40,363
537,93	39,853
538,13	39,514
538,34	39,863
538,55	40,214
538,75	39,293
538,96	39,619
539,16	39,829
539,37	39,400
539,57	39,378
539,78	39,332
539,98	39,144
540,19	38,518
540,39	38,095
540,60	37,619
540,80	37,326
541,01	36,109
541,21	35,414
541,42	34,248
541,62	33,366
541,83	32,052
542,03	30,869
542,24	29,704
542,44	28,444
542,65	27,304
542,85	25,802
543,06	25,006
543,26	24,173
543,47	22,948
543,67	22,552
543,88	21,224
544,08	20,532
544,29	19,591
544,49	17,806
544,70	17,093
544,90	15,910
545,11	14,960
545,31	14,070
545,52	12,827
545,72	11,922
545,93	10,718
546,13	9,551
546,34	8,494
546,54	7,676
546,75	6,795
546,95	6,184
547,15	5,261
547,36	5,022
547,56	4,415
547,77	4,102
547,97	3,725
548,18	3,331
548,38	3,163
548,59	3,049
548,79	3,126
549,00	2,548
549,20	2,501
549,41	2,328
549,61	1,970
549,81	1,767
550,02	1,481
550,22	1,034
550,43	1,003
550,63	0,910
550,84	0,815
551,04	0,661
551,25	0,688
551,45	0,632
551,65	0,508
551,86	0,370
552,06	0,371
552,27	0,222
552,47	0,349
552,68	0,508
552,88	0,299
553,08	0,347
553,29	0,369
553,49	0,199
553,70	0,378
553,90	0,145
554,11	0,324
554,31	0,047
554,51	0,320
554,72	0,248
554,92	0,233
555,13	0,346
555,33	0,181
555,53	0,336
555,74	0,401
555,94	0,270
556,15	0,243
556,35	0,150
556,56	0,023
556,76	0,165
556,96	0,341
557,17	0,270
557,37	0,312
557,58	0,084
557,78	0,192
557,98	0,174
558,19	0,200
558,39	0,189
558,59	0,178
558,80	0,185
559,00	0,184
559,21	0,391
559,41	0,212
559,61	0,239
559,82	0,115
560,02	0,336
560,23	0,211
560,43	0,317
560,63	0,077
560,84	0,283
561,04	0,248
561,24	0,302
561,45	0,339
561,65	0,164
561,85	0,115
562,06	0,171
562,26	0,194
562,47	0,319
562,67	0,200
562,87	-0,023
563,08	0,300
563,28	0,290
563,48	0,308
563,69	0,208
563,89	0,320
564,09	0,164
564,30	0,163
564,50	0,110
564,70	0,228
564,91	0,236
565,11	0,157
565,31	0,205
565,52	0,182
565,72	0,347
565,92	0,278
566,13	0,097
566,33	0,279
566,53	0,159
566,74	0,116
566,94	0,178
567,14	0,155
567,35	0,240
567,55	0,199
567,75	0,343
567,96	0,389
568,16	0,267
568,36	0,178
568,57	0,253
568,77	0,004
568,97	0,332
569,18	0,287
569,38	0,201
569,58	0,243
569,79	0,157
569,99	0,278
570,19	0,071
570,39	0,186
570,60	0,168
570,80	0,063
571,00	0,163
571,21	0,298
571,41	0,164
571,61	0,233
571,82	0,336
572,02	-0,030
572,22	-0,011
572,42	0,229
572,63	0,228
572,83	0,236
573,03	0,131
573,24	0,174
573,44	0,338
573,64	0,256
573,84	0,060
574,05	-0,026
574,25	0,237
574,45	0,243
574,66	0,187
574,86	0,348
575,06	0,234
575,26	0,097
575,47	0,214
575,67	0,167
575,87	0,255
576,07	0,147
576,28	0,295
576,48	0,204
576,68	0,281
576,88	0,108
577,09	0,088
577,29	0,265
577,49	0,052
577,69	-0,070
577,90	0,172
578,10	0,147
578,30	0,272
578,50	0,194
578,71	0,173
578,91	0,244
579,11	0,258
579,31	0,321
579,52	0,293
579,72	0,173
579,92	0,277
580,12	0,151
580,33	0,107
580,53	0,197
580,73	0,201
580,93	0,041
581,13	0,245
581,34	0,084
581,54	0,295
581,74	0,185
581,94	0,129
582,15	0,299
582,35	0,113
582,55	0,189
582,75	0,124
582,95	0,280
583,16	0,243
583,36	0,133
583,56	0,270
583,76	0,059
583,96	0,118
584,17	0,070
584,37	0,173
584,57	0,156
584,77	0,247
584,97	0,161
585,18	0,203
585,38	0,129
585,58	0,239
585,78	0,155
585,98	0,315
586,19	0,259
586,39	0,237
586,59	0,166
586,79	0,216
586,99	-0,022
587,20	0,172
587,40	0,139
587,60	0,129
587,80	0,175
588,00	0,264
588,20	0,201
588,41	0,238
588,61	0,348
588,81	0,175
589,01	0,192
589,21	0,271
589,41	0,160
589,62	0,051
589,82	0,212
590,02	0,120
590,22	0,197
590,42	0,350
590,62	0,051
590,83	0,106
591,03	0,083
591,23	0,156
591,43	0,226
591,63	0,099
591,83	0,145
592,03	0,124
592,24	0,297
592,44	0,262
592,64	0,209
592,84	0,302
593,04	0,137
593,24	0,127
593,44	0,221
593,65	0,144
593,85	0,267
594,05	0,176
594,25	0,116
594,45	0,267
594,65	0,054
594,85	0,083
595,06	0,127
595,26	0,260
595,46	0,069
595,66	0,122
595,86	0,162
596,06	0,123
596,26	0,058
596,46	0,216
596,66	0,196
596,87	0,163
597,07	0,094
597,27	0,134
597,47	0,077
597,67	0,224
597,87	0,112
598,07	0,172
598,27	0,062
598,47	0,275
598,67	0,114
598,88	0,231
599,08	0,133
599,28	0,170
599,48	0,107
599,68	0,309
599,88	0,171
600,08	0,015
600,28	0,144
600,48	0,211
600,68	0,112
600,88	0,276
601,09	0,161
601,29	0,206
601,49	0,071
601,69	0,117
601,89	0,087
602,09	0,113
602,29	0,117
602,49	0,201
602,69	0,240
602,89	0,038
603,09	0,166
603,29	0,251
603,49	0,272
603,69	0,206
603,90	0,069
604,10	0,243
604,30	0,178
604,50	0,296
604,70	0,100
604,90	0,145
605,10	0,099
605,30	0,134
605,50	0,096
605,70	0,232
605,90	-0,058
606,10	0,215
606,30	0,058
606,50	0,306
606,70	0,174
606,90	0,039
607,10	0,189
607,30	0,291
607,50	0,282
607,70	0,291
607,90	0,288
608,10	0,219
608,30	0,166
608,50	0,120
608,70	0,437
608,90	0,144
609,11	0,066
609,31	0,256
609,51	0,300
609,71	0,246
609,91	0,132
610,11	0,417
610,31	0,296
610,51	0,117
610,71	0,254
610,91	0,192
611,11	0,164
611,31	0,020
611,51	0,047
611,71	0,067
611,91	0,430
612,11	0,173
612,31	0,206
612,51	0,071
612,71	0,104
612,91	-0,099
613,11	0,076
613,31	0,071
613,51	0,267
613,71	-0,028
613,91	0,234
614,11	0,112
614,31	0,177
614,50	0,247
614,70	0,032
614,90	0,239
615,10	0,177
615,30	0,115
615,50	0,064
615,70	0,313
615,90	0,260
616,10	-0,004
616,30	0,314
616,50	0,129
616,70	0,092
616,90	-0,043
617,10	0,231
617,30	0,016
617,50	0,285
617,70	0,180
617,90	0,174
618,10	0,166
618,30	0,115
618,50	0,218
618,70	0,201
618,90	0,060
619,10	0,000
619,30	-0,032
619,49	0,071
619,69	0,063
619,89	0,281
620,09	0,095
620,29	0,304
620,49	0,226
620,69	0,138
620,89	0,163
621,09	0,105
621,29	0,201
621,49	0,063
621,69	0,074
621,89	0,281
622,09	0,336
622,29	0,074
622,48	0,141
622,68	0,160
622,88	0,132
623,08	0,190
623,28	0,186
623,48	0,207
623,68	0,113
623,88	0,225
624,08	0,082
624,28	0,317
624,48	0,316
624,67	0,085
624,87	0,203
625,07	0,265
625,27	0,042
625,47	0,254
625,67	0,227
625,87	0,031
626,07	0,259
626,27	0,137
626,47	0,162
626,66	0,158
626,86	0,140
627,06	0,277
627,26	0,232
627,46	0,056
627,66	0,087
627,86	0,221
628,06	0,154
628,25	0,200
628,45	0,264
628,65	0,120
628,85	0,041
629,05	0,403
629,25	0,067
629,45	0,293
629,65	0,045
629,84	-0,068
630,04	0,195
630,24	0,128
630,44	0,057
630,64	0,159
630,84	0,222
631,04	0,259
631,23	0,142
631,43	0,254
631,63	0,166
631,83	0,121
632,03	0,231
632,23	0,109
632,42	0,090
632,62	0,213
632,82	0,282
633,02	0,198
633,22	0,051
633,42	0,265
633,62	0,100
633,81	-0,035
634,01	0,130
634,21	0,112
634,41	0,250
634,61	0,119
634,80	0,381
635,00	0,261
635,20	0,221
635,40	-0,111
635,60	0,284
635,80	0,364
635,99	0,377
636,19	0,040
636,39	0,277
636,59	0,190
636,79	0,175
636,98	0,324
637,18	0,248
637,38	0,250
637,58	-0,048
637,78	0,400
637,97	0,094
638,17	0,138
638,37	0,222
638,57	0,196
638,77	0,273
638,96	0,143
639,16	0,231
639,36	-0,069
639,56	0,297
639,76	0,130
639,95	0,124
640,15	0,018
640,35	0,170
640,55	0,236
640,75	0,293
640,94	0,303
641,14	0,395
641,34	0,303
641,54	0,088
641,73	0,106
641,93	0,411
642,13	0,052
642,33	0,287
642,53	0,279
642,72	0,247
642,92	0,260
643,12	0,339
643,32	0,251
643,51	0,147
643,71	0,140
643,91	0,325
644,11	0,349
644,30	0,137
644,50	0,363
644,70	0,098
644,90	0,443
645,09	0,461
645,29	0,163
645,49	0,271
645,69	0,273
645,88	0,360
646,08	0,282
646,28	0,475
646,48	0,007
646,67	0,124
646,87	0,450
647,07	0,209
647,26	0,544
647,46	0,159
647,66	0,364
647,86	0,635
648,05	0,493
648,25	1,015
648,45	0,395
648,65	0,367
648,84	0,146
649,04	0,868
649,24	0,493
649,43	0,315
649,63	0,435
649,83	0,282
650,03	0,448
650,22	0,118
650,42	0,325
650,62	0,427
650,81	0,306
651,01	0,311
651,21	0,143
651,40	0,274
651,60	-0,041
651,80	0,302
652,00	0,585
652,19	0,311
652,39	0,423
652,59	0,700
652,78	0,090
652,98	0,232
653,18	0,000
653,37	0,660
653,57	0,550
653,77	0,134
653,96	0,161
654,16	0,588
654,36	0,237
654,55	0,000
654,75	0,302
654,95	0,102
655,14	0,207
655,34	0,726
655,54	0,654
655,73	0,278
655,93	-0,183
656,13	0,252
656,32	-0,150
656,52	0,441
656,72	0,391
656,91	0,644
657,11	0,060
657,31	0,618
657,50	0,638
657,70	0,885
657,90	0,391
658,09	0,295
658,29	0,190
658,49	0,253
658,68	0,330
658,88	0,593
659,07	0,261
659,27	0,532
659,47	0,514
659,66	0,450
659,86	-0,131
660,06	0,112
660,25	0,256
660,45	0,504
660,64	-0,105
660,84	0,479
661,04	0,429
661,23	0,395
661,43	0,439
661,63	0,310
661,82	0,390
662,02	0,695
662,21	0,671
662,41	0,525
662,61	0,658
662,80	0,053
663,00	0,286
663,19	0,576
663,39	0,121
663,59	0,594
663,78	0,576
663,98	0,641
664,17	0,690
664,37	0,155
664,57	0,514
664,76	0,357
664,96	0,273
665,15	0,136
665,35	0,288
665,55	0,043
665,74	0,380
665,94	0,093
666,13	0,266
666,33	0,219
666,53	0,560
666,72	0,287
666,92	0,478
667,11	0,233
667,31	0,165
667,50	0,207
667,70	0,518
667,90	0,368
668,09	0,369
668,29	0,270
668,48	0,463
668,68	0,455
668,87	0,661
669,07	0,280
669,26	0,273
669,46	0,537
669,66	0,546
669,85	0,521
670,05	0,284
670,24	0,408
670,44	0,315
670,63	0,546
670,83	0,398
671,02	0,102
671,22	0,325
671,42	0,309
671,61	0,243
671,81	0,354
672,00	0,469
672,20	0,160
672,39	0,713
672,59	0,068
672,78	0,272
672,98	0,309
673,17	0,252
673,37	0,322
673,56	0,290
673,76	0,066
673,95	0,226
674,15	0,455
674,34	0,007
674,54	0,243
674,73	0,462
674,93	0,184
675,13	0,495
675,32	0,617
675,52	0,189
675,71	0,645
675,91	0,476
676,10	0,350
676,30	0,275
676,49	-0,041
676,69	0,274
676,88	0,283
677,08	0,013
677,27	0,176
677,47	0,332
677,66	0,485
677,86	0,448
678,05	0,275
678,24	0,286
678,44	0,685
678,63	0,268
678,83	0,167
679,02	0,283
679,22	0,432
679,41	0,416
679,61	0,115
679,80	0,172
680,00	0,018
680,19	0,222
680,39	0,145
680,58	0,238
680,78	0,132
680,97	0,108
681,17	0,379
681,36	0,158
681,56	0,157
681,75	-0,034
681,94	0,028
682,14	0,531
682,33	0,244
682,53	0,146
682,72	0,269
682,92	0,661
683,11	0,174
683,31	0,262
683,50	-0,010
683,69	0,067
683,89	0,283
684,08	0,061
684,28	0,031
684,47	0,271
684,67	0,084
684,86	0,197
685,06	0,183
685,25	0,164
685,44	0,063
685,64	0,313
685,83	0,252
686,03	0,164
686,22	0,214
686,42	0,185
686,61	0,168
686,80	0,077
687,00	-0,068
687,19	0,195
687,39	0,196
687,58	0,243
687,77	0,169
687,97	0,413
688,16	0,226
688,36	0,265
688,55	0,095
688,74	0,030
688,94	0,034
689,13	0,156
689,33	0,050
689,52	0,375
689,71	0,112
689,91	0,166
690,10	0,224
690,30	-0,072
690,49	0,088
690,68	0,365
690,88	0,024
691,07	0,143
691,27	0,157
691,46	0,268
691,65	0,107
691,85	0,189
692,04	0,099
692,23	0,075
692,43	0,166
692,62	0,204
692,82	0,188
693,01	0,052
693,20	0,230
693,40	0,044
693,59	0,053
693,78	0,066
693,98	0,086
694,17	0,133
694,36	0,261
694,56	0,122
694,75	0,316
694,94	0,299
695,14	0,310
695,33	0,312
695,53	0,149
695,72	0,114
695,91	0,167
696,11	0,118
696,30	0,197
696,49	0,205
696,69	0,091
696,88	0,091
697,07	0,140
697,27	0,340
697,46	0,286
697,65	0,125
697,85	0,059
698,04	0,301
698,23	0,079
698,43	0,399
698,62	-0,167
698,81	0,263
699,01	0,547
699,20	0,203
699,39	0,123
699,58	0,330
699,78	0,222
699,97	0,212
700,16	0,065
700,36	-0,033
700,55	0,250
700,74	0,543
700,94	0,233
701,13	0,152
701,32	0,321
701,52	0,418
701,71	0,532
701,90	0,470
702,09	0,249
702,29	0,347
702,48	0,080
702,67	0,785
702,87	1,441
703,06	0,426
703,25	0,753
703,44	0,618
703,64	0,249
703,83	1,304
704,02	1,283
704,22	0,502
704,41	0,480
704,60	1,121
704,79	0,593
704,99	0,414
705,18	1,033
705,37	0,931
705,56	0,398
705,76	1,391
705,95	1,608
706,14	1,103
706,33	0,473
706,53	1,075
706,72	0,481
706,91	0,946
707,11	1,161
707,30	0,225
707,49	1,095
707,68	1,182
707,88	1,043
708,07	-0,268
708,26	0,373
708,45	-0,753
708,64	1,974
708,84	0,539
709,03	0,973
709,22	0,306
709,41	2,600
709,61	0,841
709,80	1,424
709,99	1,562
710,18	1,788
710,38	1,007
710,57	-0,064
710,76	0,262
710,95	0,947
711,14	1,125
711,34	0,929
711,53	2,065
711,72	3,390
711,91	1,255
712,11	2,635
712,30	0,654
712,49	0,574
712,68	1,266
712,87	2,898
713,07	1,887
713,26	1,916
713,45	1,831
713,64	1,397
713,83	0,264
714,03	2,238
714,22	3,891
714,41	2,328
714,60	1,709
714,79	0,624
714,99	2,416
715,18	3,660
715,37	3,201
715,56	2,197
715,75	3,052
715,94	5,610
716,14	3,941
716,33	2,758
716,52	3,459
716,71	3,454
716,90	2,442
717,10	1,782
717,29	1,013
717,48	1,112
717,67	4,343
717,86	2,307
718,05	1,756
718,24	1,011
718,44	2,866
718,63	2,433
718,82	3,186
719,01	0,498
719,20	2,032
719,39	3,660
719,59	1,367
719,78	1,069
719,97	4,150
720,16	7,728
720,35	1,239
720,54	0,349
720,73	5,256
720,93	4,049
721,12	-0,216
721,31	1,749
721,50	4,073
721,69	3,717
721,88	6,452
722,07	1,050
722,27	3,903
722,46	3,373
722,65	2,621
722,84	0,000
723,03	4,472
723,22	4,432
723,41	-0,249
723,60	2,698
723,79	7,756
723,99	6,203
724,18	4,649
724,37	2,089
724,56	5,792
724,75	5,217
724,94	8,108
725,13	2,747
725,32	7,291
725,51	1,953
725,71	3,904
725,90	8,979
726,09	3,927
726,28	4,385
726,47	2,465
726,66	5,054
726,85	3,128
727,04	1,835
727,23	6,304
727,42	8,445
727,61	-0,514
727,81	-2,595
728,00	4,054
728,19	7,909
728,38	1,201
728,57	5,313
728,76	6,330
728,95	10,313
729,14	4,545
729,33	7,097
729,52	5,174
729,71	8,026
729,90	5,165
730,09	4,567
730,28	2,982
730,48	5,643
730,67	6,585
730,86	8,038
731,05	5,251
731,24	-1,341
731,43	5,923
731,62	6,644
731,81	1,022
732,00	6,826
732,19	3,966
732,38	8,333
732,57	4,768
732,76	0,274
732,95	6,821
733,14	-0,287
733,33	2,116
733,52	6,601
733,71	1,435
733,90	1,130
734,09	5,946
734,28	3,412
734,47	1,250
734,66	5,749
734,85	4,714
735,04	4,993
735,23	7,843
735,42	12,295
735,61	10,933
735,81	10,355
736,00	7,835
736,19	6,231
736,38	6,287
736,57	9,877
736,76	4,380
736,95	5,732
737,14	10,367
737,33	6,648
737,52	7,077
737,71	1,967
737,90	11,283
738,09	12,633
738,28	11,211
738,47	4,562
738,66	0,962
738,85	6,907
739,04	9,777
739,22	5,017
739,41	2,390
739,60	3,072
739,79	0,719
739,98	-4,659
740,17	5,119
740,36	12,297
740,55	10,191
740,74	13,036
740,93	7,839
741,12	8,750
741,31	7,394
741,50	1,701
741,69	9,204
741,88	-1,581
742,07	8,696
742,26	13,333
742,45	7,992
742,64	7,861
742,83	13,451
743,02	2,947
743,21	10,830
743,40	2,277
743,59	9,191
743,78	13,503
743,97	13,462
744,16	15,748
744,34	5,828
744,53	10,103
744,72	11,065
744,91	10,084
745,10	15,933
745,29	6,653
745,48	9,545
745,67	12,073
745,86	12,362
746,05	18,957
746,24	9,897
746,43	11,991
746,62	19,828
746,81	7,191
747,00	4,814
747,18	13,508
747,37	16,842
747,56	10,824
747,75	5,911
747,94	13,350
748,13	20,134
748,32	13,571
748,51	20,051
748,70	17,401
748,89	4,450
749,08	-6,105
749,26	16,740
749,45	2,413
749,64	12,594
749,83	17,978
750,02	16,848
750,21	15,267
750,40	19,231
750,59	4,290
750,78	10,973
750,96	15,193
751,15	16,589
751,34	-0,284
751,53	4,098
751,72	7,887
751,91	21,762
752,10	13,089
752,29	17,867
752,47	5,158
752,66	10,794
752,85	18,579
753,04	14,246
753,23	11,765
753,42	19,946
753,61	5,956
753,80	8,935
753,98	16,667
754,17	5,775
754,36	21,290
754,55	12,651
754,74	15,909
754,93	20,937
755,12	12,166
755,30	8,766
755,49	9,593
755,68	18,098
755,87	13,609
756,06	8,333
756,25	21,277
756,43	-2,013
756,62	25,776
756,81	7,616
757,00	7,895
757,19	9,375
757,38	10,425
757,56	6,000
757,75	21,502
757,94	-3,042
758,13	14,726
758,32	19,881
758,51	11,448
758,69	15,830
758,88	7,407
759,07	14,671
759,26	14,841
759,45	14,035
759,63	13,420
759,82	28,772
760,01	31,868
760,20	32,075
760,39	10,726
760,57	15,331
760,76	25,784
760,95	26,042
761,14	25,547
761,33	31,613
761,51	13,571
761,70	28,996
761,89	3,111
762,08	30,112
762,27	15,162
762,45	17,029
762,64	39,698
762,83	15,538
763,02	18,696
763,21	-0,500
763,39	15,035
763,58	-5,204
763,77	18,987
763,96	29,880
764,14	8,750
764,33	3,333
764,52	25,893
764,71	27,213
764,89	12,946
765,08	4,926
765,27	21,277
765,46	14,350
765,65	30,196
765,83	31,674
766,02	18,571
766,21	8,743
766,40	37,743
766,58	-5,820
766,77	21,101
766,96	23,577
767,15	29,832
767,33	18,357
767,52	32,751
767,71	12,719
767,90	16,080
768,08	24,551
768,27	28,455
768,46	24,561
768,64	20,370
768,83	20,098
769,02	2,463
769,21	30,208
769,39	37,857
769,58	21,645
769,77	20,745
769,96	1,351
770,14	37,158
770,33	32,243
770,52	41,727
770,70	14,054
770,89	40,000
771,08	1,807
771,27	22,632
771,45	17,059
771,64	53,333
771,83	21,569
772,01	53,608
772,20	23,383
772,39	14,557
772,57	20,398
772,76	41,892
772,95	14,943
773,14	14,966
773,32	16,384
773,51	-2,976
773,70	62,590
773,88	36,774
774,07	20,812
774,26	40,323
774,44	74,436
774,63	44,910
774,82	27,922
775,00	23,364
775,19	11,905
775,38	29,255
775,56	36,025
775,75	37,363
775,94	-5,000
776,12	31,373
776,31	24,060
776,50	15,068
776,68	34,409
776,87	45,455
777,06	41,509
777,24	4,202
777,43	32,086
777,62	67,416
777,80	46,541
777,99	40,833
778,18	32,759
778,36	43,220
778,55	7,627
778,74	19,531
778,92	45,062
779,11	50,000
779,29	20,567
779,48	31,915
779,67	58,559
779,85	7,018
780,04	54,348
780,23	33,333
780,41	67,797
780,60	44,295
780,79	33,065
780,97	24,183
781,16	42,553
781,34	43,919
781,53	72,321
781,72	36,036
781,90	22,754
782,09	13,953
782,28	28,571
782,46	45,714
782,65	50,000
782,83	47,170
783,02	64,035
783,21	47,368
783,39	56,303
783,58	53,913
783,76	51,020
783,95	85,915
784,14	36,842
784,32	15,294
784,51	41,216
784,69	16,406
784,88	50,467
785,06	64,901
785,25	45,390
785,44	58,065
785,62	52,143
785,81	5,556
785,99	55,639
786,18	36,036
786,37	59,341
786,55	34,722
786,74	28,182
786,92	34,266
787,11	27,083
787,29	48,214
787,48	38,710
787,67	20,755
787,85	37,975
788,04	39,640
788,22	39,604
788,41	67,717
788,59	43,421
788,78	56,044
788,96	32,231
789,15	70,833
789,34	36,538
789,52	40,323
789,71	58,273
789,89	14,286
790,08	80,000
790,26	52,229
790,45	-5,556
790,63	4,598
790,82	41,538
791,00	11,504
791,19	30,400
791,38	-2,857
791,56	41,818
791,75	45,833
791,93	60,000
792,12	36,522
792,30	33,577
792,49	39,394
792,67	10,294
792,86	64,000
793,04	38,889
793,23	44,211
793,41	69,565
793,60	66,667
793,78	52,381
793,97	44,444
794,15	96,241
794,34	44,000
794,52	17,204
794,71	51,938
794,89	36,364
795,08	60,800
795,26	73,333
795,45	95,833
795,63	68,548
795,82	89,011
796,00	56,000
796,19	73,984
796,37	42,748
796,56	21,359
796,74	4,211
796,93	92,424
797,11	15,663
797,30	58,333
797,48	62,500
797,67	47,967
797,85	57,692
798,04	35,593
798,22	103,846
798,41	9,615
798,59	41,905
798,77	56,627
798,96	67,901
799,14	57,258
799,33	55,963
799,51	36,111
799,70	64,615
799,88	68,807
800,07	83,969
800,25	25,301
800,44	44,444
800,62	40,278
800,80	39,437
800,99	108,219
801,17	69,828
801,36	64,286
801,54	44,000
801,73	14,737
801,91	30,579
802,10	45,882
802,28	60,000
802,46	42,105
802,65	43,165
802,83	33,333
803,02	77,419
803,20	108,434
803,39	90,805
803,57	48,819
803,75	30,894
803,94	31,746
804,12	79,310
804,31	78,261
804,49	63,200
804,67	9,559
804,86	30,088
805,04	4,819
805,23	41,593
805,41	35,000
805,59	69,178
805,78	65,600
805,96	24,096
806,15	59,406
806,33	86,842
806,51	37,333
806,70	39,850
806,88	62,791
807,07	74,775
807,25	67,033
807,43	54,464
807,62	51,327
807,80	54,286
807,99	21,538
808,17	31,496
808,35	35,000
808,54	57,971
808,72	36,937
808,90	46,575
809,09	38,043
809,27	53,333
809,46	106,593
809,64	45,122
809,82	40,397
810,01	55,469
810,19	74,747
810,37	29,688
810,56	143,333
810,74	40,260
810,92	19,333
811,11	38,596
811,29	83,962
811,48	37,692
811,66	38,202
811,84	28,571
812,03	76,230
812,21	28,947
812,39	36,522
812,58	23,158
812,76	43,885
812,94	55,422
813,13	60,638
813,31	28,000
813,49	45,370
813,68	-10,000
813,86	12,360
814,04	26,446
814,23	37,349
814,41	51,685
814,59	74,757
814,78	58,088
814,96	44,654
815,14	29,907
815,33	34,109
815,51	50,394
815,69	40,000
815,87	52,475
816,06	46,087
816,24	44,720
816,42	70,588
816,61	47,799
816,79	32,759
816,97	52,273
817,16	27,219
817,34	25,397
817,52	35,537
817,70	37,624
817,89	60,000
818,07	56,164
818,25	36,735
818,44	17,949
818,62	31,783
818,80	20,301
818,98	46,497
819,17	42,017
819,35	45,213
819,53	58,209
819,72	52,532
819,90	38,760
820,08	13,675
820,26	33,621
820,45	27,517
820,63	103,571
820,81	73,600
820,99	39,007
821,18	29,932
821,36	61,392
821,54	52,414
821,73	37,778
821,91	66,667
822,09	29,032
822,27	45,806
822,46	32,353
822,64	16,800
822,82	41,436
823,00	14,917
823,19	48,901
823,37	29,697
823,55	27,841
823,73	47,586
823,91	51,449
824,10	42,473
824,28	72,864
824,46	26,214
824,64	40,789
824,83	47,826
825,01	36,000
825,19	32,258
825,37	33,913
825,56	42,453
825,74	37,755
825,92	32,484
826,10	63,636
826,28	35,119
826,47	51,579
826,65	56,738
826,83	33,621
827,01	36,994
827,19	22,619
827,38	27,160
827,56	36,364
827,74	20,112
827,92	20,349
828,10	29,487
828,29	26,627
828,47	35,772
828,65	20,769
828,83	7,879
829,01	35,870
829,20	34,615
829,38	44,318
829,56	25,543
829,74	30,189
829,92	27,778
830,10	50,575
830,29	22,111
830,47	25,628
830,65	30,488
830,83	12,946
831,01	36,310
831,20	34,951
831,38	34,928
831,56	40,000
831,74	72,038
831,92	25,658
832,10	38,095
832,29	39,189
832,47	23,034
832,65	25,000
832,83	37,089
833,01	17,500
833,19	27,602
833,37	36,652
833,56	17,300
833,74	34,314
833,92	13,426
834,10	19,087
834,28	36,287
834,46	28,959
834,64	12,963
834,83	26,364
835,01	46,058
835,19	30,000
835,37	19,421
835,55	32,292
835,73	56,158
835,91	22,140
836,09	9,886
836,28	25,461
836,46	11,600
836,64	39,098
836,82	17,195
837,00	27,536
837,18	11,152
837,36	36,653
837,54	21,818
837,72	24,569
837,91	21,269
838,09	9,960
838,27	19,000
838,45	19,858
838,63	11,397
838,81	13,924
838,99	33,065
839,17	27,365
839,35	9,929
839,53	19,649
839,72	16,165
839,90	17,869
840,08	25,538
840,26	21,825
840,44	26,284
840,62	10,690
840,80	17,347
840,98	30,980
841,16	8,365
841,34	20,067
841,52	29,969
841,70	20,923
841,89	17,742
842,07	16,301
842,25	33,046
842,43	17,672
842,61	31,228
842,79	22,599
842,97	19,218
843,15	40,924
843,33	17,666
843,51	15,663
843,69	32,194
843,87	22,015
844,05	12,462
844,23	22,222
844,41	8,464
844,59	9,222
844,77	17,367
844,95	16,474
845,13	21,538
845,31	6,977
845,50	14,921
845,68	5,145
845,86	4,885
846,04	29,609
846,22	19,619
846,40	20,161
846,58	17,094
846,76	26,344
846,94	18,454
847,12	12,953
847,30	13,402
847,48	9,288
847,66	19,212
847,84	12,568
848,02	9,903
848,20	13,695
848,38	6,553
848,56	16,477
848,74	22,196
848,92	5,985
849,10	2,000
849,28	7,490
849,46	21,333
849,64	20,092
849,82	8,642
850,00	19,159
850,18	21,489
850,36	10,155
850,54	19,298
850,72	9,254
850,90	20,217
851,08	14,661
851,26	18,381
851,44	0,885
851,62	12,326
851,80	19,604
851,98	10,549
852,16	18,676
852,34	14,227
852,52	10,045
852,70	6,606
852,87	12,785
853,05	12,281
853,23	9,897
853,41	14,512
853,59	9,544
853,77	16,270
853,95	19,620
854,13	8,850
854,31	16,838
854,49	11,577
854,67	6,048
854,85	12,215
855,03	19,439
855,21	8,000
855,39	9,256
855,57	14,516
855,75	21,533
855,93	11,176
856,11	28,433
856,28	15,314
856,46	19,395
856,64	10,095
856,82	11,168
857,00	9,939
857,18	6,859
857,36	16,358
857,54	14,187
857,72	8,947
857,90	8,118
858,08	7,255
858,26	11,594
858,44	7,602
858,61	10,627
858,79	17,474
858,97	9,735
859,15	10,526
859,33	7,500
859,51	10,720
859,69	5,009
859,87	10,049
860,05	3,197
860,23	11,851
860,40	12,811
860,58	7,213
860,76	4,921
860,94	13,984
861,12	9,846
861,30	9,890
861,48	10,857
861,66	10,000
861,84	2,093
862,01	12,371
862,19	1,525
862,37	7,413
862,55	12,392
862,73	5,728
862,91	10,720
863,09	5,506
863,27	9,483
863,44	4,090
863,62	8,016
863,80	6,188
863,98	10,534
864,16	0,723
864,34	8,911
864,52	7,507
864,69	6,287
864,87	5,065
865,05	12,517
865,23	4,837
865,41	7,258
865,59	5,114
865,76	11,384
865,94	9,302
866,12	15,355
866,30	4,208
866,48	13,464
866,66	-0,538
866,83	10,941
867,01	7,289
867,19	11,183
867,37	6,468
867,55	7,049
867,73	9,014
867,90	4,192
868,08	4,232
868,26	7,966
868,44	6,448
868,62	7,125
868,79	9,507
868,97	4,408
869,15	6,148
869,33	6,105
869,51	4,181
869,69	3,780
869,86	5,848
870,04	12,644
870,22	6,849
870,40	10,058
870,57	8,535
870,75	10,055
870,93	8,316
871,11	7,468
871,29	5,708
871,46	5,077
871,64	7,008
871,82	10,549
872,00	12,449
872,18	2,215
872,35	8,325
872,53	1,754
872,71	7,755
872,89	13,694
873,06	8,930
873,24	9,020
873,42	6,448
873,60	4,110
873,77	3,988
873,95	2,482
874,13	-1,374
874,31	7,018
874,49	6,680
874,66	7,237
874,84	1,204
875,02	8,891
875,20	10,443
875,37	11,329
875,55	7,729
875,73	2,448
875,91	6,970
876,08	1,828
876,26	1,855
876,44	6,864
876,61	5,641
876,79	8,749
876,97	3,376
877,15	5,903
877,32	3,922
877,50	3,228
877,68	3,685
877,86	1,529
878,03	6,038
878,21	5,146
878,39	4,892
878,56	3,058
878,74	4,358
878,92	3,471
879,10	4,612
879,27	11,257
879,45	5,719
879,63	3,183
879,80	4,940
879,98	3,010
880,16	4,949
880,34	5,232
880,51	0,946
880,69	3,199
880,87	4,887
881,04	4,414
881,22	6,566
881,40	6,228
881,57	4,213
881,75	2,632
881,93	4,441
882,10	6,606
882,28	6,828
882,46	5,548
882,63	5,633
882,81	6,475
882,99	4,042
883,16	2,431
883,34	4,679
883,52	4,963
883,69	6,543
883,87	2,214
884,05	3,410
884,22	2,740
884,40	4,449
884,58	-0,129
884,75	4,387
884,93	3,954
885,11	6,064
885,28	4,180
885,46	2,091
885,64	2,193
885,81	2,120
885,99	2,107
886,17	2,154
886,34	2,564
886,52	4,138
886,70	3,484
886,87	4,840
887,05	5,836
887,22	0,775
887,40	4,341
887,58	3,153
887,75	4,040
887,93	3,355
888,11	5,124
888,28	3,025
888,46	3,217
888,63	3,482
888,81	3,596
888,99	5,000
889,16	3,700
889,34	2,286
889,51	2,851
889,69	1,260
889,87	4,324
890,04	2,562
890,22	3,413
890,39	2,233
890,57	4,063
890,75	1,590
890,92	3,438
891,10	3,893
891,27	3,783
891,45	3,162
891,63	4,292
891,80	3,537
891,98	2,069
892,15	2,199
892,33	3,415
892,51	3,288
892,68	3,759
892,86	1,824
893,03	3,249
893,21	3,217
893,38	1,860
893,56	3,806
893,74	4,185
893,91	4,117
894,09	3,459
894,26	3,658
894,44	2,638
894,61	2,467
894,79	2,845
894,96	2,176
895,14	4,958
895,32	4,035
895,49	2,684
895,67	3,590
895,84	1,947
896,02	2,191
896,19	1,098
896,37	2,744
896,54	3,959
896,72	3,612
896,89	3,841
897,07	3,602
897,25	4,319
897,42	2,942
897,60	3,484
897,77	3,781
897,95	2,167
898,12	3,591
898,30	2,721
898,47	2,135
898,65	2,388
898,82	3,497
899,00	2,438
899,17	4,925
899,35	1,340
899,52	5,582
899,70	3,281
899,87	2,902
900,05	3,349
900,22	3,771
900,40	3,290
900,57	2,820
900,75	1,121
900,92	3,485
901,10	4,689
901,27	2,369
901,45	4,641
901,62	2,323
901,80	2,948
901,97	3,417
902,15	2,427
902,32	4,204
902,50	2,440
902,67	5,665
902,85	3,779
903,02	4,510
903,20	3,746
903,37	3,167
903,54	3,125
903,72	5,350
903,89	4,986
904,07	2,995
904,24	5,728
904,42	5,493
904,59	4,393
904,77	4,422
904,94	4,829
905,12	4,678
905,29	4,917
905,47	5,891
905,64	5,825
905,81	5,950
905,99	5,075
906,16	5,446
906,34	6,333
906,51	8,532
906,69	10,559
906,86	7,605
907,03	8,745
907,21	9,794
907,38	8,339
907,56	11,140
907,73	10,632
907,91	10,825
908,08	11,668
908,25	13,363
908,43	12,919
908,60	11,392
908,78	12,623
908,95	13,917
909,13	17,069
909,30	16,010
909,47	14,747
909,65	17,135
909,82	17,042
910,00	16,785
910,17	16,747
910,34	17,770
910,52	18,779
910,69	19,274
910,87	19,392
911,04	18,231
911,21	21,411
911,39	18,693
911,56	20,423
911,73	20,072
911,91	20,972
912,08	21,471
912,26	19,541
912,43	22,078
912,60	21,117
912,78	20,459
912,95	22,645
913,13	21,709
913,30	23,458
913,47	23,458
913,65	22,897
913,82	22,875
913,99	19,930
914,17	24,378
914,34	23,916
914,51	25,836
914,69	25,050
914,86	26,562
915,03	25,547
915,21	25,000
915,38	27,175
915,56	25,674
915,73	25,981
915,90	28,197
916,08	30,636
916,25	27,830
916,42	30,178
916,60	28,877
916,77	28,406
916,94	29,978
917,12	30,687
917,29	29,859
917,46	31,576
917,64	31,293
917,81	30,750
917,98	31,441
918,16	31,978
918,33	32,724
918,50	33,495
918,67	33,846
918,85	34,076
919,02	32,582
919,19	32,916
919,37	32,373
919,54	34,351
919,71	32,954
919,89	32,847
920,06	32,710
920,23	33,052
920,41	32,045
920,58	32,233
920,75	31,818
920,92	30,231
921,10	31,982
921,27	31,017
921,44	30,864
921,62	29,846
921,79	30,529
921,96	29,482
922,13	30,105
922,31	29,224
922,48	29,381
922,65	29,200
922,82	28,089
923,00	29,044
923,17	27,890
923,34	27,361
923,52	26,141
923,69	26,535
923,86	29,004
924,03	26,091
924,21	25,018
924,38	25,539
924,55	24,147
924,72	23,075
924,90	24,086
925,07	23,871
925,24	24,075
925,41	22,776
925,59	22,768
925,76	21,057
925,93	22,417
926,10	22,000
926,28	21,897
926,45	21,262
926,62	20,153
926,79	22,068
926,96	21,064
927,14	19,903
927,31	20,900
927,48	18,977
927,65	19,546
927,83	19,594
928,00	19,470
928,17	18,053
928,34	19,631
928,51	17,730
928,69	17,329
928,86	17,596
929,03	18,226
929,20	17,047
929,37	16,146
929,55	15,840
929,72	15,376
929,89	15,016
930,06	15,484
930,23	15,128
930,41	13,822
930,58	15,737
930,75	13,883
930,92	14,350
931,09	14,172
931,27	13,661
931,44	14,198
931,61	13,577
931,78	13,068
931,95	12,857
932,12	13,788
932,30	12,792
932,47	11,719
932,64	12,647
932,81	11,744
932,98	13,482
933,16	12,976
933,33	12,644
933,50	12,622
933,67	13,942
933,84	14,088
934,01	13,590
934,18	14,197
934,36	14,202
934,53	14,547
934,70	14,200
934,87	14,774
935,04	14,776
935,21	14,026
935,38	13,725
935,56	15,924
935,73	15,749
935,90	15,691
936,07	15,744
936,24	16,830
936,41	15,322
936,58	16,426
936,76	15,543
936,93	15,338
937,10	15,398
937,27	17,028
937,44	16,112
937,61	16,499
937,78	15,619
937,95	16,066
938,13	14,572
938,30	14,914
938,47	15,928
938,64	15,183
938,81	15,106
938,98	15,217
939,15	15,343
939,32	15,298
939,49	14,752
939,66	14,632
939,84	14,984
940,01	13,921
940,18	14,332
940,35	12,657
940,52	14,115
940,69	12,707
940,86	14,941
941,03	13,397
941,20	12,558
941,37	12,749
941,54	13,169
941,71	14,184
941,89	14,395
942,06	13,079
942,23	13,895
942,40	12,503
942,57	13,775
942,74	11,586
942,91	14,074
943,08	14,399
943,25	14,492
943,42	11,970
943,59	13,091
943,76	14,025
943,93	11,749
944,10	11,476
944,27	12,168
944,44	11,751
944,61	11,822
944,79	12,561
944,96	12,438
945,13	11,080
945,30	12,117
945,47	12,210
945,64	11,284
945,81	12,113
945,98	12,063
946,15	12,603
946,32	11,539
946,49	9,631
946,66	11,522
946,83	10,426
947,00	10,080
947,17	10,598
947,34	9,751
947,51	10,205
947,68	10,782
947,85	8,735
948,02	9,208
948,19	8,290
948,36	9,649
948,53	6,376
948,70	6,627
948,87	7,811
949,04	9,684
949,21	7,481
949,38	8,501
949,55	8,238
949,72	6,508
949,89	8,511
950,06	5,716
950,23	5,584
950,40	6,680
950,57	5,179
950,74	7,823
950,91	6,090
951,08	7,177
951,25	5,847
951,42	4,710
951,59	5,091
951,76	4,059
951,93	4,025
952,10	4,756
952,27	5,112
952,44	6,622
952,61	5,004
952,77	4,321
952,94	5,612
953,11	5,084
953,28	6,651
953,45	7,316
953,62	5,478
953,79	5,432
953,96	7,333
954,13	6,241
954,30	6,761
954,47	4,567
954,64	4,059
954,81	6,103
954,98	4,831
955,15	3,023
955,32	5,456
955,49	3,338
955,65	5,304
955,82	6,814
955,99	5,354
956,16	9,048
956,33	3,190
956,50	6,563
956,67	6,245
956,84	10,318
957,01	4,552
957,18	5,779
957,35	4,455
957,52	6,468
957,68	7,756
957,85	8,518
958,02	6,673
958,19	8,060
958,36	9,272
958,53	5,949
958,70	7,721
958,87	4,890
959,04	8,896
959,21	8,791
959,37	10,580
959,54	7,644
959,71	11,281
959,88	1,628
960,05	7,218
960,22	10,818
960,39	5,528
960,56	6,905
960,72	5,402
960,89	7,785
961,06	11,080
961,23	6,575
961,40	14,978
961,57	8,307
961,74	6,144
961,90	7,257
962,07	12,706
962,24	8,347
962,41	13,103
962,58	12,207
962,75	10,598
962,92	9,825
963,08	11,250
963,25	4,980
963,42	13,454
963,59	9,446
963,76	15,308
963,93	10,998
964,10	11,086
964,26	16,905
964,43	9,302
964,60	9,513
964,77	12,975
964,94	11,852
965,10	12,535
965,27	-1,955
965,44	9,206
965,61	14,384
965,78	14,596
965,95	17,910
966,11	13,333
966,28	16,201
966,45	19,281
966,62	5,226
966,79	20,478
966,95	20,996
967,12	36,825
967,29	23,457
967,46	31,317
967,63	47,451
967,79	41,611
967,96	19,725
968,13	26,190
968,30	39,918
968,47	33,462
968,63	38,725
968,80	32,567
968,97	17,919
969,14	44,633
969,31	21,939
969,47	22,283
969,64	8,242
969,81	27,097
969,98	21,053
970,14	19,892
970,31	13,836
970,48	47,651
970,65	29,752
970,81	33,566
970,98	20,833
971,15	69,091
971,32	30,303
971,48	55,952
971,65	43,709
971,82	47,273
971,99	61,392
972,15	31,395
972,32	65,972
972,49	56,557
972,66	66,942
972,82	56,164
972,99	33,750
973,16	67,550
973,33	45,926
973,49	39,024
973,66	45,714
973,83	85,185
974,00	82,278
974,16	140,000
974,33	100,000
974,50	103,030
974,67	69,048
974,83	92,857
975,00	112,727
975,17	87,097
975,33	71,264
975,50	68,852
975,67	126,923
975,84	62,195
976,00	51,316
976,17	128,261
976,34	65,882
976,50	68,132
976,67	115,476
976,84	152,083
977,00	56,410
977,17	102,222
977,34	165,385
977,50	46,429
977,67	109,412
977,84	81,356
978,01	159,459
978,17	72,414
978,34	77,778
978,51	240,000
978,67	87,755
978,84	81,818
979,01	173,684
979,17	44,286
979,34	147,826
979,51	150,000
979,67	254,167
979,84	138,983
980,01	215,385
980,17	173,529
980,34	79,452
980,51	566,667
980,67	42,222
980,84	78,571
981,01	202,941
981,17	97,059
981,34	85,714
981,50	83,158
981,67	152,381
981,84	3,571
982,00	6400,000
982,17	150,000
982,34	168,293
982,50	0,000
982,67	-28,571
982,84	475,000
983,00	111,111
983,17	-700,000
983,33	433,333
983,50	170,732
983,67	88,406
983,83	333,333
984,00	130,435
984,17	1222,222
984,33	-307,143
984,50	127,027
984,66	93,750
984,83	275,000
985,00	261,538
985,16	122,581
985,33	4300,000
985,49	136,047
985,66	145,000
985,83	-966,667
985,99	311,111
986,16	294,737
986,32	106,849
986,49	-1140,000
986,66	-40,000
986,82	148,485
986,99	-960,000
987,15	151,515
987,32	258,824
987,49	250,000
987,65	-34,783
987,82	-30,000
987,98	137,879
988,15	542,857
988,31	157,143
988,48	180,392
988,65	520,000
988,81	150,909
988,98	240,541
989,14	190,000
989,31	106,780
989,47	-32,143
989,64	216,667
989,80	74,468
989,97	163,636
990,14	542,857
990,30	-1000,000
990,47	-4,167
990,63	231,579
990,80	816,667
990,96	408,333
991,13	276,667
991,29	200,000
991,46	143,750
991,62	0,000
991,79	-220,000
991,95	441,176
992,12	966,667
992,29	-138,095
992,45	80,952
992,62	-164,286
992,78	-716,667
992,95	290,323
993,11	900,000
993,28	-8900,000
993,44	-106,897
993,61	164,912
993,77	0,000
993,94	302,564
994,10	900,000
994,27	-15,789
994,43	178,125
994,60	485,714
994,76	181,818
994,93	-640,000
995,09	-450,000
995,26	537,500
995,42	312,500
995,59	263,333
995,75	-366,667
995,92	-671,429
996,08	-1540,000
996,25	172,727
996,41	740,000
996,58	232,000
996,74	-510,000
996,91	145,161
997,07	196,000
997,23	139,216
997,40	1083,333
997,56	-2633,333
997,73	395,652
997,89	1000,000
998,06	143,860
998,22	172,340
998,39	224,490
998,55	505,263
998,72	-5400,000
998,88	146,000
999,05	646,667
999,21	317,647
999,37	255,814
999,54	232,258
999,70	352,381
999,87	816,667
1000,03	336,667
1000,20	385,714
1000,36	-787,500
1000,52	-100,000
1000,69	404,000
1000,85	-283,333
1001,02	180,952
1001,18	680,000
1001,35	0,000
1001,51	550,000
1001,67	370,000
1001,84	153,659
1002,00	-745,455
1002,17	1075,000
1002,33	-375,000
1002,50	833,333
1002,66	725,000
1002,82	134,146
1002,99	-168,182
1003,15	-4200,000
1003,32	-150,000
1003,48	-1333,333
1003,64	347,826
1003,81	-194,737
1003,97	137,681
1004,14	-185,455
1004,30	218,182
1004,46	-5200,000
1004,63	-461,538
1004,79	227,027
1004,95	-1380,000
1005,12	-353,846
1005,28	191,667
1005,45	-1250,000
1005,61	361,538
1005,77	-785,714
1005,94	210,870
1006,10	-490,000
1006,26	-100,000
1006,43	281,818
1006,59	296,774
1006,76	-180,000
1006,92	300,000
1007,08	98,485
1007,25	202,778
1007,41	240,909
1007,57	-317,647
1007,74	286,957
1007,90	-471,429
1008,06	-313,333
1008,23	-321,053
1008,39	119,444
1008,55	56,471
1008,72	-1062,500
1008,88	-197,143
1009,04	-844,444
1009,21	250,000
1009,37	335,484
1009,53	-255,000
1009,70	-16,667
1009,86	315,789
1010,02	177,273
1010,19	720,000
1010,35	4500,000
1010,51	200,000
1010,68	350,000
1010,84	345,000
1011,00	664,286
1011,17	3466,667
1011,33	150,000
1011,49	343,750
1011,66	331,250
1011,82	-700,000
1011,98	586,667
1012,14	300,000
1012,31	156,818
1012,47	-700,000
1012,63	4600,000
1012,80	333,333
1012,96	197,222
1013,12	-107,407
1013,29	354,167
1013,45	-232,353
1013,61	-1980,000
1013,77	-644,444
1013,94	312,500
1014,10	8000,000
1014,26	-8,824
1014,43	336,842
1014,59	0,000
1014,75	520,000
1014,91	302,857
1015,08	380,769
1015,24	486,667
1015,40	460,000
1015,56	394,118
1015,73	230,612
1015,89	555,556
1016,05	321,622
1016,21	240,741
1016,38	231,579
1016,54	-256,000
1016,70	500,000
1016,86	-700,000
1017,03	0,000
1017,19	800,000
1017,35	316,667
1017,51	566,667
1017,68	714,286
1017,84	378,947
1018,00	400,000
1018,16	-312,500
1018,33	436,364
1018,49	207,143
1018,65	-322,727
1018,81	24,390
1018,97	607,692
1019,14	-928,571
1019,30	261,905
1019,46	202,564
1019,62	2200,000
1019,79	-857,143
1019,95	-1525,000
1020,11	460,000
1020,27	220,000
1020,43	-750,000
1020,60	0,000
1020,76	147,059
1020,92	6500,000
1021,08	-115,556
1021,24	-1750,000
1021,41	281,818
1021,57	-379,167
1021,73	0,000
1021,89	-413,636
1022,05	194,286
1022,21	-192,308
1022,38	231,579
1022,54	1800,000
1022,70	366,667
1022,86	-3650,000
1023,02	477,778
1023,19	-295,000
1023,35	143,396
1023,51	216,129
1023,67	115,789
1023,83	327,273
1023,99	171,429
1024,16	-16,923
1024,32	418,750
1024,48	224,490
1024,64	-160,000
1024,80	583,333
1024,96	684,615
1025,12	1766,667
1025,29	-775,000
1025,45	212,500
1025,61	2833,333
1025,77	419,048
1025,93	-438,462
1026,09	5400,000
1026,26	-1157,143
1026,42	-1625,000
1026,58	155,769
1026,74	1142,857
1026,90	352,632
1027,06	-320,000
1027,22	-416,667
1027,38	966,667
1027,55	-332,000
1027,71	337,500
1027,87	272,500
1028,03	81,818
1028,19	-196,970
1028,35	70,270
1028,51	-20,968
1028,67	-360,000
1028,83	147,619
1029,00	371,429
1029,16	-533,333
1029,32	247,059
1029,48	3450,000
1029,64	971,429
1029,80	1200,000
1029,96	147,059
1030,12	-62,500
1030,28	1600,000
1030,44	-2850,000
1030,61	265,625
1030,77	-234,783
1030,93	158,140
1031,09	-407,143
1031,25	-300,000
1031,41	-1400,000
1031,57	15,789
1031,73	481,818
1031,89	-145,455
1032,05	1228,571
1032,21	1090,000
1032,37	-144,118
1032,53	-30,000
1032,69	-3200,000
1032,86	1600,000
1033,02	375,000
1033,18	-523,077
1033,34	-284,615
1033,50	222,581
1033,66	-833,333
1033,82	325,000
1033,98	-429,412
1034,14	900,000
1034,30	-209,091
1034,46	395,833
1034,62	366,667
1034,78	142,857
1034,94	-6,452
1035,10	-395,455
1035,26	-1055,556
1035,42	120,000
1035,58	780,000
1035,74	-200,000
1035,90	-258,333
1036,06	126,415
1036,22	-228,000
1036,38	713,333
1036,54	410,000
1036,70	-3450,000
1036,86	-328,571
1037,02	-1350,000
1037,18	-121,429
1037,34	404,348
1037,50	-413,333
1037,66	-2233,333
1037,82	-129,412
1037,98	423,810
1038,14	-200,000
1038,30	51,923
1038,46	143,750
1038,62	119,355
1038,78	150,000
1038,94	-160,526
1039,10	-212,500
1039,26	-273,684
1039,42	-528,571
1039,58	109,434
1039,74	81,250
1039,90	-169,231
1040,06	347,059
>>>>>End Processed Spectral Data<<<<<
