SpectraSuite Data File
++++++++++++++++++++++++++++++++++++
Date: Tue Jan 31 18:55:56 EET 2017
User: optolab
Dark Spectrum Present: Yes
Reference Spectrum Present: Yes
Number of Sampled Component Spectra: 1
Spectrometers: USB4C02475
Integration Time (usec): 100000 (USB4C02475)
Spectra Averaged: 1 (USB4C02475)
Boxcar Smoothing: 0 (USB4C02475)
Correct for Electrical Dark: No (USB4C02475)
Strobe/Lamp Enabled: No (USB4C02475)
Correct for Detector Non-linearity: No (USB4C02475)
Correct for Stray Light: No (USB4C02475)
Number of Pixels in Processed Spectrum: 3648
>>>>>Begin Processed Spectral Data<<<<<
344,91	323,077
345,13	323,077
345,35	323,077
345,57	0,000
345,79	150,000
346,00	40,000
346,22	-19,444
346,44	369,231
346,66	400,000
346,87	250,000
347,09	61,111
347,31	-2333,333
347,53	-433,333
347,74	-84,615
347,96	133,333
348,18	1800,000
348,40	-92,857
348,61	85,714
348,83	104,878
349,05	66,071
349,27	310,526
349,48	105,769
349,70	147,059
349,92	153,659
350,14	211,111
350,35	126,829
350,57	82,857
350,79	205,882
351,01	284,615
351,22	-25,000
351,44	66,667
351,66	100,000
351,87	89,744
352,09	330,303
352,31	406,250
352,53	57,778
352,74	9,524
352,96	125,581
353,18	48,148
353,40	115,217
353,61	100,000
353,83	350,000
354,05	190,909
354,26	146,429
354,48	-1550,000
354,70	12,195
354,92	163,636
355,13	108,824
355,35	0,000
355,57	13,889
355,78	111,765
356,00	126,471
356,22	177,778
356,44	-130,769
356,65	153,030
356,87	-71,429
357,09	206,667
357,30	39,683
357,52	148,214
357,74	50,000
357,95	360,000
358,17	783,333
358,39	76,471
358,60	650,000
358,82	152,941
359,04	-206,250
359,26	123,438
359,47	100,000
359,69	56,757
359,91	203,846
360,12	307,692
360,34	100,000
360,56	82,759
360,77	-14,286
360,99	136,538
361,21	95,833
361,42	165,625
361,64	484,615
361,86	193,750
362,07	67,308
362,29	77,941
362,51	173,077
362,72	48,649
362,94	200,000
363,16	405,000
363,37	37,097
363,59	193,103
363,81	-122,222
364,02	43,529
364,24	191,304
364,46	129,730
364,67	126,667
364,89	305,000
365,11	600,000
365,32	93,976
365,54	200,000
365,76	115,517
365,97	328,571
366,19	500,000
366,41	207,692
366,62	163,158
366,84	173,684
367,05	76,923
367,27	-66,667
367,49	197,561
367,70	675,000
367,92	96,774
368,14	200,000
368,35	133,803
368,57	110,256
368,79	102,941
369,00	0,000
369,22	241,667
369,43	281,818
369,65	74,627
369,87	74,648
370,08	1014,286
370,30	235,294
370,51	116,667
370,73	48,077
370,95	261,905
371,16	800,000
371,38	129,545
371,60	34,615
371,81	189,189
372,03	263,158
372,24	645,455
372,46	85,366
372,68	162,500
372,89	174,286
373,11	119,048
373,32	240,000
373,54	102,000
373,76	129,787
373,97	40,860
374,19	137,838
374,40	33,333
374,62	-0,000
374,84	280,000
375,05	116,216
375,27	52,830
375,48	83,721
375,70	102,273
375,92	91,667
376,13	26,667
376,35	2066,667
376,56	85,333
376,78	81,250
376,99	66,234
377,21	-5400,000
377,43	54,167
377,64	231,579
377,86	141,304
378,07	106,667
378,29	-48,387
378,51	56,410
378,72	42,222
378,94	75,000
379,15	142,857
379,37	119,643
379,58	101,786
379,80	-23,077
380,01	437,500
380,23	126,316
380,45	76,923
380,66	255,556
380,88	-350,000
381,09	130,000
381,31	69,565
381,52	158,333
381,74	116,418
381,95	63,415
382,17	133,333
382,39	204,545
382,60	384,615
382,82	142,857
383,03	138,462
383,25	69,231
383,46	80,488
383,68	162,500
383,89	800,000
384,11	-22,727
384,32	-350,000
384,54	155,556
384,76	4600,000
384,97	74,074
385,19	-6,250
385,40	95,833
385,62	133,333
385,83	110,811
386,05	102,326
386,26	-35,135
386,48	248,000
386,69	62,264
386,91	352,941
387,12	291,667
387,34	105,882
387,55	29,545
387,77	147,619
387,98	-514,286
388,20	25,806
388,41	320,513
388,63	200,000
388,84	149,231
389,06	117,949
389,27	178,571
389,49	153,125
389,70	41,667
389,92	89,063
390,13	-195,652
390,35	58,000
390,56	92,424
390,78	119,355
390,99	933,333
391,21	116,071
391,42	113,115
391,64	155,556
391,85	133,333
392,07	72,000
392,28	77,500
392,50	64,912
392,71	-33,333
392,93	259,459
393,14	-247,368
393,36	181,250
393,57	96,078
393,79	107,576
394,00	87,273
394,22	-27,273
394,43	92,500
394,65	1125,000
394,86	113,636
395,08	93,151
395,29	76,744
395,50	200,000
395,72	52,778
395,93	200,000
396,15	121,127
396,36	96,226
396,58	77,778
396,79	125,455
397,01	73,494
397,22	327,778
397,44	-540,000
397,65	71,053
397,87	23,077
398,08	66,000
398,29	162,500
398,51	212,500
398,72	70,000
398,94	121,622
399,15	91,837
399,37	112,821
399,58	190,323
399,80	-28,125
400,01	97,101
400,22	34,694
400,44	106,667
400,65	373,333
400,87	60,656
401,08	85,526
401,30	55,000
401,51	103,030
401,72	88,372
401,94	70,968
402,15	86,441
402,37	148,485
402,58	204,444
402,80	30,357
403,01	88,298
403,22	101,667
403,44	53,750
403,65	163,636
403,87	30,769
404,08	30,769
404,30	6,897
404,51	76,786
404,72	87,805
404,94	97,143
405,15	46,377
405,37	104,167
405,58	59,091
405,79	89,873
406,01	100,000
406,22	-9,756
406,44	53,061
406,65	42,466
406,86	12,121
407,08	102,778
407,29	2,247
407,51	33,673
407,72	138,889
407,93	71,812
408,15	28,378
408,36	77,778
408,58	50,407
408,79	38,710
409,00	53,409
409,22	70,330
409,43	25,843
409,64	13,158
409,86	39,716
410,07	25,926
410,29	67,416
410,50	47,945
410,71	27,907
410,93	16,471
411,14	56,250
411,35	21,552
411,57	51,942
411,78	7,109
412,00	35,593
412,21	34,682
412,42	27,451
412,64	31,944
412,85	12,953
413,06	40,488
413,28	40,571
413,49	1,136
413,70	41,155
413,92	18,352
414,13	18,533
414,34	3,653
414,56	1,935
414,77	8,712
414,98	19,701
415,20	31,362
415,41	18,182
415,63	11,585
415,84	11,350
416,05	16,262
416,27	16,908
416,48	17,750
416,69	23,188
416,91	29,065
417,12	14,645
417,33	25,178
417,55	19,163
417,76	24,089
417,97	28,827
418,19	26,829
418,40	31,579
418,61	23,328
418,83	30,466
419,04	28,618
419,25	40,196
419,46	42,296
419,68	36,947
419,89	43,769
420,10	31,533
420,32	37,136
420,53	38,519
420,74	37,146
420,96	35,624
421,17	40,440
421,38	40,066
421,60	42,217
421,81	45,914
422,02	40,303
422,23	48,319
422,45	42,055
422,66	38,220
422,87	42,211
423,09	48,520
423,30	46,829
423,51	44,090
423,73	47,148
423,94	48,194
424,15	44,379
424,36	48,208
424,58	51,197
424,79	46,013
425,00	46,558
425,22	48,079
425,43	49,139
425,64	45,326
425,85	50,082
426,07	45,697
426,28	48,532
426,49	46,770
426,71	48,355
426,92	46,963
427,13	48,095
427,34	46,424
427,56	46,778
427,77	49,105
427,98	47,789
428,19	43,864
428,41	48,511
428,62	46,749
428,83	45,795
429,04	46,115
429,26	45,800
429,47	48,251
429,68	43,803
429,89	47,153
430,11	48,303
430,32	46,303
430,53	47,720
430,74	47,560
430,96	48,398
431,17	52,352
431,38	50,099
431,59	52,110
431,81	53,616
432,02	57,457
432,23	57,503
432,44	62,311
432,66	65,536
432,87	66,887
433,08	69,077
433,29	72,428
433,51	75,504
433,72	75,374
433,93	78,237
434,14	78,697
434,35	78,834
434,57	78,602
434,78	77,873
434,99	80,530
435,20	79,120
435,42	80,548
435,63	79,557
435,84	79,106
436,05	82,530
436,26	83,975
436,48	84,405
436,69	85,045
436,90	85,053
437,11	84,823
437,32	84,957
437,54	84,600
437,75	84,503
437,96	83,688
438,17	82,672
438,38	81,108
438,60	78,098
438,81	77,784
439,02	76,839
439,23	78,316
439,44	76,920
439,66	76,557
439,87	76,257
440,08	75,206
440,29	75,649
440,50	73,444
440,72	74,468
440,93	73,456
441,14	73,311
441,35	72,176
441,56	72,467
441,77	72,088
441,99	73,615
442,20	73,689
442,41	73,329
442,62	76,325
442,83	77,769
443,04	80,170
443,26	82,989
443,47	83,633
443,68	86,150
443,89	88,034
444,10	88,185
444,31	89,428
444,53	89,848
444,74	91,622
444,95	91,332
445,16	91,282
445,37	90,576
445,58	90,485
445,80	90,399
446,01	88,632
446,22	88,902
446,43	88,440
446,64	86,987
446,85	86,215
447,06	84,515
447,28	86,837
447,49	83,839
447,70	84,351
447,91	84,200
448,12	82,542
448,33	83,283
448,54	82,287
448,76	83,976
448,97	83,176
449,18	84,083
449,39	85,294
449,60	83,402
449,81	85,010
450,02	83,873
450,23	83,669
450,45	84,775
450,66	84,947
450,87	83,400
451,08	82,805
451,29	81,978
451,50	80,982
451,71	78,174
451,92	77,004
452,13	76,899
452,35	74,858
452,56	73,288
452,77	73,389
452,98	72,905
453,19	72,106
453,40	72,386
453,61	72,891
453,82	73,964
454,03	75,688
454,25	74,286
454,46	75,380
454,67	77,671
454,88	79,356
455,09	79,933
455,30	80,311
455,51	80,455
455,72	80,842
455,93	80,819
456,14	80,525
456,35	80,257
456,56	80,692
456,78	80,453
456,99	80,318
457,20	79,719
457,41	80,520
457,62	79,073
457,83	78,402
458,04	79,840
458,25	77,743
458,46	79,096
458,67	77,628
458,88	77,569
459,09	77,307
459,30	76,740
459,51	75,036
459,73	73,118
459,94	73,255
460,15	70,286
460,36	69,765
460,57	67,554
460,78	65,851
460,99	64,394
461,20	61,972
461,41	59,490
461,62	57,814
461,83	55,651
462,04	54,202
462,25	50,912
462,46	49,874
462,67	47,351
462,88	45,981
463,09	43,213
463,30	39,792
463,51	38,175
463,72	35,468
463,93	32,700
464,15	30,095
464,36	28,255
464,57	25,720
464,78	23,115
464,99	21,214
465,20	18,995
465,41	17,103
465,62	14,574
465,83	13,093
466,04	11,353
466,25	9,907
466,46	8,410
466,67	7,367
466,88	6,384
467,09	5,285
467,30	4,159
467,51	3,570
467,72	3,001
467,93	2,288
468,14	1,965
468,35	1,804
468,56	1,228
468,77	1,289
468,98	1,025
469,19	0,849
469,40	0,807
469,61	0,678
469,82	0,598
470,03	0,639
470,24	0,423
470,45	0,678
470,66	0,442
470,87	0,418
471,08	0,445
471,29	0,135
471,50	0,288
471,71	0,299
471,92	0,384
472,13	0,272
472,34	0,328
472,55	0,293
472,76	0,322
472,97	0,336
473,18	0,437
473,39	0,290
473,60	0,454
473,81	0,478
474,01	0,215
474,22	0,378
474,43	0,258
474,64	0,187
474,85	0,358
475,06	0,321
475,27	0,155
475,48	0,258
475,69	0,343
475,90	0,451
476,11	0,352
476,32	0,178
476,53	0,506
476,74	0,417
476,95	0,179
477,16	0,357
477,37	0,306
477,58	0,475
477,79	0,333
478,00	0,224
478,21	0,442
478,41	0,209
478,62	0,145
478,83	0,204
479,04	0,414
479,25	0,261
479,46	0,309
479,67	0,382
479,88	0,445
480,09	0,267
480,30	0,233
480,51	0,132
480,72	0,379
480,93	0,204
481,14	0,395
481,34	0,443
481,55	0,485
481,76	0,296
481,97	0,332
482,18	0,111
482,39	0,281
482,60	0,385
482,81	0,392
483,02	0,366
483,23	0,109
483,44	0,153
483,65	0,236
483,85	0,236
484,06	0,304
484,27	0,226
484,48	0,226
484,69	0,429
484,90	0,086
485,11	0,190
485,32	0,043
485,53	0,395
485,73	0,310
485,94	0,174
486,15	0,283
486,36	0,196
486,57	0,332
486,78	0,292
486,99	0,091
487,20	0,471
487,41	0,322
487,61	0,184
487,82	0,184
488,03	0,232
488,24	0,111
488,45	0,246
488,66	0,337
488,87	0,231
489,08	0,061
489,28	0,274
489,49	0,287
489,70	0,335
489,91	0,325
490,12	0,211
490,33	0,432
490,54	0,267
490,74	0,272
490,95	0,264
491,16	0,312
491,37	0,086
491,58	0,150
491,79	0,351
492,00	0,058
492,20	0,350
492,41	0,251
492,62	0,237
492,83	0,411
493,04	0,217
493,25	0,076
493,45	0,324
493,66	0,371
493,87	0,268
494,08	0,172
494,29	0,394
494,50	0,319
494,70	0,172
494,91	0,398
495,12	0,320
495,33	0,326
495,54	0,318
495,75	0,369
495,95	0,233
496,16	0,383
496,37	0,388
496,58	0,276
496,79	0,279
496,99	0,504
497,20	0,193
497,41	0,357
497,62	0,406
497,83	0,358
498,04	0,332
498,24	0,392
498,45	0,244
498,66	0,318
498,87	0,414
499,08	0,252
499,28	0,222
499,49	0,258
499,70	0,362
499,91	0,338
500,12	0,382
500,32	0,207
500,53	0,392
500,74	0,391
500,95	0,263
501,15	0,405
501,36	0,460
501,57	0,195
501,78	0,515
501,99	0,170
502,19	0,206
502,40	0,451
502,61	0,281
502,82	0,369
503,02	0,633
503,23	0,420
503,44	0,551
503,65	0,837
503,86	0,744
504,06	1,055
504,27	1,317
504,48	1,218
504,69	1,471
504,89	1,584
505,10	1,935
505,31	2,048
505,52	2,389
505,72	2,904
505,93	3,526
506,14	3,595
506,35	3,989
506,55	4,469
506,76	5,043
506,97	5,995
507,18	6,428
507,38	7,231
507,59	8,039
507,80	9,252
508,01	9,922
508,21	10,856
508,42	12,081
508,63	13,145
508,84	14,357
509,04	15,568
509,25	16,953
509,46	18,127
509,67	19,762
509,87	20,334
510,08	21,842
510,29	23,462
510,49	24,924
510,70	26,334
510,91	26,889
511,12	29,257
511,32	29,890
511,53	31,509
511,74	32,905
511,94	34,208
512,15	35,341
512,36	36,266
512,57	37,466
512,77	38,283
512,98	39,175
513,19	39,993
513,39	40,962
513,60	41,330
513,81	42,057
514,01	43,523
514,22	43,838
514,43	43,476
514,64	44,698
514,84	45,003
515,05	45,286
515,26	45,782
515,46	46,482
515,67	46,607
515,88	46,814
516,08	47,144
516,29	48,285
516,50	47,722
516,70	48,227
516,91	48,024
517,12	48,032
517,32	49,310
517,53	50,225
517,74	48,825
517,95	48,867
518,15	49,788
518,36	49,346
518,57	48,938
518,77	49,363
518,98	49,453
519,19	49,701
519,39	49,590
519,60	49,227
519,80	50,089
520,01	49,471
520,22	49,773
520,42	49,911
520,63	50,650
520,84	50,586
521,04	50,871
521,25	51,547
521,46	51,756
521,66	52,883
521,87	53,492
522,08	54,448
522,28	56,512
522,49	56,360
522,70	57,994
522,90	60,062
523,11	62,430
523,31	63,430
523,52	65,605
523,73	67,004
523,93	69,471
524,14	71,396
524,35	73,733
524,55	75,514
524,76	77,221
524,97	80,134
525,17	81,836
525,38	83,169
525,58	84,389
525,79	87,689
526,00	88,220
526,20	89,511
526,41	90,601
526,61	90,331
526,82	91,174
527,03	91,289
527,23	91,659
527,44	93,157
527,64	92,851
527,85	92,198
528,06	91,713
528,26	91,927
528,47	92,237
528,68	92,967
528,88	92,613
529,09	92,881
529,29	92,547
529,50	93,022
529,70	92,877
529,91	91,366
530,12	92,191
530,32	92,423
530,53	91,684
530,73	92,850
530,94	93,218
531,15	91,047
531,35	90,977
531,56	91,347
531,76	90,175
531,97	90,819
532,17	89,087
532,38	89,592
532,59	88,689
532,79	88,709
533,00	89,885
533,20	88,495
533,41	90,038
533,61	89,044
533,82	89,129
534,03	89,715
534,23	89,205
534,44	89,740
534,64	89,589
534,85	90,498
535,05	91,767
535,26	91,535
535,46	91,935
535,67	92,102
535,88	93,115
536,08	92,863
536,29	92,879
536,49	93,793
536,70	94,382
536,90	94,880
537,11	96,065
537,31	94,996
537,52	96,011
537,72	95,374
537,93	95,869
538,13	96,501
538,34	95,729
538,55	95,569
538,75	96,750
538,96	96,956
539,16	95,893
539,37	96,639
539,57	96,674
539,78	96,690
539,98	95,958
540,19	97,655
540,39	96,883
540,60	96,646
540,80	96,873
541,01	96,373
541,21	97,042
541,42	96,347
541,62	97,210
541,83	96,795
542,03	97,759
542,24	98,083
542,44	96,038
542,65	96,951
542,85	97,608
543,06	97,212
543,26	97,587
543,47	97,121
543,67	98,251
543,88	98,119
544,08	99,280
544,29	97,865
544,49	98,813
544,70	97,500
544,90	98,415
545,11	96,651
545,31	96,989
545,52	97,132
545,72	97,446
545,93	97,378
546,13	97,627
546,34	97,312
546,54	97,673
546,75	96,669
546,95	97,898
547,15	97,110
547,36	97,287
547,56	97,560
547,77	97,706
547,97	97,787
548,18	97,774
548,38	96,881
548,59	96,853
548,79	97,119
549,00	96,847
549,20	97,365
549,41	96,993
549,61	96,652
549,81	97,382
550,02	97,101
550,22	97,226
550,43	97,046
550,63	97,047
550,84	97,553
551,04	96,311
551,25	97,219
551,45	95,872
551,65	96,144
551,86	95,370
552,06	96,064
552,27	96,464
552,47	95,752
552,68	95,864
552,88	96,534
553,08	95,778
553,29	95,380
553,49	94,308
553,70	93,684
553,90	94,189
554,11	95,776
554,31	94,774
554,51	94,927
554,72	95,028
554,92	94,307
555,13	95,058
555,33	94,603
555,53	95,226
555,74	93,779
555,94	94,674
556,15	94,392
556,35	93,566
556,56	94,622
556,76	93,687
556,96	93,799
557,17	93,884
557,37	92,349
557,58	92,067
557,78	91,678
557,98	92,239
558,19	91,613
558,39	90,943
558,59	90,185
558,80	89,890
559,00	89,127
559,21	87,912
559,41	87,505
559,61	87,400
559,82	85,747
560,02	84,106
560,23	83,314
560,43	81,441
560,63	80,694
560,84	79,142
561,04	77,247
561,24	75,195
561,45	73,776
561,65	70,683
561,85	69,472
562,06	66,623
562,26	63,709
562,47	61,515
562,67	58,054
562,87	55,909
563,08	52,875
563,28	49,286
563,48	46,027
563,69	43,157
563,89	39,464
564,09	36,468
564,30	33,554
564,50	30,598
564,70	27,529
564,91	24,584
565,11	22,379
565,31	19,913
565,52	17,731
565,72	15,321
565,92	14,094
566,13	12,375
566,33	10,736
566,53	9,536
566,74	8,674
566,94	7,510
567,14	6,643
567,35	5,804
567,55	5,400
567,75	4,709
567,96	4,377
568,16	3,725
568,36	3,588
568,57	3,096
568,77	2,583
568,97	2,493
569,18	1,932
569,38	1,897
569,58	1,611
569,79	1,441
569,99	1,367
570,19	0,871
570,39	0,823
570,60	0,940
570,80	0,646
571,00	0,615
571,21	0,623
571,41	0,615
571,61	0,397
571,82	0,585
572,02	0,478
572,22	0,292
572,42	0,274
572,63	0,289
572,83	0,473
573,03	0,220
573,24	0,350
573,44	0,381
573,64	0,252
573,84	0,432
574,05	0,395
574,25	0,309
574,45	0,360
574,66	0,309
574,86	0,253
575,06	0,340
575,26	0,401
575,47	0,354
575,67	0,256
575,87	0,187
576,07	0,337
576,28	0,507
576,48	0,218
576,68	0,319
576,88	0,215
577,09	0,142
577,29	0,255
577,49	0,199
577,69	0,300
577,90	0,197
578,10	0,207
578,30	0,150
578,50	0,228
578,71	0,222
578,91	0,312
579,11	0,526
579,31	0,260
579,52	0,293
579,72	0,271
579,92	0,173
580,12	0,418
580,33	0,459
580,53	0,080
580,73	0,318
580,93	0,216
581,13	0,324
581,34	0,193
581,54	0,102
581,74	0,271
581,94	0,378
582,15	0,405
582,35	0,376
582,55	0,279
582,75	0,196
582,95	0,403
583,16	0,065
583,36	0,233
583,56	0,346
583,76	0,209
583,96	0,211
584,17	0,234
584,37	0,174
584,57	0,194
584,77	0,210
584,97	0,065
585,18	0,360
585,38	0,232
585,58	0,199
585,78	0,176
585,98	0,287
586,19	0,269
586,39	0,220
586,59	0,301
586,79	0,269
586,99	0,069
587,20	0,148
587,40	0,250
587,60	0,308
587,80	0,309
588,00	0,247
588,20	0,407
588,41	0,315
588,61	0,283
588,81	0,183
589,01	0,232
589,21	0,255
589,41	0,278
589,62	0,177
589,82	0,186
590,02	0,283
590,22	0,287
590,42	0,321
590,62	0,262
590,83	0,340
591,03	0,249
591,23	0,319
591,43	0,378
591,63	0,260
591,83	0,453
592,03	0,433
592,24	0,314
592,44	0,515
592,64	0,473
592,84	0,643
593,04	0,697
593,24	0,846
593,44	0,756
593,65	1,200
593,85	1,311
594,05	1,217
594,25	1,524
594,45	2,055
594,65	2,034
594,85	2,462
595,06	2,461
595,26	3,413
595,46	3,586
595,66	3,989
595,86	4,834
596,06	5,415
596,26	5,994
596,46	6,606
596,66	7,382
596,87	8,236
597,07	9,152
597,27	9,842
597,47	10,766
597,67	11,685
597,87	12,769
598,07	13,677
598,27	14,576
598,47	15,794
598,67	16,363
598,88	17,474
599,08	18,743
599,28	19,639
599,48	20,653
599,68	21,717
599,88	22,397
600,08	23,132
600,28	24,385
600,48	25,106
600,68	26,090
600,88	26,696
601,09	27,329
601,29	28,342
601,49	29,532
601,69	29,744
601,89	30,129
602,09	31,210
602,29	31,257
602,49	32,094
602,69	32,885
602,89	33,609
603,09	33,848
603,29	34,790
603,49	35,416
603,69	36,201
603,90	36,838
604,10	37,537
604,30	38,116
604,50	38,342
604,70	39,020
604,90	39,478
605,10	40,277
605,30	40,798
605,50	41,404
605,70	42,327
605,90	42,142
606,10	42,336
606,30	43,762
606,50	43,277
606,70	43,101
606,90	43,643
607,10	44,005
607,30	44,120
607,50	44,260
607,70	44,171
607,90	44,480
608,10	44,670
608,30	45,415
608,50	44,494
608,70	45,382
608,90	44,484
609,11	46,118
609,31	45,812
609,51	45,814
609,71	45,863
609,91	45,906
610,11	46,315
610,31	46,085
610,51	46,297
610,71	46,833
610,91	46,608
611,11	46,787
611,31	47,224
611,51	47,636
611,71	47,705
611,91	47,731
612,11	47,165
612,31	48,994
612,51	49,312
612,71	50,006
612,91	50,030
613,11	51,429
613,31	51,410
613,51	52,924
613,71	53,510
613,91	55,212
614,11	56,626
614,31	57,921
614,50	59,728
614,70	60,976
614,90	63,493
615,10	64,350
615,30	65,944
615,50	67,272
615,70	69,090
615,90	69,882
616,10	70,849
616,30	73,718
616,50	74,466
616,70	75,735
616,90	78,016
617,10	77,191
617,30	78,702
617,50	79,629
617,70	80,792
617,90	81,101
618,10	81,878
618,30	82,874
618,50	82,431
618,70	82,889
618,90	83,210
619,10	83,378
619,30	83,744
619,49	85,004
619,69	84,212
619,89	84,637
620,09	84,131
620,29	84,197
620,49	83,833
620,69	85,363
620,89	83,758
621,09	84,420
621,29	84,621
621,49	84,009
621,69	83,830
621,89	84,523
622,09	83,340
622,29	84,093
622,48	83,191
622,68	83,977
622,88	84,304
623,08	82,732
623,28	83,509
623,48	83,807
623,68	83,251
623,88	83,083
624,08	83,022
624,28	83,612
624,48	82,981
624,67	83,339
624,87	84,200
625,07	83,944
625,27	84,056
625,47	84,695
625,67	83,974
625,87	83,956
626,07	84,201
626,27	84,180
626,47	83,128
626,66	83,933
626,86	84,090
627,06	83,492
627,26	84,707
627,46	83,683
627,66	84,223
627,86	84,185
628,06	83,420
628,25	84,607
628,45	84,024
628,65	84,543
628,85	84,888
629,05	84,825
629,25	84,566
629,45	84,051
629,65	84,295
629,84	84,502
630,04	85,882
630,24	84,975
630,44	85,295
630,64	86,338
630,84	86,097
631,04	86,505
631,23	87,674
631,43	86,840
631,63	87,940
631,83	88,497
632,03	89,110
632,23	88,489
632,42	89,542
632,62	88,372
632,82	89,527
633,02	89,431
633,22	89,635
633,42	90,204
633,62	90,854
633,81	90,398
634,01	90,735
634,21	90,817
634,41	90,305
634,61	90,322
634,80	90,693
635,00	91,011
635,20	91,326
635,40	92,206
635,60	92,200
635,80	92,824
635,99	92,203
636,19	90,780
636,39	92,117
636,59	92,464
636,79	91,255
636,98	91,268
637,18	92,543
637,38	91,632
637,58	91,108
637,78	91,382
637,97	91,461
638,17	91,986
638,37	91,332
638,57	92,992
638,77	91,456
638,96	92,043
639,16	91,277
639,36	92,255
639,56	91,994
639,76	92,243
639,95	91,224
640,15	91,955
640,35	92,327
640,55	92,455
640,75	93,387
640,94	92,163
641,14	92,637
641,34	92,653
641,54	93,546
641,73	92,308
641,93	93,233
642,13	91,813
642,33	92,689
642,53	92,850
642,72	92,400
642,92	92,705
643,12	93,261
643,32	93,412
643,51	92,131
643,71	91,832
643,91	92,528
644,11	92,069
644,30	91,836
644,50	91,347
644,70	91,188
644,90	91,294
645,09	89,746
645,29	89,795
645,49	89,510
645,69	88,811
645,88	89,447
646,08	87,836
646,28	86,493
646,48	84,299
646,67	84,525
646,87	83,239
647,07	82,141
647,26	81,535
647,46	78,491
647,66	77,443
647,86	75,436
648,05	72,320
648,25	72,480
648,45	69,275
648,65	68,896
648,84	67,768
649,04	63,752
649,24	62,881
649,43	59,289
649,63	59,808
649,83	57,519
650,03	55,621
650,22	54,347
650,42	52,574
650,62	49,435
650,81	48,810
651,01	45,903
651,21	44,871
651,40	43,012
651,60	41,838
651,80	39,561
652,00	38,084
652,19	35,319
652,39	34,397
652,59	31,499
652,78	29,337
652,98	28,192
653,18	26,823
653,37	24,381
653,57	22,901
653,77	21,058
653,96	19,068
654,16	17,863
654,36	16,248
654,55	14,777
654,75	13,014
654,95	11,829
655,14	10,620
655,34	9,701
655,54	8,997
655,73	7,468
655,93	7,403
656,13	5,761
656,32	5,413
656,52	4,803
656,72	4,384
656,91	3,712
657,11	3,252
657,31	2,580
657,50	2,513
657,70	2,360
657,90	1,764
658,09	1,750
658,29	1,532
658,49	1,480
658,68	1,497
658,88	1,181
659,07	1,178
659,27	1,282
659,47	1,155
659,66	0,650
659,86	0,510
660,06	0,747
660,25	0,585
660,45	0,818
660,64	0,504
660,84	0,278
661,04	0,770
661,23	0,443
661,43	0,511
661,63	0,612
661,82	0,405
662,02	0,588
662,21	0,360
662,41	0,534
662,61	0,497
662,80	0,587
663,00	-0,269
663,19	0,320
663,39	0,386
663,59	0,411
663,78	0,198
663,98	0,331
664,17	0,131
664,37	0,488
664,57	0,432
664,76	0,257
664,96	0,372
665,15	0,613
665,35	0,318
665,55	0,474
665,74	0,309
665,94	-0,090
666,13	0,410
666,33	0,160
666,53	0,215
666,72	-0,087
666,92	0,390
667,11	0,349
667,31	0,351
667,50	0,054
667,70	0,047
667,90	0,178
668,09	0,085
668,29	0,254
668,48	0,053
668,68	0,000
668,87	0,415
669,07	0,372
669,26	0,247
669,46	0,320
669,66	0,637
669,85	0,180
670,05	0,015
670,24	0,424
670,44	0,554
670,63	0,557
670,83	0,211
671,02	0,275
671,22	0,336
671,42	0,398
671,61	0,101
671,81	0,087
672,00	0,007
672,20	0,140
672,39	0,200
672,59	-0,028
672,78	0,090
672,98	-0,159
673,17	0,156
673,37	0,498
673,56	0,478
673,76	0,385
673,95	-0,101
674,15	0,067
674,34	0,033
674,54	0,255
674,73	0,045
674,93	0,013
675,13	-0,083
675,32	0,212
675,52	-0,057
675,71	0,272
675,91	0,144
676,10	0,186
676,30	-0,044
676,49	0,210
676,69	0,123
676,88	0,171
677,08	0,138
677,27	-0,078
677,47	-0,071
677,66	0,352
677,86	0,070
678,05	-0,076
678,24	-0,249
678,44	-0,242
678,63	-0,034
678,83	0,011
679,02	0,271
679,22	0,134
679,41	0,077
679,61	0,242
679,80	0,268
680,00	-0,070
680,19	-0,027
680,39	0,090
680,58	0,085
680,78	-0,042
680,97	0,079
681,17	-0,010
681,36	-0,047
681,56	0,142
681,75	0,096
681,94	-0,161
682,14	0,224
682,33	0,198
682,53	-0,049
682,72	0,277
682,92	0,149
683,11	0,067
683,31	-0,052
683,50	-0,014
683,69	0,131
683,89	-0,047
684,08	0,088
684,28	0,086
684,47	-0,213
684,67	-0,108
684,86	-0,200
685,06	0,089
685,25	-0,136
685,44	-0,140
685,64	0,026
685,83	-0,220
686,03	0,180
686,22	0,013
686,42	-0,034
686,61	-0,029
686,80	0,054
687,00	0,037
687,19	0,167
687,39	-0,090
687,58	-0,122
687,77	-0,004
687,97	0,028
688,16	-0,139
688,36	0,127
688,55	-0,043
688,74	-0,093
688,94	0,078
689,13	0,100
689,33	-0,053
689,52	-0,019
689,71	-0,075
689,91	-0,194
690,10	0,108
690,30	0,011
690,49	0,197
690,68	-0,033
690,88	-0,015
691,07	-0,057
691,27	0,176
691,46	0,101
691,65	0,108
691,85	0,111
692,04	-0,152
692,23	-0,043
692,43	-0,086
692,62	0,087
692,82	-0,015
693,01	0,050
693,20	0,084
693,40	-0,084
693,59	-0,015
693,78	-0,122
693,98	-0,089
694,17	0,158
694,36	-0,098
694,56	-0,054
694,75	-0,086
694,94	0,063
695,14	0,124
695,33	0,000
695,53	-0,185
695,72	0,013
695,91	0,114
696,11	-0,030
696,30	-0,132
696,49	-0,215
696,69	0,074
696,88	0,113
697,07	0,097
697,27	0,238
697,46	0,127
697,65	-0,036
697,85	-0,032
698,04	-0,125
698,23	-0,403
698,43	0,428
698,62	0,018
698,81	0,282
699,01	-0,211
699,20	0,155
699,39	-0,093
699,58	0,110
699,78	-0,121
699,97	0,066
700,16	-0,227
700,36	0,016
700,55	0,474
700,74	-0,242
700,94	0,419
701,13	0,080
701,32	0,289
701,52	0,449
701,71	0,095
701,90	-0,128
702,09	0,010
702,29	0,125
702,48	-0,075
702,67	0,860
702,87	-0,139
703,06	-0,315
703,25	0,122
703,44	0,222
703,64	0,349
703,83	1,040
704,02	-0,437
704,22	0,113
704,41	0,084
704,60	0,606
704,79	-0,091
704,99	0,155
705,18	-0,417
705,37	1,006
705,56	0,373
705,76	1,606
705,95	0,216
706,14	-0,055
706,33	0,259
706,53	1,040
706,72	1,660
706,91	0,000
707,11	0,000
707,30	0,021
707,49	1,719
707,68	1,797
707,88	-0,592
708,07	0,093
708,26	0,657
708,45	0,120
708,64	0,341
708,84	0,801
709,03	0,803
709,22	0,396
709,41	1,105
709,61	-0,195
709,80	1,090
709,99	0,570
710,18	0,357
710,38	1,744
710,57	1,704
710,76	0,527
710,95	0,319
711,14	0,663
711,34	0,745
711,53	0,706
711,72	1,463
711,91	0,857
712,11	1,067
712,30	1,367
712,49	0,407
712,68	0,463
712,87	-0,547
713,07	2,320
713,26	1,533
713,45	0,165
713,64	0,369
713,83	2,784
714,03	1,117
714,22	-0,479
714,41	-0,045
714,60	0,561
714,79	-0,097
714,99	0,492
715,18	0,376
715,37	0,533
715,56	2,238
715,75	-0,568
715,94	-1,831
716,14	-3,078
716,33	0,259
716,52	-0,468
716,71	0,325
716,90	-1,319
717,10	3,529
717,29	1,065
717,48	2,268
717,67	0,847
717,86	-0,915
718,05	3,456
718,24	1,157
718,44	4,520
718,63	3,281
718,82	1,193
719,01	1,291
719,20	1,022
719,39	3,206
719,59	-0,190
719,78	-0,689
719,97	4,135
720,16	-0,840
720,35	5,606
720,54	2,554
720,73	1,015
720,93	0,557
721,12	0,216
721,31	5,175
721,50	3,054
721,69	4,254
721,88	1,827
722,07	0,379
722,27	-2,414
722,46	1,985
722,65	-0,759
722,84	2,368
723,03	0,861
723,22	2,358
723,41	0,645
723,60	-3,704
723,79	0,834
723,99	3,653
724,18	1,757
724,37	-2,660
724,56	1,918
724,75	0,000
724,94	5,605
725,13	4,240
725,32	4,599
725,51	0,358
725,71	1,533
725,90	-0,840
726,09	2,757
726,28	3,672
726,47	5,055
726,66	-0,974
726,85	0,487
727,04	4,008
727,23	4,395
727,42	1,195
727,61	2,183
727,81	4,442
728,00	3,611
728,19	0,741
728,38	-0,962
728,57	2,688
728,76	8,736
728,95	4,153
729,14	0,750
729,33	-2,436
729,52	5,840
729,71	5,239
729,90	2,445
730,09	2,367
730,28	5,201
730,48	-1,937
730,67	2,000
730,86	1,038
731,05	0,613
731,24	-1,060
731,43	6,183
731,62	1,605
731,81	2,860
732,00	1,619
732,19	4,261
732,38	0,727
732,57	-0,251
732,76	-5,970
732,95	2,439
733,14	3,213
733,33	1,667
733,52	2,846
733,71	3,989
733,90	3,873
734,09	1,736
734,28	6,430
734,47	-4,706
734,66	-1,122
734,85	3,103
735,04	4,878
735,23	7,895
735,42	5,674
735,61	-3,324
735,81	4,687
736,00	-1,955
736,19	4,198
736,38	4,812
736,57	2,057
736,76	-0,147
736,95	6,858
737,14	7,055
737,33	6,386
737,52	-5,775
737,71	4,573
737,90	7,348
738,09	-3,276
738,28	-3,896
738,47	0,804
738,66	3,898
738,85	1,732
739,04	5,153
739,22	-2,230
739,41	-3,665
739,60	2,154
739,79	4,973
739,98	12,429
740,17	7,264
740,36	4,356
740,55	8,197
740,74	-6,877
740,93	11,298
741,12	9,343
741,31	-3,681
741,50	2,787
741,69	5,545
741,88	10,158
742,07	6,890
742,26	-2,486
742,45	6,341
742,64	2,449
742,83	-3,297
743,02	0,201
743,21	-2,935
743,40	8,046
743,59	12,377
743,78	-4,219
743,97	6,831
744,16	0,000
744,34	-3,099
744,53	5,388
744,72	1,486
744,91	2,053
745,10	-1,379
745,29	-1,643
745,48	4,585
745,67	-1,111
745,86	0,415
746,05	2,461
746,24	-2,586
746,43	12,472
746,62	8,679
746,81	-4,028
747,00	11,667
747,18	4,091
747,37	7,500
747,56	17,162
747,75	-0,767
747,94	-1,010
748,13	6,075
748,32	3,659
748,51	5,386
748,70	-0,240
748,89	1,613
749,08	8,128
749,26	-2,667
749,45	7,026
749,64	3,101
749,83	4,423
750,02	1,340
750,21	13,021
750,40	7,652
750,59	1,596
750,78	6,747
750,96	15,711
751,15	5,094
751,34	6,388
751,53	-2,222
751,72	6,971
751,91	6,824
752,10	3,944
752,29	-3,478
752,47	4,885
752,66	7,692
752,85	4,762
753,04	14,595
753,23	10,863
753,42	9,726
753,61	14,894
753,80	-6,607
753,98	9,687
754,17	9,915
754,36	13,399
754,55	8,143
754,74	11,892
754,93	18,065
755,12	4,923
755,30	-13,284
755,49	2,053
755,68	10,685
755,87	-1,024
756,06	21,902
756,25	-7,261
756,43	-0,360
756,62	15,884
756,81	-14,118
757,00	18,681
757,19	8,896
757,38	0,000
757,56	7,770
757,75	-16,794
757,94	16,810
758,13	12,102
758,32	1,515
758,51	12,903
758,69	8,333
758,88	5,246
759,07	13,167
759,26	-2,381
759,45	3,571
759,63	-8,696
759,82	15,328
760,01	5,556
760,20	-11,679
760,39	4,215
760,57	2,146
760,76	-8,779
760,95	-5,747
761,14	0,385
761,33	25,000
761,51	17,778
761,70	19,310
761,89	14,341
762,08	31,034
762,27	1,923
762,45	12,264
762,64	11,062
762,83	16,357
763,02	4,498
763,21	11,268
763,39	-13,122
763,58	7,347
763,77	17,021
763,96	6,433
764,14	-5,809
764,33	21,053
764,52	13,393
764,71	-2,956
764,89	22,973
765,08	13,858
765,27	-3,465
765,46	-9,545
765,65	6,599
765,83	14,286
766,02	12,454
766,21	12,658
766,40	23,721
766,58	4,072
766,77	-18,644
766,96	3,590
767,15	-8,696
767,33	-0,481
767,52	2,844
767,71	-12,778
767,90	25,417
768,08	23,176
768,27	-6,047
768,46	9,524
768,64	-0,485
768,83	27,568
769,02	5,238
769,21	-2,604
769,39	10,738
769,58	6,000
769,77	3,804
769,96	2,649
770,14	18,321
770,33	14,973
770,52	12,821
770,70	8,911
770,89	28,061
771,08	-0,521
771,27	16,495
771,45	25,434
771,64	21,053
771,83	22,581
772,01	-15,267
772,20	12,121
772,39	17,197
772,57	19,271
772,76	-0,690
772,95	1,015
773,14	29,651
773,32	2,198
773,51	18,140
773,70	3,311
773,88	28,643
774,07	34,728
774,26	9,146
774,44	24,623
774,63	31,013
774,82	23,494
775,00	32,751
775,19	21,264
775,38	16,667
775,56	4,878
775,75	-4,790
775,94	35,075
776,12	18,333
776,31	8,982
776,50	6,667
776,68	22,840
776,87	17,483
777,06	-15,753
777,24	-5,738
777,43	4,065
777,62	-2,963
777,80	15,761
777,99	23,567
778,18	13,376
778,36	9,924
778,55	-3,704
778,74	-0,758
778,92	43,891
779,11	17,419
779,29	30,719
779,48	-15,702
779,67	-0,719
779,85	13,600
780,04	18,310
780,23	3,497
780,41	-2,353
780,60	0,585
780,79	29,167
780,97	23,571
781,16	0,800
781,34	21,212
781,53	21,154
781,72	44,444
781,90	66,346
782,09	22,951
782,28	34,959
782,46	7,317
782,65	-5,594
782,83	-11,450
783,02	34,400
783,21	52,713
783,39	37,821
783,58	47,333
783,76	33,784
783,95	35,762
784,14	-22,105
784,32	-22,936
784,51	21,348
784,69	15,287
784,88	30,323
785,06	11,348
785,25	9,774
785,44	31,757
785,62	30,714
785,81	20,896
785,99	4,082
786,18	44,262
786,37	31,034
786,55	9,701
786,74	60,870
786,92	16,279
787,11	16,000
787,29	25,882
787,48	7,000
787,67	4,082
787,85	21,875
788,04	30,822
788,22	53,704
788,41	27,632
788,59	53,741
788,78	48,611
788,96	87,619
789,15	40,164
789,34	51,220
789,52	31,343
789,71	-9,524
789,89	34,211
790,08	23,529
790,26	53,968
790,45	28,467
790,63	14,474
790,82	17,742
791,00	33,333
791,19	20,000
791,38	34,247
791,56	42,105
791,75	10,811
791,93	-11,765
792,12	31,061
792,30	6,579
792,49	7,477
792,67	42,857
792,86	62,162
793,04	3,175
793,23	51,974
793,41	53,548
793,60	33,544
793,78	57,047
793,97	44,828
794,15	11,111
794,34	56,122
794,52	39,535
794,71	43,827
794,89	32,143
795,08	68,590
795,26	53,000
795,45	70,213
795,63	30,818
795,82	64,706
796,00	50,769
796,19	85,714
796,37	33,051
796,56	105,556
796,74	35,937
796,93	12,605
797,11	35,833
797,30	64,885
797,48	63,636
797,67	25,000
797,85	50,000
798,04	58,559
798,22	31,655
798,41	90,678
798,59	27,143
798,77	55,556
798,96	40,323
799,14	54,630
799,33	38,053
799,51	66,337
799,70	28,571
799,88	30,275
800,07	35,971
800,25	61,069
800,44	26,733
800,62	45,324
800,80	78,409
800,99	39,744
801,17	55,862
801,36	43,750
801,54	58,140
801,73	66,667
801,91	67,416
802,10	56,471
802,28	23,622
802,46	62,903
802,65	36,424
802,83	0,826
803,02	42,857
803,20	24,576
803,39	37,615
803,57	41,549
803,75	27,143
803,94	45,270
804,12	36,025
804,31	72,115
804,49	56,129
804,67	-12,613
804,86	32,919
805,04	9,302
805,23	58,394
805,41	59,804
805,59	35,542
805,78	67,143
805,96	34,337
806,15	24,800
806,33	-7,299
806,51	36,538
806,70	20,930
806,88	7,273
807,07	33,607
807,25	20,870
807,43	18,889
807,62	29,688
807,80	22,561
807,99	50,360
808,17	38,889
808,35	32,075
808,54	27,933
808,72	5,769
808,90	35,772
809,09	29,197
809,27	26,214
809,46	22,430
809,64	34,104
809,82	19,310
810,01	26,344
810,19	2,727
810,37	26,136
810,56	14,570
810,74	42,138
810,92	11,268
811,11	26,380
811,29	33,540
811,48	0,870
811,66	18,782
811,84	-5,085
812,03	-2,703
812,21	33,333
812,39	27,419
812,58	58,480
812,76	22,628
812,94	24,161
813,13	40,244
813,31	28,042
813,49	30,667
813,68	20,492
813,86	24,359
814,04	36,937
814,23	12,308
814,41	29,452
814,59	19,608
814,78	39,597
814,96	32,961
815,14	37,186
815,33	8,264
815,51	-7,874
815,69	22,901
815,87	1,290
816,06	21,891
816,24	34,641
816,42	33,929
816,61	3,704
816,79	6,358
816,97	48,718
817,16	19,643
817,34	39,412
817,52	40,187
817,70	28,497
817,89	29,665
818,07	18,000
818,25	7,595
818,44	9,091
818,62	39,604
818,80	13,187
818,98	11,282
819,17	25,000
819,35	18,792
819,53	31,795
819,72	20,541
819,90	14,667
820,08	25,248
820,26	22,374
820,45	16,129
820,63	29,240
820,81	19,725
820,99	37,118
821,18	22,289
821,36	8,750
821,54	2,985
821,73	30,055
821,91	15,493
822,09	37,870
822,27	29,961
822,46	28,571
822,64	-5,263
822,82	19,797
823,00	28,796
823,19	27,143
823,37	38,034
823,55	34,599
823,73	34,831
823,91	11,230
824,10	27,083
824,28	25,207
824,46	-40,789
824,64	36,531
824,83	38,863
825,01	23,529
825,19	31,878
825,37	25,490
825,56	24,427
825,74	29,437
825,92	35,798
826,10	33,921
826,28	43,911
826,47	38,521
826,65	35,612
826,83	31,140
827,01	49,213
827,19	64,729
827,38	23,221
827,56	47,000
827,74	27,488
827,92	37,073
828,10	32,986
828,29	24,354
828,47	38,686
828,65	45,703
828,83	40,506
829,01	38,739
829,20	38,077
829,38	28,279
829,56	40,404
829,74	55,385
829,92	40,891
830,10	32,618
830,29	64,368
830,47	36,567
830,65	26,360
830,83	40,136
831,01	47,982
831,20	26,642
831,38	38,436
831,56	40,351
831,74	41,356
831,92	34,799
832,10	42,089
832,29	34,629
832,47	34,397
832,65	54,426
832,83	23,734
833,01	33,535
833,19	34,091
833,37	50,760
833,56	36,310
833,74	40,000
833,92	34,459
834,10	38,253
834,28	37,979
834,46	41,329
834,64	51,733
834,83	35,694
835,01	22,715
835,19	31,560
835,37	42,655
835,55	38,527
835,73	31,638
835,91	30,973
836,09	43,092
836,28	33,841
836,46	26,549
836,64	41,995
836,82	32,418
837,00	21,086
837,18	32,333
837,36	39,589
837,54	28,962
837,72	29,620
837,91	31,161
838,09	25,152
838,27	20,466
838,45	48,493
838,63	36,620
838,81	37,994
838,99	24,403
839,17	24,845
839,35	32,506
839,53	35,459
839,72	30,220
839,90	31,111
840,08	36,471
840,26	31,496
840,44	30,280
840,62	32,075
840,80	53,626
840,98	35,794
841,16	27,717
841,34	38,998
841,52	35,870
841,70	29,777
841,89	35,763
842,07	33,793
842,25	35,430
842,43	33,820
842,61	43,972
842,79	30,612
842,97	30,435
843,15	30,480
843,33	29,424
843,51	34,565
843,69	29,297
843,87	46,169
844,05	34,989
844,23	32,432
844,41	46,123
844,59	31,328
844,77	40,825
844,95	41,342
845,13	41,684
845,31	30,255
845,50	42,857
845,68	28,051
845,86	31,098
846,04	40,070
846,22	34,035
846,40	28,306
846,58	41,434
846,76	36,511
846,94	30,219
847,12	39,231
847,30	37,711
847,48	35,337
847,66	32,099
847,84	31,449
848,02	28,493
848,20	39,171
848,38	26,250
848,56	32,855
848,74	36,248
848,92	28,522
849,10	36,620
849,28	24,252
849,46	26,987
849,64	34,884
849,82	36,741
850,00	30,691
850,18	27,734
850,36	29,636
850,54	35,623
850,72	26,012
850,90	35,459
851,08	26,457
851,26	30,097
851,44	32,795
851,62	40,345
851,80	32,380
851,98	35,294
852,16	34,978
852,34	29,155
852,52	32,101
852,70	28,737
852,87	26,346
853,05	29,226
853,23	29,646
853,41	36,479
853,59	25,108
853,77	38,517
853,95	36,431
854,13	34,517
854,31	30,054
854,49	35,162
854,67	34,740
854,85	29,650
855,03	31,646
855,21	33,862
855,39	32,640
855,57	30,532
855,75	30,279
855,93	26,966
856,11	28,664
856,28	28,096
856,46	30,395
856,64	30,390
856,82	32,718
857,00	33,756
857,18	33,510
857,36	34,080
857,54	36,663
857,72	30,943
857,90	34,487
858,08	32,031
858,26	33,056
858,44	32,258
858,61	35,028
858,79	30,513
858,97	36,777
859,15	35,185
859,33	41,988
859,51	33,295
859,69	36,364
859,87	36,880
860,05	33,825
860,23	38,348
860,40	32,896
860,58	31,743
860,76	34,674
860,94	37,821
861,12	41,986
861,30	36,952
861,48	36,194
861,66	35,699
861,84	35,173
862,01	37,437
862,19	38,821
862,37	40,953
862,55	35,931
862,73	38,326
862,91	42,721
863,09	33,573
863,27	32,817
863,44	36,556
863,62	41,309
863,80	38,732
863,98	37,569
864,16	35,456
864,34	37,924
864,52	38,803
864,69	41,265
864,87	35,000
865,05	33,850
865,23	39,293
865,41	33,532
865,59	38,180
865,76	37,934
865,94	37,017
866,12	36,435
866,30	39,754
866,48	37,821
866,66	37,391
866,83	40,103
867,01	42,718
867,19	35,614
867,37	39,483
867,55	38,010
867,73	39,834
867,90	42,520
868,08	44,073
868,26	41,197
868,44	39,632
868,62	45,305
868,79	43,300
868,97	44,914
869,15	43,073
869,33	39,428
869,51	44,890
869,69	43,352
869,86	42,295
870,04	47,441
870,22	44,764
870,40	45,455
870,57	44,444
870,75	44,140
870,93	45,218
871,11	41,059
871,29	44,660
871,46	43,615
871,64	46,410
871,82	45,249
872,00	46,762
872,18	43,630
872,35	48,085
872,53	48,308
872,71	43,388
872,89	49,338
873,06	47,536
873,24	48,363
873,42	47,216
873,60	48,273
873,77	45,807
873,95	45,859
874,13	44,804
874,31	45,382
874,49	45,424
874,66	49,104
874,84	48,187
875,02	48,069
875,20	43,879
875,37	48,691
875,55	43,888
875,73	48,649
875,91	45,844
876,08	43,746
876,26	48,180
876,44	45,024
876,61	46,392
876,79	43,597
876,97	42,924
877,15	44,444
877,32	43,810
877,50	41,176
877,68	44,994
877,86	44,444
878,03	42,230
878,21	45,091
878,39	42,595
878,56	44,888
878,74	44,879
878,92	43,230
879,10	43,364
879,27	43,627
879,45	42,144
879,63	42,236
879,80	39,321
879,98	38,793
880,16	40,268
880,34	42,614
880,51	44,670
880,69	41,404
880,87	42,977
881,04	40,168
881,22	40,212
881,40	36,809
881,57	37,143
881,75	41,433
881,93	36,082
882,10	40,782
882,28	36,763
882,46	38,881
882,63	38,586
882,81	37,094
882,99	37,271
883,16	38,937
883,34	38,486
883,52	36,719
883,69	36,971
883,87	37,150
884,05	37,130
884,22	36,835
884,40	36,213
884,58	35,208
884,75	34,308
884,93	35,150
885,11	36,805
885,28	37,078
885,46	34,404
885,64	33,865
885,81	34,206
885,99	32,748
886,17	32,786
886,34	35,922
886,52	34,830
886,70	33,124
886,87	33,217
887,05	34,399
887,22	34,536
887,40	35,826
887,58	34,902
887,75	32,717
887,93	34,077
888,11	31,272
888,28	35,629
888,46	32,942
888,63	33,696
888,81	34,112
888,99	35,812
889,16	33,224
889,34	33,476
889,51	34,669
889,69	34,367
889,87	34,914
890,04	33,473
890,22	33,990
890,39	34,039
890,57	37,774
890,75	33,624
890,92	35,897
891,10	34,683
891,27	34,158
891,45	34,363
891,63	34,927
891,80	34,311
891,98	34,691
892,15	34,535
892,33	34,346
892,51	33,597
892,68	34,534
892,86	35,705
893,03	33,767
893,21	35,168
893,38	35,357
893,56	35,371
893,74	36,924
893,91	35,747
894,09	36,063
894,26	34,558
894,44	35,453
894,61	33,165
894,79	34,654
894,96	34,859
895,14	33,736
895,32	34,767
895,49	35,691
895,67	34,164
895,84	34,133
896,02	33,088
896,19	33,145
896,37	33,116
896,54	34,976
896,72	32,080
896,89	31,673
897,07	33,006
897,25	31,626
897,42	31,451
897,60	32,632
897,77	31,723
897,95	30,859
898,12	31,819
898,30	30,893
898,47	29,491
898,65	31,292
898,82	29,909
899,00	30,782
899,17	30,896
899,35	31,338
899,52	31,704
899,70	32,738
899,87	30,825
900,05	30,514
900,22	31,706
900,40	31,589
900,57	28,625
900,75	30,257
900,92	29,173
901,10	31,125
901,27	30,344
901,45	29,551
901,62	31,705
901,80	32,963
901,97	30,647
902,15	30,506
902,32	31,207
902,50	32,147
902,67	32,938
902,85	34,007
903,02	30,771
903,20	33,434
903,37	32,456
903,54	31,593
903,72	33,027
903,89	32,496
904,07	31,891
904,24	35,013
904,42	32,715
904,59	33,968
904,77	35,473
904,94	34,231
905,12	35,891
905,29	35,301
905,47	35,935
905,64	35,685
905,81	37,757
905,99	37,521
906,16	37,879
906,34	39,005
906,51	36,842
906,69	38,205
906,86	38,958
907,03	36,886
907,21	39,767
907,38	38,094
907,56	36,240
907,73	39,415
907,91	40,788
908,08	40,313
908,25	40,246
908,43	39,352
908,60	41,751
908,78	41,822
908,95	42,435
909,13	41,546
909,30	41,471
909,47	40,751
909,65	42,651
909,82	41,507
910,00	40,932
910,17	42,268
910,34	43,465
910,52	41,995
910,69	41,670
910,87	43,700
911,04	40,806
911,21	43,457
911,39	42,280
911,56	42,593
911,73	42,649
911,91	43,264
912,08	42,790
912,26	42,495
912,43	43,314
912,60	43,824
912,78	42,079
912,95	43,743
913,13	42,153
913,30	42,626
913,47	43,117
913,65	42,060
913,82	43,849
913,99	43,817
914,17	43,909
914,34	41,807
914,51	42,314
914,69	42,497
914,86	43,867
915,03	42,946
915,21	42,095
915,38	42,567
915,56	43,382
915,73	42,363
915,90	44,150
916,08	44,480
916,25	45,451
916,42	43,382
916,60	43,327
916,77	43,679
916,94	43,505
917,12	44,017
917,29	43,054
917,46	43,701
917,64	43,246
917,81	42,728
917,98	42,654
918,16	42,405
918,33	43,190
918,50	41,167
918,67	43,067
918,85	41,640
919,02	42,128
919,19	41,790
919,37	42,860
919,54	42,903
919,71	42,157
919,89	42,217
920,06	42,275
920,23	42,986
920,41	40,772
920,58	40,244
920,75	42,473
920,92	42,083
921,10	40,229
921,27	41,002
921,44	41,122
921,62	40,311
921,79	40,135
921,96	39,722
922,13	40,657
922,31	40,589
922,48	38,885
922,65	39,256
922,82	36,615
923,00	38,179
923,17	37,480
923,34	37,119
923,52	35,471
923,69	36,361
923,86	35,961
924,03	34,935
924,21	35,236
924,38	34,748
924,55	35,343
924,72	33,986
924,90	34,749
925,07	33,081
925,24	33,017
925,41	32,647
925,59	33,277
925,76	32,569
925,93	31,859
926,10	31,775
926,28	31,368
926,45	31,674
926,62	30,776
926,79	30,745
926,96	30,142
927,14	30,186
927,31	30,230
927,48	29,443
927,65	30,459
927,83	29,186
928,00	29,352
928,17	29,089
928,34	29,879
928,51	28,756
928,69	29,474
928,86	29,648
929,03	28,923
929,20	29,345
929,37	29,538
929,55	29,714
929,72	28,885
929,89	28,560
930,06	29,757
930,23	29,301
930,41	30,343
930,58	28,843
930,75	29,494
930,92	30,843
931,09	30,712
931,27	29,718
931,44	30,868
931,61	30,781
931,78	30,788
931,95	31,173
932,12	30,654
932,30	31,948
932,47	31,970
932,64	29,919
932,81	31,080
932,98	31,479
933,16	31,746
933,33	31,357
933,50	31,406
933,67	31,361
933,84	32,619
934,01	31,422
934,18	32,989
934,36	32,221
934,53	32,328
934,70	32,146
934,87	33,050
935,04	31,417
935,21	32,144
935,38	33,090
935,56	33,008
935,73	32,333
935,90	31,995
936,07	32,314
936,24	32,914
936,41	32,297
936,58	30,964
936,76	32,327
936,93	31,030
937,10	31,768
937,27	32,108
937,44	31,116
937,61	32,612
937,78	31,530
937,95	32,275
938,13	31,470
938,30	30,746
938,47	30,973
938,64	29,565
938,81	30,730
938,98	31,802
939,15	31,276
939,32	30,302
939,49	29,965
939,66	30,203
939,84	30,553
940,01	29,971
940,18	30,158
940,35	29,316
940,52	29,143
940,69	29,806
940,86	28,912
941,03	30,080
941,20	28,886
941,37	28,487
941,54	28,893
941,71	28,598
941,89	28,158
942,06	28,709
942,23	28,348
942,40	28,720
942,57	28,799
942,74	29,523
942,91	28,650
943,08	29,093
943,25	27,524
943,42	27,749
943,59	28,331
943,76	28,022
943,93	28,007
944,10	29,198
944,27	29,374
944,44	28,888
944,61	28,113
944,79	29,266
944,96	28,102
945,13	30,211
945,30	27,781
945,47	28,987
945,64	28,574
945,81	28,952
945,98	29,638
946,15	28,631
946,32	28,809
946,49	30,399
946,66	29,575
946,83	30,482
947,00	29,437
947,17	29,776
947,34	30,672
947,51	28,959
947,68	29,589
947,85	30,608
948,02	31,897
948,19	32,635
948,36	32,675
948,53	31,101
948,70	29,590
948,87	32,022
949,04	32,216
949,21	32,748
949,38	30,495
949,55	30,116
949,72	31,143
949,89	31,776
950,06	31,955
950,23	33,302
950,40	30,703
950,57	31,535
950,74	33,251
950,91	32,636
951,08	33,830
951,25	31,410
951,42	33,718
951,59	32,349
951,76	34,243
951,93	34,695
952,10	33,176
952,27	34,136
952,44	35,136
952,61	34,451
952,77	35,753
952,94	34,768
953,11	36,665
953,28	36,337
953,45	36,946
953,62	35,482
953,79	36,221
953,96	35,482
954,13	36,590
954,30	35,676
954,47	35,163
954,64	36,024
954,81	34,035
954,98	37,274
955,15	36,170
955,32	38,212
955,49	37,282
955,65	39,597
955,82	36,729
955,99	37,008
956,16	36,340
956,33	37,506
956,50	36,481
956,67	34,674
956,84	37,537
957,01	35,928
957,18	36,775
957,35	38,065
957,52	33,897
957,68	35,707
957,85	37,404
958,02	38,457
958,19	37,092
958,36	38,762
958,53	37,236
958,70	39,913
958,87	37,914
959,04	40,539
959,21	38,657
959,37	42,165
959,54	39,865
959,71	38,247
959,88	39,669
960,05	38,772
960,22	42,117
960,39	40,406
960,56	37,973
960,72	37,854
960,89	40,160
961,06	41,850
961,23	38,079
961,40	43,066
961,57	37,236
961,74	33,583
961,90	47,781
962,07	39,165
962,24	43,816
962,41	38,025
962,58	41,137
962,75	38,935
962,92	38,409
963,08	37,033
963,25	40,995
963,42	36,642
963,59	44,270
963,76	41,003
963,93	38,412
964,10	36,082
964,26	39,786
964,43	43,443
964,60	42,899
964,77	40,582
964,94	46,769
965,10	44,608
965,27	39,527
965,44	51,167
965,61	38,803
965,78	56,766
965,95	40,137
966,11	48,852
966,28	52,747
966,45	39,238
966,62	30,769
966,79	36,382
966,95	47,845
967,12	40,431
967,29	46,729
967,46	40,217
967,63	40,494
967,79	50,543
967,96	41,470
968,13	52,038
968,30	42,623
968,47	51,187
968,63	40,533
968,80	56,897
968,97	53,143
969,14	53,097
969,31	42,949
969,47	59,306
969,64	57,426
969,81	48,772
969,98	53,216
970,14	51,481
970,31	48,387
970,48	43,772
970,65	52,113
970,81	49,660
970,98	40,449
971,15	51,613
971,32	33,898
971,48	45,221
971,65	57,983
971,82	64,796
971,99	50,249
972,15	62,632
972,32	44,033
972,49	31,760
972,66	56,195
972,82	45,545
972,99	62,128
973,16	71,649
973,33	63,333
973,49	73,333
973,66	67,227
973,83	59,864
974,00	59,836
974,16	82,390
974,33	81,707
974,50	65,972
974,67	72,632
974,83	49,718
975,00	78,986
975,17	74,830
975,33	36,232
975,50	52,727
975,67	75,893
975,84	78,014
976,00	39,231
976,17	70,588
976,34	24,823
976,50	62,609
976,67	73,276
976,84	115,385
977,00	43,609
977,17	84,252
977,34	45,161
977,50	80,851
977,67	78,070
977,84	51,818
978,01	93,103
978,17	102,564
978,34	51,042
978,51	46,970
978,67	105,495
978,84	54,167
979,01	60,000
979,17	30,303
979,34	200,000
979,51	88,462
979,67	128,750
979,84	41,667
980,01	68,852
980,17	76,471
980,34	115,942
980,51	111,364
980,67	88,000
980,84	5,172
981,01	-56,410
981,17	56,000
981,34	337,500
981,50	97,059
981,67	168,966
981,84	25,862
982,00	100,000
982,17	195,455
982,34	158,974
982,50	194,737
982,67	69,444
982,84	80,952
983,00	136,000
983,17	104,167
983,33	133,871
983,50	27,174
983,67	78,261
983,83	-16,667
984,00	128,125
984,17	-15,000
984,33	86,486
984,50	91,667
984,66	153,571
984,83	24,419
985,00	170,492
985,16	25,641
985,33	306,250
985,49	51,724
985,66	112,121
985,83	96,491
985,99	81,982
986,16	280,000
986,32	128,986
986,49	391,667
986,66	90,698
986,82	128,070
986,99	121,429
987,15	79,310
987,32	3,704
987,49	102,778
987,65	200,000
987,82	23,529
987,98	64,706
988,15	135,714
988,31	88,000
988,48	-29,167
988,65	88,889
988,81	108,696
988,98	266,667
989,14	89,796
989,31	230,000
989,47	24,390
989,64	61,429
989,80	293,333
989,97	126,471
990,14	-26,087
990,30	227,500
990,47	97,561
990,63	360,870
990,80	200,000
990,96	279,167
991,13	-8,333
991,29	117,647
991,46	113,725
991,62	105,882
991,79	98,246
991,95	245,000
992,12	197,674
992,29	84,000
992,45	84,615
992,62	-380,000
992,78	-88,889
992,95	83,333
993,11	273,333
993,28	64,198
993,44	334,783
993,61	1533,333
993,77	380,000
993,94	65,116
994,10	147,619
994,27	48,000
994,43	111,765
994,60	-9,091
994,76	321,053
994,93	100,000
995,09	-56,757
995,26	86,420
995,42	96,610
995,59	135,714
995,75	218,750
995,92	313,636
996,08	116,667
996,25	355,556
996,41	114,583
996,58	162,162
996,74	340,000
996,91	238,889
997,07	165,385
997,23	191,489
997,40	333,333
997,56	66,667
997,73	0,000
997,89	170,370
998,06	-76,471
998,22	-600,000
998,39	321,739
998,55	-100,000
998,72	360,000
998,88	1066,667
999,05	53,846
999,21	395,652
999,37	-800,000
999,54	-1500,000
999,70	461,538
999,87	-256,250
1000,03	71,875
1000,20	333,333
1000,36	3000,000
1000,52	172,222
1000,69	56,818
1000,85	115,517
1001,02	84,615
1001,18	70,455
1001,35	-155,556
1001,51	-242,857
1001,67	49,333
1001,84	16,667
1002,00	100,000
1002,17	122,727
1002,33	-164,706
1002,50	300,000
1002,66	4100,000
1002,82	137,143
1002,99	-146,154
1003,15	213,043
1003,32	119,355
1003,48	260,000
1003,64	27,500
1003,81	17,857
1003,97	140,909
1004,14	1333,333
1004,30	-314,286
1004,46	1400,000
1004,63	278,947
1004,79	133,333
1004,95	58,824
1005,12	-500,000
1005,28	286,207
1005,45	82,692
1005,61	-1633,333
1005,77	131,579
1005,94	119,355
1006,10	-3000,000
1006,26	91,071
1006,43	555,556
1006,59	25,926
1006,76	-0,000
1006,92	660,000
1007,08	340,000
1007,25	-63,889
1007,41	-175,000
1007,57	-218,750
1007,74	-78,261
1007,90	-680,000
1008,06	125,714
1008,23	120,370
1008,39	850,000
1008,55	128,571
1008,72	237,500
1008,88	68,000
1009,04	92,000
1009,21	164,706
1009,37	-525,000
1009,53	-231,579
1009,70	-76,923
1009,86	147,727
1010,02	7,692
1010,19	0,000
1010,35	281,250
1010,51	722,222
1010,68	425,000
1010,84	-1100,000
1011,00	80,000
1011,17	-180,000
1011,33	188,235
1011,49	137,500
1011,66	313,043
1011,82	-33,962
1011,98	-50,000
1012,14	84,848
1012,31	220,000
1012,47	1333,333
1012,63	822,222
1012,80	148,000
1012,96	-18,182
1013,12	76,744
1013,29	57,895
1013,45	88,889
1013,61	-455,556
1013,77	177,778
1013,94	-3,125
1014,10	66,667
1014,26	2400,000
1014,43	-178,788
1014,59	-737,500
1014,75	1800,000
1014,91	900,000
1015,08	366,667
1015,24	266,667
1015,40	-341,176
1015,56	355,556
1015,73	160,000
1015,89	33,333
1016,05	160,000
1016,21	-277,778
1016,38	300,000
1016,54	-130,769
1016,70	-74,074
1016,86	12,121
1017,03	141,026
1017,19	291,304
1017,35	-292,308
1017,51	185,714
1017,68	-9,091
1017,84	1700,000
1018,00	1014,286
1018,16	95,833
1018,33	142,857
1018,49	173,171
1018,65	-26,471
1018,81	-0,000
1018,97	625,000
1019,14	190,000
1019,30	103,125
1019,46	333,333
1019,62	393,333
1019,79	450,000
1019,95	31,250
1020,11	-657,143
1020,27	366,667
1020,43	-428,571
1020,60	-310,526
1020,76	-66,667
1020,92	400,000
1021,08	3600,000
1021,24	410,000
1021,41	-5,882
1021,57	90,909
1021,73	-775,000
1021,89	-85,714
1022,05	575,000
1022,21	33,333
1022,38	50,000
1022,54	300,000
1022,70	-177,273
1022,86	1200,000
1023,02	-17,647
1023,19	-122,222
1023,35	235,484
1023,51	35,714
1023,67	133,333
1023,83	700,000
1023,99	150,000
1024,16	69,048
1024,32	64,000
1024,48	309,091
1024,64	488,889
1024,80	30,556
1024,96	62,069
1025,12	28,571
1025,29	142,857
1025,45	97,222
1025,61	-1533,333
1025,77	-70,968
1025,93	120,000
1026,09	56,098
1026,26	110,526
1026,42	-27,083
1026,58	43,478
1026,74	250,000
1026,90	216,667
1027,06	-56,410
1027,22	-56,522
1027,38	60,870
1027,55	1133,333
1027,71	186,667
1027,87	-187,500
1028,03	-150,000
1028,19	-205,882
1028,35	-485,714
1028,51	296,000
1028,67	167,647
1028,83	51,111
1029,00	37,500
1029,16	54,054
1029,32	142,857
1029,48	485,714
1029,64	-107,692
1029,80	109,091
1029,96	566,667
1030,12	121,053
1030,28	600,000
1030,44	1260,000
1030,61	168,182
1030,77	-16,667
1030,93	-250,000
1031,09	350,000
1031,25	0,000
1031,41	510,000
1031,57	-1550,000
1031,73	-1025,000
1031,89	-113,636
1032,05	2,326
1032,21	-12,121
1032,37	116,071
1032,53	6,897
1032,69	238,462
1032,86	-533,333
1033,02	388,889
1033,18	133,333
1033,34	-400,000
1033,50	181,250
1033,66	-176,000
1033,82	66,667
1033,98	300,000
1034,14	-321,429
1034,30	-113,333
1034,46	105,882
1034,62	128,205
1034,78	-156,522
1034,94	132,258
1035,10	-438,462
1035,26	655,556
1035,42	-63,333
1035,58	133,333
1035,74	90,541
1035,90	350,000
1036,06	94,118
1036,22	224,242
1036,38	-162,500
1036,54	-156,250
1036,70	119,355
1036,86	125,000
1037,02	-35,714
1037,18	-17,647
1037,34	155,556
1037,50	-100,000
1037,66	-4200,000
1037,82	180,952
1037,98	762,500
1038,14	-1100,000
1038,30	224,138
1038,46	-585,714
1038,62	133,333
1038,78	-0,000
1038,94	470,000
1039,10	220,000
1039,26	-75,000
1039,42	186,957
1039,58	-1025,000
1039,74	800,000
1039,90	-175,000
1040,06	21,538
>>>>>End Processed Spectral Data<<<<<
