SpectraSuite Data File
++++++++++++++++++++++++++++++++++++
Date: Tue Jan 31 18:44:36 EET 2017
User: optolab
Dark Spectrum Present: Yes
Reference Spectrum Present: Yes
Number of Sampled Component Spectra: 1
Spectrometers: USB4C02475
Integration Time (usec): 100000 (USB4C02475)
Spectra Averaged: 1 (USB4C02475)
Boxcar Smoothing: 0 (USB4C02475)
Correct for Electrical Dark: No (USB4C02475)
Strobe/Lamp Enabled: No (USB4C02475)
Correct for Detector Non-linearity: No (USB4C02475)
Correct for Stray Light: No (USB4C02475)
Number of Pixels in Processed Spectrum: 3648
>>>>>Begin Processed Spectral Data<<<<<
344,91	-261,538
345,13	-261,538
345,35	-261,538
345,57	0,000
345,79	116,667
346,00	360,000
346,22	-161,111
346,44	184,615
346,66	1150,000
346,87	133,333
347,09	19,444
347,31	-2000,000
347,53	-550,000
347,74	-438,462
347,96	0,000
348,18	200,000
348,40	-242,857
348,61	74,286
348,83	80,488
349,05	39,286
349,27	210,526
349,48	28,846
349,70	323,529
349,92	17,073
350,14	377,778
350,35	109,756
350,57	88,571
350,79	258,824
351,01	84,615
351,22	337,500
351,44	-283,333
351,66	-53,846
351,87	87,179
352,09	172,727
352,31	425,000
352,53	126,667
352,74	171,429
352,96	55,814
353,18	112,963
353,40	150,000
353,61	85,000
353,83	200,000
354,05	63,636
354,26	200,000
354,48	-1050,000
354,70	63,415
354,92	42,424
355,13	88,235
355,35	0,000
355,57	50,000
355,78	58,824
356,00	111,765
356,22	44,444
356,44	-0,000
356,65	106,061
356,87	0,000
357,09	116,667
357,30	74,603
357,52	110,714
357,74	-1700,000
357,95	500,000
358,17	333,333
358,39	91,176
358,60	780,000
358,82	70,588
359,04	12,500
359,26	115,625
359,47	143,478
359,69	-45,946
359,91	226,923
360,12	207,692
360,34	77,670
360,56	131,034
360,77	871,429
360,99	34,615
361,21	104,167
361,42	165,625
361,64	53,846
361,86	133,333
362,07	103,846
362,29	35,294
362,51	192,308
362,72	75,676
362,94	323,810
363,16	195,000
363,37	45,161
363,59	155,172
363,81	-94,444
364,02	45,882
364,24	78,261
364,46	91,892
364,67	140,000
364,89	195,000
365,11	1700,000
365,32	106,024
365,54	342,857
365,76	65,517
365,97	21,429
366,19	525,000
366,41	153,846
366,62	215,789
366,84	184,211
367,05	47,692
367,27	177,778
367,49	217,073
367,70	750,000
367,92	83,871
368,14	2950,000
368,35	83,099
368,57	48,718
368,79	47,059
369,00	0,000
369,22	183,333
369,43	190,909
369,65	102,985
369,87	49,296
370,08	428,571
370,30	276,471
370,51	100,000
370,73	123,077
370,95	142,857
371,16	900,000
371,38	122,727
371,60	111,538
371,81	43,243
372,03	210,526
372,24	645,455
372,46	90,244
372,68	71,875
372,89	94,286
373,11	171,429
373,32	53,333
373,54	94,000
373,76	8,511
373,97	45,161
374,19	112,162
374,40	-55,556
374,62	-666,667
374,84	228,000
375,05	162,162
375,27	184,906
375,48	181,395
375,70	25,000
375,92	41,667
376,13	100,000
376,35	1500,000
376,56	77,333
376,78	85,417
376,99	100,000
377,21	-6900,000
377,43	22,917
377,64	86,842
377,86	134,783
378,07	80,000
378,29	-58,065
378,51	94,872
378,72	-2,222
378,94	58,824
379,15	257,143
379,37	62,500
379,58	114,286
379,80	76,923
380,01	325,000
380,23	257,895
380,45	90,385
380,66	394,444
380,88	-1500,000
381,09	65,714
381,31	123,188
381,52	175,000
381,74	120,896
381,95	129,268
382,17	115,000
382,39	145,455
382,60	407,692
382,82	128,571
383,03	136,538
383,25	56,410
383,46	151,220
383,68	44,643
383,89	370,000
384,11	45,455
384,32	100,000
384,54	177,778
384,76	2700,000
384,97	48,148
385,19	45,833
385,40	79,167
385,62	50,000
385,83	21,622
386,05	95,349
386,26	29,730
386,48	208,000
386,69	111,321
386,91	155,882
387,12	245,833
387,34	15,686
387,55	138,636
387,77	114,286
387,98	-314,286
388,20	87,097
388,41	176,923
388,63	151,163
388,84	69,231
389,06	56,410
389,27	57,143
389,49	150,000
389,70	61,905
389,92	43,750
390,13	-47,826
390,35	126,000
390,56	122,727
390,78	183,871
390,99	533,333
391,21	110,714
391,42	155,738
391,64	18,519
391,85	45,000
392,07	46,000
392,28	22,500
392,50	71,930
392,71	100,000
392,93	145,946
393,14	-136,842
393,36	275,000
393,57	60,784
393,79	1,515
394,00	56,364
394,22	-18,182
394,43	152,500
394,65	1300,000
394,86	139,394
395,08	71,233
395,29	116,279
395,50	231,250
395,72	75,000
395,93	166,667
396,15	38,028
396,36	35,849
396,58	129,630
396,79	-16,364
397,01	51,807
397,22	100,000
397,44	-1020,000
397,65	76,316
397,87	61,538
398,08	18,000
398,29	112,500
398,51	75,000
398,72	65,000
398,94	59,459
399,15	106,122
399,37	57,692
399,58	222,581
399,80	-106,250
400,01	55,072
400,22	57,143
400,44	580,000
400,65	140,000
400,87	-16,393
401,08	39,474
401,30	77,000
401,51	46,970
401,72	113,953
401,94	80,645
402,15	83,051
402,37	169,697
402,58	8,889
402,80	53,571
403,01	59,574
403,22	61,667
403,44	73,750
403,65	-18,182
403,87	138,462
404,08	38,462
404,30	-6,897
404,51	73,214
404,72	59,756
404,94	84,286
405,15	71,014
405,37	61,111
405,58	45,455
405,79	44,304
406,01	45,794
406,22	-65,854
406,44	53,061
406,65	82,192
406,86	31,313
407,08	52,778
407,29	20,225
407,51	39,796
407,72	83,333
407,93	65,772
408,15	35,135
408,36	35,185
408,58	46,341
408,79	76,344
409,00	14,773
409,22	47,253
409,43	50,562
409,64	30,702
409,86	43,972
410,07	8,333
410,29	4,494
410,50	23,288
410,71	34,884
410,93	45,294
411,14	9,375
411,35	29,310
411,57	31,553
411,78	0,474
412,00	37,853
412,21	40,462
412,42	21,569
412,64	24,074
412,85	6,218
413,06	10,732
413,28	13,714
413,49	-2,273
413,70	29,964
413,92	21,723
414,13	28,571
414,34	10,959
414,56	4,516
414,77	4,167
414,98	11,642
415,20	13,625
415,41	6,897
415,63	5,793
415,84	10,736
416,05	32,282
416,27	12,319
416,48	6,750
416,69	15,700
416,91	17,276
417,12	15,332
417,33	6,888
417,55	5,507
417,76	17,409
417,97	6,958
418,19	7,840
418,40	6,352
418,61	5,489
418,83	7,527
419,04	7,967
419,25	5,065
419,46	6,918
419,68	12,839
419,89	4,599
420,10	6,533
420,32	5,957
420,53	4,266
420,74	9,670
420,96	1,718
421,17	6,025
421,38	4,501
421,60	5,330
421,81	6,989
422,02	0,000
422,23	8,549
422,45	5,872
422,66	5,847
422,87	4,116
423,09	5,685
423,30	4,228
423,51	4,133
423,73	3,346
423,94	3,468
424,15	-0,131
424,36	6,491
424,58	5,761
424,79	2,252
425,00	3,792
425,22	3,446
425,43	3,387
425,64	3,370
425,85	7,123
426,07	2,374
426,28	3,180
426,49	3,230
426,71	0,594
426,92	3,083
427,13	1,927
427,34	2,626
427,56	1,427
427,77	2,374
427,98	1,252
428,19	0,950
428,41	3,086
428,62	0,726
428,83	2,060
429,04	2,734
429,26	2,395
429,47	3,152
429,68	0,937
429,89	1,377
430,11	1,872
430,32	0,675
430,53	0,387
430,74	0,576
430,96	0,339
431,17	1,054
431,38	1,381
431,59	1,995
431,81	1,298
432,02	1,489
432,23	1,098
432,44	1,839
432,66	1,459
432,87	0,248
433,08	1,041
433,29	0,620
433,51	1,095
433,72	0,299
433,93	1,070
434,14	0,639
434,35	0,892
434,57	0,016
434,78	0,954
434,99	1,698
435,20	0,828
435,42	1,399
435,63	0,893
435,84	1,214
436,05	-0,126
436,26	1,083
436,48	1,034
436,69	0,326
436,90	0,667
437,11	0,719
437,32	0,226
437,54	0,600
437,75	0,245
437,96	0,997
438,17	0,758
438,38	0,635
438,60	0,656
438,81	0,918
439,02	0,473
439,23	0,131
439,44	0,812
439,66	0,584
439,87	0,632
440,08	0,728
440,29	0,425
440,50	0,791
440,72	0,675
440,93	0,556
441,14	0,691
441,35	0,792
441,56	0,286
441,77	0,774
441,99	0,892
442,20	0,268
442,41	0,376
442,62	0,264
442,83	0,339
443,04	0,580
443,26	0,598
443,47	0,710
443,68	0,646
443,89	0,567
444,10	0,182
444,31	0,342
444,53	0,834
444,74	0,497
444,95	0,169
445,16	0,397
445,37	0,455
445,58	0,713
445,80	0,554
446,01	0,630
446,22	0,502
446,43	0,505
446,64	0,589
446,85	0,667
447,06	0,945
447,28	0,671
447,49	0,794
447,70	0,853
447,91	0,924
448,12	1,057
448,33	0,910
448,54	0,772
448,76	0,729
448,97	1,006
449,18	0,776
449,39	1,095
449,60	1,131
449,81	1,394
450,02	0,966
450,23	1,162
450,45	1,026
450,66	1,137
450,87	1,197
451,08	1,212
451,29	1,503
451,50	1,752
451,71	2,931
451,92	5,365
452,13	9,554
452,35	16,876
452,56	28,439
452,77	43,461
452,98	57,924
453,19	71,738
453,40	81,309
453,61	87,524
453,82	91,075
454,03	94,460
454,25	93,458
454,46	94,762
454,67	97,081
454,88	97,605
455,09	97,790
455,30	96,356
455,51	96,541
455,72	97,328
455,93	97,290
456,14	97,286
456,35	97,546
456,56	97,995
456,78	97,970
456,99	97,216
457,20	96,997
457,41	97,659
457,62	96,799
457,83	96,881
458,04	97,917
458,25	96,491
458,46	98,415
458,67	96,742
458,88	98,096
459,09	98,486
459,30	98,180
459,51	98,751
459,73	98,330
459,94	98,056
460,15	97,247
460,36	97,116
460,57	97,834
460,78	97,611
460,99	97,916
461,20	97,184
461,41	95,976
461,62	96,798
461,83	96,123
462,04	96,952
462,25	95,036
462,46	96,759
462,67	96,225
462,88	96,728
463,09	96,179
463,30	95,115
463,51	96,443
463,72	95,104
463,93	96,104
464,15	95,290
464,36	95,463
464,57	95,036
464,78	95,654
464,99	96,021
465,20	94,728
465,41	95,441
465,62	95,394
465,83	95,326
466,04	94,506
466,25	94,883
466,46	94,977
466,67	94,705
466,88	94,526
467,09	95,606
467,30	95,310
467,51	95,804
467,72	96,178
467,93	95,757
468,14	97,365
468,35	96,906
468,56	97,625
468,77	96,885
468,98	97,380
469,19	98,358
469,40	97,761
469,61	99,113
469,82	97,731
470,03	97,144
470,24	99,492
470,45	98,242
470,66	98,827
470,87	98,402
471,08	98,147
471,29	97,484
471,50	98,953
471,71	98,447
471,92	98,119
472,13	97,783
472,34	97,595
472,55	100,024
472,76	98,067
472,97	98,579
473,18	99,080
473,39	98,010
473,60	97,678
473,81	98,476
474,01	98,273
474,22	99,118
474,43	98,206
474,64	99,523
474,85	98,986
475,06	98,887
475,27	98,757
475,48	99,173
475,69	98,022
475,90	98,803
476,11	97,956
476,32	98,885
476,53	98,205
476,74	99,404
476,95	98,317
477,16	98,509
477,37	97,061
477,58	96,881
477,79	96,798
478,00	95,559
478,21	97,034
478,41	96,725
478,62	97,740
478,83	96,077
479,04	96,796
479,25	98,029
479,46	97,571
479,67	97,600
479,88	97,070
480,09	96,984
480,30	96,669
480,51	96,866
480,72	97,160
480,93	98,254
481,14	97,436
481,34	97,497
481,55	97,201
481,76	98,121
481,97	97,436
482,18	98,342
482,39	97,621
482,60	96,720
482,81	96,678
483,02	96,544
483,23	95,249
483,44	96,656
483,65	95,990
483,85	94,826
484,06	95,200
484,27	95,804
484,48	97,207
484,69	97,263
484,90	98,608
485,11	99,012
485,32	98,263
485,53	99,798
485,73	98,875
485,94	98,946
486,15	99,172
486,36	100,034
486,57	96,867
486,78	99,514
486,99	98,264
487,20	100,092
487,41	99,322
487,61	98,598
487,82	98,655
488,03	99,474
488,24	100,671
488,45	99,294
488,66	99,903
488,87	99,408
489,08	99,513
489,28	99,718
489,49	99,756
489,70	98,700
489,91	99,097
490,12	99,422
490,33	99,460
490,54	98,589
490,74	98,591
490,95	98,241
491,16	98,664
491,37	99,151
491,58	98,660
491,79	98,428
492,00	99,288
492,20	99,669
492,41	99,243
492,62	100,237
492,83	99,912
493,04	99,275
493,25	100,507
493,45	99,488
493,66	98,374
493,87	99,234
494,08	99,255
494,29	98,156
494,50	97,788
494,70	98,076
494,91	97,106
495,12	98,176
495,33	97,379
495,54	97,402
495,75	97,964
495,95	97,964
496,16	97,347
496,37	97,666
496,58	97,458
496,79	98,365
496,99	97,662
497,20	98,290
497,41	97,835
497,62	97,814
497,83	98,711
498,04	98,062
498,24	97,585
498,45	97,932
498,66	98,163
498,87	97,845
499,08	97,736
499,28	98,008
499,49	97,729
499,70	97,806
499,91	97,172
500,12	96,529
500,32	97,659
500,53	96,766
500,74	97,368
500,95	96,303
501,15	95,756
501,36	95,232
501,57	92,014
501,78	87,817
501,99	80,258
502,19	70,884
502,40	58,271
502,61	44,913
502,82	32,604
503,02	22,378
503,23	14,217
503,44	9,008
503,65	5,642
503,86	3,532
504,06	2,558
504,27	1,712
504,48	1,151
504,69	0,962
504,89	0,868
505,10	0,694
505,31	0,476
505,52	0,647
505,72	0,539
505,93	0,747
506,14	0,506
506,35	0,661
506,55	0,502
506,76	0,521
506,97	0,631
507,18	0,496
507,38	0,339
507,59	0,449
507,80	0,606
508,01	0,337
508,21	0,524
508,42	0,641
508,63	0,517
508,84	0,668
509,04	0,419
509,25	0,591
509,46	0,490
509,67	0,458
509,87	0,253
510,08	0,517
510,29	0,246
510,49	0,404
510,70	0,366
510,91	0,311
511,12	0,599
511,32	0,223
511,53	0,401
511,74	0,430
511,94	0,368
512,15	0,481
512,36	0,395
512,57	0,489
512,77	0,430
512,98	0,567
513,19	0,285
513,39	0,521
513,60	0,278
513,81	0,451
514,01	0,329
514,22	0,166
514,43	0,155
514,64	0,249
514,84	0,466
515,05	0,348
515,26	0,508
515,46	0,493
515,67	0,303
515,88	0,156
516,08	0,407
516,29	0,176
516,50	0,453
516,70	0,240
516,91	0,526
517,12	0,337
517,32	0,321
517,53	0,262
517,74	0,197
517,95	0,362
518,15	0,248
518,36	0,392
518,57	0,264
518,77	0,322
518,98	0,367
519,19	0,341
519,39	0,410
519,60	0,215
519,80	0,143
520,01	0,064
520,22	0,342
520,42	0,373
520,63	0,201
520,84	0,394
521,04	0,426
521,25	0,415
521,46	0,295
521,66	0,387
521,87	0,438
522,08	0,318
522,28	0,399
522,49	0,274
522,70	0,247
522,90	0,430
523,11	0,265
523,31	0,369
523,52	0,211
523,73	0,368
523,93	0,456
524,14	0,237
524,35	0,394
524,55	0,141
524,76	0,153
524,97	0,240
525,17	0,272
525,38	0,293
525,58	0,201
525,79	0,465
526,00	0,435
526,20	0,273
526,41	0,345
526,61	0,324
526,82	0,579
527,03	0,274
527,23	0,244
527,44	0,301
527,64	0,134
527,85	0,446
528,06	0,335
528,26	0,251
528,47	0,248
528,68	0,443
528,88	0,293
529,09	0,384
529,29	0,308
529,50	0,443
529,70	0,278
529,91	0,348
530,12	0,231
530,32	0,109
530,53	0,144
530,73	0,268
530,94	0,350
531,15	0,205
531,35	0,314
531,56	0,213
531,76	0,357
531,97	0,330
532,17	0,320
532,38	0,320
532,59	0,251
532,79	0,255
533,00	0,266
533,20	0,249
533,41	0,430
533,61	0,263
533,82	0,356
534,03	0,419
534,23	0,414
534,44	0,241
534,64	0,294
534,85	0,241
535,05	0,449
535,26	0,422
535,46	0,294
535,67	0,072
535,88	0,255
536,08	0,285
536,29	0,226
536,49	0,242
536,70	0,394
536,90	0,326
537,11	0,498
537,31	0,397
537,52	0,406
537,72	0,351
537,93	0,331
538,13	0,228
538,34	0,454
538,55	0,452
538,75	0,208
538,96	0,210
539,16	0,272
539,37	0,332
539,57	0,407
539,78	0,610
539,98	0,276
540,19	0,508
540,39	0,393
540,60	0,257
540,80	0,460
541,01	0,439
541,21	0,416
541,42	0,313
541,62	0,384
541,83	0,416
542,03	0,356
542,24	0,431
542,44	0,265
542,65	0,214
542,85	0,374
543,06	0,470
543,26	0,442
543,47	0,182
543,67	0,418
543,88	0,386
544,08	0,254
544,29	0,485
544,49	0,384
544,70	0,272
544,90	0,429
545,11	0,584
545,31	0,488
545,52	0,439
545,72	0,436
545,93	0,481
546,13	0,490
546,34	0,426
546,54	0,350
546,75	0,568
546,95	0,483
547,15	0,468
547,36	0,659
547,56	0,705
547,77	0,525
547,97	0,555
548,18	0,486
548,38	0,454
548,59	0,616
548,79	0,527
549,00	0,398
549,20	0,408
549,41	0,340
549,61	0,491
549,81	0,586
550,02	0,497
550,22	0,673
550,43	0,726
550,63	0,663
550,84	0,744
551,04	0,875
551,25	0,809
551,45	0,903
551,65	0,815
551,86	0,835
552,06	0,871
552,27	1,025
552,47	1,118
552,68	0,981
552,88	1,037
553,08	1,237
553,29	1,103
553,49	1,515
553,70	1,861
553,90	3,084
554,11	5,247
554,31	8,620
554,51	14,281
554,72	22,428
554,92	33,869
555,13	47,130
555,33	61,352
555,53	72,483
555,74	82,500
555,94	88,171
556,15	91,905
556,35	94,069
556,56	95,896
556,76	96,840
556,96	98,073
557,17	97,480
557,37	97,841
557,58	97,944
557,78	98,090
557,98	98,796
558,19	98,220
558,39	99,127
558,59	99,356
558,80	99,017
559,00	98,971
559,21	98,858
559,41	99,312
559,61	99,120
559,82	99,640
560,02	99,356
560,23	99,429
560,43	98,209
560,63	99,664
560,84	99,404
561,04	99,764
561,24	98,667
561,45	99,509
561,65	98,347
561,85	99,756
562,06	99,419
562,26	98,408
562,47	99,655
562,67	98,693
562,87	100,368
563,08	99,820
563,28	100,291
563,48	99,111
563,69	98,916
563,89	98,919
564,09	99,887
564,30	98,602
564,50	98,874
564,70	98,594
564,91	97,852
565,11	98,560
565,31	99,216
565,52	98,020
565,72	98,570
565,92	99,173
566,13	99,294
566,33	98,009
566,53	99,183
566,74	99,338
566,94	99,440
567,14	98,793
567,35	98,461
567,55	98,194
567,75	98,111
567,96	98,255
568,16	98,859
568,36	98,692
568,57	99,175
568,77	99,926
568,97	99,317
569,18	100,401
569,38	99,755
569,58	99,741
569,79	100,241
569,99	100,515
570,19	99,591
570,39	100,233
570,60	98,896
570,80	99,786
571,00	99,127
571,21	100,349
571,41	99,329
571,61	99,272
571,82	99,212
572,02	98,560
572,22	99,611
572,42	100,582
572,63	99,630
572,83	99,147
573,03	99,981
573,24	100,478
573,44	100,144
573,64	100,709
573,84	99,231
574,05	99,328
574,25	99,385
574,45	99,457
574,66	98,549
574,86	98,365
575,06	98,566
575,26	98,443
575,47	98,297
575,67	97,913
575,87	98,410
576,07	97,742
576,28	99,250
576,48	97,663
576,68	98,832
576,88	98,249
577,09	98,357
577,29	99,207
577,49	99,790
577,69	99,061
577,90	99,146
578,10	99,724
578,30	100,442
578,50	99,139
578,71	99,139
578,91	98,301
579,11	98,186
579,31	98,441
579,52	98,902
579,72	98,741
579,92	98,388
580,12	99,758
580,33	98,932
580,53	98,973
580,73	99,135
580,93	98,897
581,13	99,276
581,34	100,139
581,54	99,347
581,74	99,425
581,94	99,455
582,15	100,040
582,35	99,705
582,55	99,519
582,75	99,848
582,95	100,178
583,16	100,177
583,36	99,964
583,56	100,522
583,76	99,655
583,96	99,887
584,17	99,843
584,37	99,985
584,57	101,033
584,77	99,335
584,97	100,417
585,18	100,499
585,38	99,946
585,58	100,268
585,78	100,918
585,98	100,675
586,19	100,911
586,39	100,000
586,59	100,806
586,79	101,322
586,99	100,933
587,20	99,996
587,40	100,711
587,60	99,986
587,80	100,366
588,00	100,462
588,20	100,501
588,41	100,247
588,61	99,638
588,81	99,735
589,01	100,243
589,21	100,050
589,41	99,793
589,62	99,917
589,82	99,493
590,02	99,732
590,22	98,631
590,42	99,099
590,62	99,046
590,83	99,548
591,03	97,626
591,23	98,571
591,43	98,224
591,63	98,880
591,83	97,705
592,03	98,080
592,24	97,674
592,44	98,648
592,64	99,254
592,84	99,505
593,04	99,214
593,24	98,244
593,44	98,307
593,65	98,782
593,85	99,724
594,05	98,690
594,25	99,539
594,45	99,256
594,65	99,393
594,85	98,660
595,06	99,285
595,26	99,005
595,46	99,074
595,66	98,602
595,86	98,483
596,06	99,042
596,26	99,006
596,46	99,264
596,66	100,098
596,87	99,856
597,07	99,201
597,27	99,662
597,47	99,928
597,67	98,666
597,87	99,942
598,07	99,717
598,27	97,489
598,47	99,618
598,67	98,216
598,88	98,228
599,08	98,112
599,28	97,904
599,48	97,679
599,68	98,204
599,88	97,079
600,08	97,977
600,28	98,512
600,48	99,041
600,68	98,290
600,88	99,366
601,09	99,370
601,29	100,104
601,49	100,269
601,69	100,026
601,89	100,119
602,09	99,165
602,29	99,770
602,49	98,829
602,69	99,608
602,89	99,601
603,09	98,841
603,29	99,101
603,49	97,989
603,69	98,021
603,90	98,635
604,10	98,456
604,30	99,054
604,50	98,485
604,70	98,377
604,90	99,411
605,10	99,633
605,30	98,720
605,50	99,652
605,70	100,672
605,90	99,716
606,10	99,780
606,30	99,605
606,50	99,277
606,70	98,479
606,90	99,835
607,10	98,146
607,30	99,109
607,50	99,132
607,70	99,849
607,90	98,995
608,10	99,572
608,30	99,316
608,50	98,195
608,70	100,082
608,90	99,016
609,11	100,300
609,31	99,169
609,51	99,119
609,71	99,377
609,91	99,503
610,11	99,079
610,31	99,128
610,51	99,199
610,71	97,455
610,91	97,380
611,11	95,901
611,31	93,445
611,51	91,114
611,71	85,277
611,91	76,517
612,11	65,834
612,31	56,059
612,51	44,792
612,71	33,292
612,91	24,460
613,11	17,535
613,31	12,135
613,51	8,491
613,71	5,815
613,91	4,218
614,11	2,932
614,31	2,055
614,50	1,535
614,70	1,259
614,90	1,167
615,10	0,655
615,30	0,626
615,50	0,630
615,70	0,539
615,90	0,373
616,10	0,512
616,30	0,513
616,50	0,425
616,70	0,421
616,90	0,691
617,10	0,217
617,30	0,361
617,50	0,467
617,70	0,312
617,90	0,450
618,10	0,429
618,30	0,314
618,50	0,441
618,70	0,400
618,90	0,257
619,10	0,399
619,30	0,311
619,49	0,610
619,69	0,443
619,89	0,114
620,09	0,299
620,29	0,229
620,49	0,517
620,69	0,424
620,89	0,344
621,09	0,345
621,29	0,136
621,49	0,339
621,69	0,254
621,89	0,436
622,09	0,195
622,29	0,307
622,48	0,291
622,68	0,609
622,88	0,385
623,08	0,367
623,28	0,384
623,48	0,256
623,68	0,121
623,88	0,233
624,08	0,184
624,28	0,282
624,48	0,165
624,67	0,232
624,87	0,000
625,07	0,444
625,27	0,346
625,47	0,130
625,67	0,141
625,87	0,345
626,07	0,122
626,27	0,220
626,47	0,362
626,66	0,091
626,86	0,263
627,06	0,337
627,26	0,141
627,46	0,122
627,66	0,122
627,86	0,159
628,06	0,214
628,25	0,097
628,45	0,218
628,65	0,286
628,85	0,198
629,05	0,097
629,25	0,235
629,45	0,164
629,65	0,150
629,84	0,168
630,04	0,297
630,24	0,187
630,44	0,148
630,64	0,325
630,84	0,258
631,04	0,187
631,23	0,233
631,43	0,169
631,63	0,102
631,83	0,342
632,03	0,061
632,23	0,306
632,42	0,277
632,62	0,173
632,82	0,351
633,02	0,085
633,22	0,147
633,42	0,054
633,62	0,232
633,81	0,196
634,01	0,082
634,21	0,226
634,41	0,519
634,61	0,434
634,80	0,208
635,00	0,091
635,20	0,312
635,40	0,367
635,60	0,238
635,80	0,053
635,99	0,411
636,19	0,401
636,39	0,245
636,59	0,309
636,79	0,241
636,98	0,364
637,18	0,535
637,38	0,215
637,58	0,328
637,78	0,181
637,97	0,237
638,17	0,264
638,37	0,236
638,57	0,285
638,77	0,292
638,96	0,422
639,16	0,339
639,36	0,250
639,56	0,728
639,76	0,023
639,95	0,151
640,15	0,416
640,35	0,446
640,55	0,547
640,75	0,128
640,94	0,663
641,14	0,345
641,34	0,098
641,54	0,297
641,73	0,545
641,93	0,536
642,13	0,107
642,33	0,255
642,53	0,173
642,72	0,531
642,92	0,481
643,12	0,352
643,32	0,282
643,51	0,230
643,71	0,301
643,91	0,252
644,11	0,421
644,30	0,319
644,50	0,402
644,70	0,431
644,90	0,146
645,09	0,387
645,29	0,465
645,49	0,485
645,69	0,521
645,88	-0,114
646,08	0,306
646,28	0,444
646,48	0,386
646,67	0,327
646,87	0,761
647,07	0,528
647,26	0,627
647,46	0,186
647,66	0,247
647,86	0,418
648,05	0,481
648,25	0,798
648,45	0,089
648,65	0,388
648,84	0,475
649,04	0,333
649,24	0,337
649,43	0,130
649,63	0,279
649,83	0,461
650,03	0,126
650,22	0,789
650,42	0,331
650,62	0,468
650,81	0,696
651,01	0,468
651,21	0,778
651,40	0,475
651,60	0,217
651,80	0,724
652,00	0,679
652,19	0,774
652,39	0,617
652,59	1,057
652,78	0,849
652,98	0,672
653,18	1,039
653,37	0,931
653,57	1,566
653,77	1,180
653,96	1,290
654,16	1,676
654,36	1,895
654,55	2,779
654,75	3,626
654,95	5,346
655,14	7,141
655,34	11,108
655,54	15,146
655,73	21,580
655,93	29,884
656,13	38,797
656,32	48,985
656,52	58,445
656,72	67,816
656,91	73,155
657,11	79,931
657,31	84,345
657,50	87,334
657,70	89,645
657,90	91,045
658,09	93,789
658,29	94,015
658,49	95,091
658,68	95,812
658,88	97,142
659,07	95,710
659,27	95,425
659,47	96,382
659,66	97,099
659,86	95,528
660,06	95,017
660,25	93,772
660,45	93,442
660,64	94,624
660,84	95,643
661,04	94,613
661,23	93,692
661,43	95,871
661,63	95,363
661,82	95,777
662,02	95,212
662,21	96,340
662,41	96,481
662,61	96,336
662,80	96,965
663,00	97,652
663,19	98,011
663,39	97,703
663,59	97,380
663,78	95,892
663,98	97,019
664,17	97,357
664,37	96,253
664,57	96,312
664,76	99,494
664,96	95,702
665,15	99,779
665,35	96,264
665,55	96,304
665,74	97,920
665,94	97,525
666,13	98,448
666,33	97,437
666,53	96,947
666,72	95,569
666,92	97,678
667,11	96,873
667,31	96,235
667,50	95,493
667,70	96,294
667,90	96,931
668,09	97,573
668,29	96,765
668,48	97,342
668,68	96,956
668,87	96,724
669,07	96,986
669,26	96,328
669,46	95,783
669,66	97,274
669,85	98,745
670,05	97,240
670,24	97,775
670,44	95,676
670,63	95,812
670,83	95,599
671,02	95,192
671,22	95,483
671,42	95,421
671,61	94,839
671,81	95,566
672,00	94,440
672,20	94,901
672,39	95,242
672,59	97,003
672,78	94,957
672,98	95,436
673,17	95,031
673,37	96,520
673,56	96,755
673,76	95,720
673,95	96,292
674,15	97,173
674,34	97,494
674,54	97,017
674,73	96,762
674,93	95,277
675,13	97,270
675,32	97,530
675,52	97,648
675,71	98,180
675,91	97,359
676,10	95,983
676,30	96,145
676,49	96,342
676,69	96,118
676,88	96,761
677,08	95,192
677,27	95,950
677,47	95,128
677,66	95,159
677,86	96,561
678,05	95,258
678,24	95,188
678,44	95,373
678,63	95,566
678,83	97,169
679,02	95,418
679,22	95,651
679,41	96,398
679,61	96,127
679,80	95,960
680,00	94,896
680,19	95,474
680,39	94,679
680,58	93,560
680,78	94,534
680,97	95,513
681,17	94,110
681,36	94,901
681,56	93,879
681,75	93,781
681,94	94,237
682,14	93,775
682,33	93,631
682,53	92,902
682,72	94,354
682,92	93,841
683,11	94,048
683,31	94,030
683,50	93,863
683,69	94,262
683,89	94,080
684,08	94,958
684,28	94,741
684,47	94,571
684,67	95,533
684,86	94,547
685,06	95,411
685,25	95,283
685,44	95,539
685,64	94,763
685,83	95,500
686,03	95,860
686,22	95,055
686,42	94,443
686,61	96,620
686,80	95,744
687,00	95,013
687,19	96,193
687,39	96,097
687,58	94,544
687,77	96,633
687,97	95,415
688,16	94,543
688,36	96,186
688,55	96,511
688,74	95,409
688,94	96,280
689,13	95,829
689,33	95,041
689,52	96,317
689,71	95,928
689,91	95,949
690,10	96,442
690,30	95,633
690,49	95,436
690,68	96,384
690,88	95,902
691,07	95,240
691,27	96,415
691,46	95,804
691,65	96,199
691,85	96,336
692,04	96,468
692,23	95,995
692,43	96,133
692,62	96,428
692,82	96,654
693,01	96,074
693,20	96,535
693,40	97,247
693,59	98,055
693,78	97,509
693,98	98,591
694,17	97,886
694,36	98,935
694,56	99,424
694,75	99,672
694,94	99,277
695,14	99,326
695,33	99,665
695,53	99,889
695,72	100,696
695,91	100,152
696,11	101,112
696,30	100,421
696,49	100,662
696,69	100,857
696,88	100,775
697,07	103,218
697,27	102,895
697,46	103,178
697,65	102,799
697,85	102,360
698,04	104,149
698,23	104,371
698,43	103,336
698,62	104,730
698,81	105,060
699,01	106,383
699,20	103,859
699,39	106,044
699,58	103,837
699,78	104,945
699,97	106,171
700,16	105,163
700,36	107,751
700,55	105,671
700,74	105,653
700,94	106,289
701,13	105,624
701,32	103,798
701,52	104,148
701,71	104,195
701,90	104,434
702,09	104,774
702,29	103,980
702,48	104,412
702,67	104,912
702,87	105,696
703,06	104,157
703,25	104,885
703,44	103,610
703,64	105,169
703,83	104,082
704,02	104,288
704,22	106,828
704,41	103,302
704,60	103,480
704,79	105,116
704,99	104,698
705,18	103,333
705,37	105,259
705,56	104,784
705,76	102,153
705,95	107,371
706,14	101,478
706,33	104,077
706,53	103,081
706,72	103,613
706,91	104,784
707,11	99,237
707,30	102,199
707,49	102,386
707,68	102,718
707,88	101,093
708,07	101,694
708,26	101,266
708,45	99,498
708,64	101,316
708,84	101,853
709,03	101,994
709,22	102,482
709,41	100,000
709,61	102,869
709,80	100,084
709,99	99,315
710,18	100,773
710,38	102,766
710,57	99,582
710,76	100,403
710,95	101,468
711,14	102,554
711,34	100,948
711,53	99,462
711,72	95,544
711,91	92,015
712,11	95,915
712,30	87,729
712,49	86,538
712,68	81,499
712,87	69,910
713,07	61,148
713,26	53,610
713,45	40,025
713,64	33,251
713,83	26,257
714,03	19,674
714,22	14,379
714,41	12,690
714,60	9,023
714,79	9,416
714,99	5,096
715,18	5,833
715,37	2,179
715,56	4,190
715,75	3,217
715,94	3,204
716,14	2,453
716,33	1,502
716,52	2,860
716,71	3,523
716,90	-1,582
717,10	3,120
717,29	5,101
717,48	2,608
717,67	1,073
717,86	0,744
718,05	3,283
718,24	2,834
718,44	2,932
718,63	5,286
718,82	3,455
719,01	2,274
719,20	1,382
719,39	2,263
719,59	0,380
719,78	1,930
719,97	3,690
720,16	0,000
720,35	2,282
720,54	4,234
720,73	4,195
720,93	2,019
721,12	0,144
721,31	2,770
721,50	3,338
721,69	4,022
721,88	1,462
722,07	4,928
722,27	-2,181
722,46	-1,241
722,65	4,556
722,84	4,104
723,03	1,801
723,22	4,797
723,41	2,661
723,60	-0,421
723,79	5,088
723,99	4,870
724,18	3,076
724,37	1,330
724,56	3,313
724,75	0,446
724,94	4,448
725,13	6,625
725,32	7,484
725,51	4,928
725,71	5,861
725,90	4,108
726,09	0,000
726,28	3,390
726,47	6,893
726,66	3,700
726,85	4,284
727,04	4,790
727,23	5,273
727,42	3,984
727,61	3,326
727,81	2,925
728,00	4,915
728,19	1,587
728,38	2,137
728,57	7,312
728,76	-0,103
728,95	2,514
729,14	4,180
729,33	3,876
729,52	8,709
729,71	3,260
729,90	0,815
730,09	2,959
730,28	4,965
730,48	0,242
730,67	5,294
730,86	5,190
731,05	-5,276
731,24	-1,060
731,43	7,729
731,62	3,210
731,81	2,975
732,00	4,483
732,19	6,767
732,38	2,061
732,57	4,774
732,76	-2,537
732,95	4,750
733,14	6,555
733,33	1,111
733,52	2,439
733,71	3,457
733,90	2,490
734,09	4,139
734,28	6,693
734,47	2,500
734,66	1,262
734,85	2,257
735,04	8,465
735,23	6,925
735,42	4,965
735,61	3,740
735,81	8,949
736,00	-2,406
736,19	3,148
736,38	5,113
736,57	3,165
736,76	3,535
736,95	5,582
737,14	11,196
737,33	2,181
737,52	0,912
737,71	4,573
737,90	10,543
738,09	-3,621
738,28	7,630
738,47	2,090
738,66	4,237
738,85	-0,157
739,04	0,644
739,22	5,832
739,41	-3,316
739,60	-5,566
739,79	6,927
739,98	0,942
740,17	2,872
740,36	6,250
740,55	4,554
740,74	-1,301
740,93	2,867
741,12	5,190
741,31	-5,521
741,50	10,801
741,69	0,000
741,88	10,508
742,07	4,594
742,26	2,486
742,45	2,899
742,64	2,857
742,83	4,615
743,02	-6,024
743,21	5,869
743,40	14,751
743,59	2,554
743,78	-7,173
743,97	10,436
744,16	1,509
744,34	-1,446
744,53	8,190
744,72	-0,637
744,91	6,776
745,10	5,287
745,29	-0,235
745,48	4,803
745,67	-0,444
745,86	-2,490
746,05	9,620
746,24	2,802
746,43	4,989
746,62	8,481
746,81	-2,133
747,00	16,042
747,18	1,818
747,37	-0,455
747,56	10,755
747,75	4,859
747,94	12,626
748,13	7,009
748,32	3,171
748,51	9,133
748,70	6,475
748,89	-1,882
749,08	11,823
749,26	-4,267
749,45	-0,937
749,64	-2,584
749,83	10,074
750,02	6,702
750,21	7,812
750,40	3,166
750,59	-4,787
750,78	6,747
750,96	10,973
751,15	9,383
751,34	23,096
751,53	0,278
751,72	10,456
751,91	-2,362
752,10	9,859
752,29	-3,188
752,47	1,437
752,66	7,692
752,85	4,233
753,04	10,270
753,23	6,709
753,42	16,708
753,61	24,316
753,80	-5,105
753,98	15,625
754,17	11,331
754,36	6,863
754,55	8,143
754,74	14,595
754,93	20,323
755,12	0,308
755,30	5,166
755,49	1,173
755,68	11,233
755,87	9,215
756,06	9,798
756,25	-8,251
756,43	15,827
756,62	8,303
756,81	-11,765
757,00	25,549
757,19	15,951
757,38	7,492
757,56	8,784
757,75	5,344
757,94	7,328
758,13	14,968
758,32	1,136
758,51	16,452
758,69	0,000
758,88	13,443
759,07	24,555
759,26	3,061
759,45	3,571
759,63	-3,162
759,82	22,263
760,01	15,278
760,20	18,248
760,39	13,027
760,57	-10,730
760,76	-1,145
760,95	-1,149
761,14	5,000
761,33	19,141
761,51	9,630
761,70	25,517
761,89	24,419
762,08	10,345
762,27	4,327
762,45	6,132
762,64	0,442
762,83	10,037
763,02	13,841
763,21	18,310
763,39	-3,620
763,58	2,449
763,77	25,532
763,96	16,374
764,14	9,129
764,33	25,564
764,52	18,750
764,71	1,478
764,89	27,027
765,08	27,715
765,27	-16,832
765,46	0,455
765,65	-1,015
765,83	8,571
766,02	11,355
766,21	12,236
766,40	32,093
766,58	11,765
766,77	-2,260
766,96	5,641
767,15	11,594
767,33	5,288
767,52	-2,370
767,71	2,222
767,90	12,500
768,08	13,734
768,27	13,488
768,46	6,667
768,64	31,553
768,83	16,216
769,02	13,333
769,21	5,729
769,39	-0,671
769,58	9,500
769,77	4,891
769,96	21,192
770,14	19,847
770,33	16,043
770,52	-9,615
770,70	6,436
770,89	17,347
771,08	17,708
771,27	10,309
771,45	21,965
771,64	26,316
771,83	11,290
772,01	-19,847
772,20	0,505
772,39	-8,917
772,57	16,146
772,76	22,759
772,95	-6,091
773,14	12,791
773,32	17,033
773,51	14,419
773,70	4,636
773,88	39,196
774,07	44,770
774,26	7,317
774,44	36,683
774,63	27,215
774,82	33,735
775,00	31,004
775,19	13,218
775,38	-1,333
775,56	18,902
775,75	-19,760
775,94	37,313
776,12	34,167
776,31	9,581
776,50	22,424
776,68	22,840
776,87	-11,189
777,06	2,740
777,24	-21,311
777,43	3,252
777,62	8,148
777,80	14,674
777,99	21,019
778,18	25,478
778,36	-5,344
778,55	23,704
778,74	-8,333
778,92	30,317
779,11	37,419
779,29	9,804
779,48	-20,661
779,67	25,899
779,85	42,400
780,04	28,873
780,23	7,692
780,41	-0,588
780,60	11,111
780,79	30,556
780,97	34,286
781,16	-11,200
781,34	17,424
781,53	8,974
781,72	20,370
781,90	40,385
782,09	17,213
782,28	30,081
782,46	1,626
782,65	25,874
782,83	-7,634
783,02	16,800
783,21	23,256
783,39	8,974
783,58	28,667
783,76	-12,162
783,95	14,570
784,14	5,263
784,32	5,505
784,51	24,719
784,69	20,382
784,88	10,323
785,06	9,220
785,25	-3,759
785,44	0,000
785,62	12,857
785,81	0,746
785,99	8,844
786,18	20,492
786,37	34,483
786,55	-3,731
786,74	41,615
786,92	22,093
787,11	20,000
787,29	49,412
787,48	16,000
787,67	0,000
787,85	29,688
788,04	16,438
788,22	-15,741
788,41	21,711
788,59	45,578
788,78	38,194
788,96	45,714
789,15	24,590
789,34	21,951
789,52	1,493
789,71	12,698
789,89	17,544
790,08	-17,647
790,26	12,698
790,45	55,474
790,63	15,132
790,82	-7,258
791,00	1,587
791,19	35,714
791,38	4,110
791,56	-19,737
791,75	24,324
791,93	-5,882
792,12	1,515
792,30	24,342
792,49	11,215
792,67	20,000
792,86	17,568
793,04	15,079
793,23	46,053
793,41	2,581
793,60	5,063
793,78	19,463
793,97	11,207
794,15	0,000
794,34	20,408
794,52	39,535
794,71	53,086
794,89	19,286
795,08	32,692
795,26	29,000
795,45	-11,702
795,63	4,403
795,82	0,840
796,00	-20,000
796,19	7,792
796,37	-24,576
796,56	-57,407
796,74	0,781
796,93	11,765
797,11	25,833
797,30	48,092
797,48	18,881
797,67	16,935
797,85	31,159
798,04	24,324
798,22	16,547
798,41	51,695
798,59	2,143
798,77	32,479
798,96	13,710
799,14	16,667
799,33	26,549
799,51	28,713
799,70	-2,198
799,88	11,009
800,07	34,532
800,25	12,214
800,44	33,663
800,62	20,144
800,80	-5,682
800,99	43,590
801,17	24,828
801,36	2,083
801,54	32,558
801,73	-0,758
801,91	49,438
802,10	32,941
802,28	28,346
802,46	15,323
802,65	13,907
802,83	-15,702
803,02	36,735
803,20	63,559
803,39	-10,092
803,57	16,197
803,75	35,714
803,94	49,324
804,12	24,845
804,31	14,423
804,49	11,613
804,67	6,306
804,86	42,236
805,04	-16,279
805,23	43,066
805,41	9,804
805,59	12,651
805,78	12,857
805,96	35,542
806,15	21,600
806,33	-8,029
806,51	36,538
806,70	-2,326
806,88	6,364
807,07	9,836
807,25	0,000
807,43	-6,667
807,62	32,812
807,80	43,902
807,99	27,338
808,17	29,167
808,35	5,660
808,54	27,374
808,72	17,308
808,90	-21,138
809,09	21,168
809,27	32,039
809,46	28,972
809,64	35,838
809,82	2,759
810,01	20,430
810,19	3,636
810,37	33,523
810,56	6,623
810,74	15,723
810,92	10,563
811,11	15,951
811,29	27,950
811,48	-4,348
811,66	13,198
811,84	-1,695
812,03	-2,703
812,21	11,515
812,39	-14,516
812,58	23,392
812,76	19,708
812,94	6,040
813,13	6,098
813,31	6,349
813,49	0,667
813,68	36,885
813,86	3,846
814,04	1,802
814,23	24,615
814,41	13,699
814,59	15,033
814,78	-2,013
814,96	27,933
815,14	6,533
815,33	21,488
815,51	52,756
815,69	25,954
815,87	7,742
816,06	26,368
816,24	7,190
816,42	13,095
816,61	3,086
816,79	8,671
816,97	19,231
817,16	5,952
817,34	7,647
817,52	26,168
817,70	3,627
817,89	18,660
818,07	2,000
818,25	-4,430
818,44	9,091
818,62	33,168
818,80	14,286
818,98	-3,590
819,17	29,237
819,35	18,792
819,53	16,410
819,72	37,838
819,90	30,222
820,08	22,277
820,26	7,763
820,45	-2,151
820,63	11,696
820,81	-3,670
820,99	24,017
821,18	20,482
821,36	10,625
821,54	10,945
821,73	17,486
821,91	1,408
822,09	24,260
822,27	19,455
822,46	14,778
822,64	2,105
822,82	-11,168
823,00	8,377
823,19	25,714
823,37	30,342
823,55	24,051
823,73	10,674
823,91	-12,299
824,10	-1,563
824,28	9,504
824,46	-46,053
824,64	14,391
824,83	7,583
825,01	17,647
825,19	24,891
825,37	-5,392
825,56	16,794
825,74	12,987
825,92	14,008
826,10	12,335
826,28	14,391
826,47	30,739
826,65	23,741
826,83	8,333
827,01	20,866
827,19	15,891
827,38	13,858
827,56	8,000
827,74	-6,635
827,92	11,707
828,10	5,208
828,29	1,107
828,47	-2,555
828,65	5,469
828,83	1,266
829,01	-8,108
829,20	11,154
829,38	9,836
829,56	7,744
829,74	22,308
829,92	5,668
830,10	11,588
830,29	23,372
830,47	16,791
830,65	-4,184
830,83	21,088
831,01	4,933
831,20	4,015
831,38	-0,651
831,56	15,088
831,74	27,119
831,92	-1,465
832,10	10,127
832,29	13,781
832,47	0,355
832,65	20,000
832,83	6,329
833,01	13,897
833,19	-3,977
833,37	8,511
833,56	18,155
833,74	15,082
833,92	-4,054
834,10	14,458
834,28	2,091
834,46	11,850
834,64	22,400
834,83	7,365
835,01	8,616
835,19	6,028
835,37	16,667
835,55	13,314
835,73	-3,955
835,91	22,124
836,09	-2,632
836,28	-4,878
836,46	14,159
836,64	8,399
836,82	-3,571
837,00	-10,224
837,18	-5,333
837,36	5,572
837,54	2,186
837,72	10,127
837,91	7,082
838,09	-3,939
838,27	-6,477
838,45	15,616
838,63	7,606
838,81	-5,167
838,99	0,265
839,17	4,969
839,35	15,576
839,53	-6,378
839,72	13,462
839,90	5,778
840,08	3,059
840,26	-2,887
840,44	3,562
840,62	-10,512
840,80	16,703
840,98	13,870
841,16	2,989
841,34	17,647
841,52	8,261
841,70	-9,181
841,89	10,934
842,07	8,046
842,25	8,386
842,43	8,516
842,61	8,274
842,79	-7,256
842,97	-3,661
843,15	2,714
843,33	0,617
843,51	2,174
843,69	5,859
843,87	8,669
844,05	1,728
844,23	4,574
844,41	9,543
844,59	3,112
844,77	-0,412
844,95	-4,545
845,13	7,368
845,31	0,786
845,50	14,079
845,68	5,996
845,86	0,203
846,04	6,151
846,22	7,193
846,40	6,405
846,58	6,773
846,76	5,071
846,94	-5,964
847,12	5,962
847,30	5,066
847,48	3,643
847,66	-6,996
847,84	1,413
848,02	4,596
848,20	3,202
848,38	6,607
848,56	3,411
848,74	3,825
848,92	10,481
849,10	9,155
849,28	5,039
849,46	-1,848
849,64	9,302
849,82	6,230
850,00	3,879
850,18	2,219
850,36	0,662
850,54	6,390
850,72	4,517
850,90	7,154
851,08	5,197
851,26	-2,265
851,44	3,554
851,62	9,105
851,80	4,819
851,98	6,787
852,16	7,175
852,34	-2,254
852,52	0,888
852,70	6,676
852,87	-5,386
853,05	5,874
853,23	2,065
853,41	4,648
853,59	-0,722
853,77	0,000
853,95	0,295
854,13	4,972
854,31	-0,270
854,49	1,125
854,67	2,672
854,85	0,539
855,03	11,392
855,21	6,085
855,39	5,982
855,57	7,983
855,75	0,398
855,93	-0,702
856,11	-1,686
856,28	-4,394
856,46	-0,789
856,64	-1,558
856,82	6,150
857,00	2,284
857,18	2,649
857,36	1,741
857,54	4,385
857,72	2,264
857,90	3,461
858,08	0,911
858,26	-0,119
858,44	-2,509
858,61	7,119
858,79	0,834
858,97	7,645
859,15	7,952
859,33	1,637
859,51	4,046
859,69	1,705
859,87	1,209
860,05	-3,198
860,23	3,946
860,40	1,202
860,58	-2,220
860,76	1,848
860,94	-1,709
861,12	4,550
861,30	5,637
861,48	2,482
861,66	9,603
861,84	1,190
862,01	2,002
862,19	5,183
862,37	-1,192
862,55	0,810
862,73	-0,413
862,91	9,610
863,09	5,647
863,27	1,548
863,44	0,705
863,62	3,067
863,80	-1,171
863,98	2,578
864,16	7,605
864,34	2,794
864,52	8,160
864,69	5,422
864,87	0,714
865,05	6,296
865,23	2,424
865,41	-1,389
865,59	6,423
865,76	2,404
865,94	1,934
866,12	2,000
866,30	2,463
866,48	2,569
866,66	3,826
866,83	6,341
867,01	4,766
867,19	2,226
867,37	4,483
867,55	6,718
867,73	1,743
867,90	2,927
868,08	5,175
868,26	-1,214
868,44	-2,007
868,62	4,695
868,79	3,769
868,97	3,365
869,15	3,191
869,33	1,113
869,51	4,717
869,69	1,531
869,86	-2,261
870,04	3,981
870,22	5,826
870,40	2,851
870,57	3,095
870,75	2,740
870,93	-0,689
871,11	1,688
871,29	1,120
871,46	-0,077
871,64	0,831
871,82	3,544
872,00	5,120
872,18	0,000
872,35	3,314
872,53	5,112
872,71	-0,214
872,89	2,721
873,06	0,000
873,24	3,820
873,42	5,498
873,60	1,691
873,77	1,317
873,95	2,714
874,13	4,251
874,31	3,920
874,49	3,647
874,66	5,043
874,84	5,208
875,02	6,499
875,20	5,712
875,37	4,974
875,55	1,560
875,73	6,821
875,91	6,886
876,08	4,148
876,26	10,364
876,44	9,892
876,61	11,522
876,79	10,482
876,97	9,552
877,15	16,517
877,32	12,262
877,50	13,041
877,68	15,765
877,86	12,181
878,03	13,893
878,21	14,954
878,39	14,699
878,56	14,382
878,74	12,500
878,92	15,885
879,10	13,917
879,27	15,160
879,45	13,925
879,63	11,684
879,80	10,190
879,98	11,369
880,16	10,762
880,34	8,820
880,51	12,367
880,69	10,476
880,87	9,958
881,04	11,434
881,22	10,222
881,40	10,476
881,57	8,922
881,75	9,818
881,93	10,144
882,10	13,176
882,28	11,833
882,46	12,694
882,63	14,950
882,81	14,763
882,99	13,643
883,16	17,674
883,34	17,009
883,52	17,969
883,69	21,203
883,87	23,848
884,05	26,743
884,22	28,129
884,40	32,677
884,58	33,026
884,75	36,899
884,93	41,459
885,11	43,747
885,28	49,210
885,46	48,475
885,64	47,547
885,81	48,486
885,99	47,644
886,17	51,252
886,34	50,219
886,52	48,536
886,70	45,029
886,87	42,918
887,05	40,639
887,22	35,562
887,40	36,643
887,58	30,467
887,75	27,434
887,93	25,731
888,11	22,282
888,28	22,530
888,46	18,325
888,63	17,101
888,81	16,764
888,99	15,393
889,16	14,876
889,34	15,327
889,51	15,815
889,69	13,007
889,87	11,451
890,04	11,494
890,22	11,999
890,39	11,096
890,57	11,370
890,75	11,666
890,92	12,334
891,10	11,551
891,27	11,983
891,45	13,367
891,63	13,150
891,80	12,447
891,98	10,411
892,15	13,598
892,33	12,440
892,51	13,369
892,68	14,835
892,86	15,594
893,03	14,946
893,21	16,540
893,38	18,456
893,56	21,409
893,74	20,995
893,91	22,246
894,09	23,173
894,26	23,288
894,44	24,985
894,61	25,283
894,79	27,220
894,96	29,433
895,14	29,291
895,32	31,143
895,49	31,155
895,67	30,645
895,84	33,051
896,02	32,145
896,19	27,658
896,37	27,649
896,54	28,407
896,72	27,614
896,89	25,021
897,07	24,397
897,25	21,093
897,42	20,628
897,60	19,181
897,77	17,621
897,95	16,347
898,12	15,346
898,30	14,231
898,47	11,802
898,65	11,999
898,82	9,502
899,00	10,206
899,17	10,435
899,35	8,636
899,52	9,428
899,70	7,937
899,87	7,579
900,05	8,112
900,22	8,399
900,40	6,562
900,57	5,868
900,75	6,476
900,92	5,371
901,10	5,693
901,27	5,858
901,45	5,164
901,62	5,094
901,80	4,943
901,97	3,937
902,15	4,541
902,32	5,969
902,50	4,541
902,67	6,517
902,85	4,947
903,02	4,857
903,20	5,051
903,37	5,599
903,54	4,574
903,72	4,169
903,89	5,077
904,07	4,751
904,24	5,401
904,42	4,760
904,59	6,329
904,77	6,517
904,94	6,233
905,12	6,485
905,29	6,639
905,47	6,866
905,64	6,959
905,81	7,120
905,99	6,039
906,16	7,450
906,34	8,228
906,51	8,674
906,69	8,906
906,86	10,754
907,03	9,303
907,21	9,865
907,38	9,434
907,56	8,997
907,73	12,037
907,91	11,981
908,08	13,038
908,25	14,136
908,43	15,966
908,60	16,967
908,78	19,252
908,95	19,027
909,13	19,711
909,30	19,401
909,47	21,443
909,65	22,669
909,82	23,411
910,00	21,692
910,17	22,811
910,34	24,973
910,52	23,068
910,69	22,880
910,87	23,219
911,04	23,050
911,21	23,994
911,39	22,955
911,56	22,384
911,73	21,335
911,91	20,404
912,08	19,828
912,26	18,310
912,43	18,966
912,60	17,301
912,78	15,172
912,95	15,888
913,13	15,427
913,30	13,753
913,47	13,418
913,65	13,767
913,82	13,254
913,99	12,924
914,17	11,698
914,34	11,736
914,51	12,015
914,69	11,057
914,86	10,400
915,03	10,666
915,21	10,614
915,38	10,859
915,56	9,825
915,73	8,976
915,90	9,028
916,08	10,067
916,25	10,608
916,42	9,340
916,60	9,269
916,77	9,965
916,94	10,236
917,12	9,196
917,29	9,300
917,46	10,425
917,64	10,499
917,81	10,067
917,98	9,757
918,16	9,280
918,33	10,722
918,50	10,942
918,67	10,480
918,85	11,929
919,02	11,818
919,19	11,701
919,37	12,082
919,54	13,783
919,71	13,899
919,89	14,048
920,06	15,009
920,23	15,663
920,41	16,273
920,58	16,212
920,75	17,301
920,92	18,820
921,10	19,114
921,27	20,879
921,44	21,325
921,62	23,282
921,79	25,328
921,96	27,244
922,13	27,199
922,31	29,300
922,48	31,584
922,65	34,207
922,82	34,663
923,00	38,634
923,17	40,543
923,34	41,297
923,52	43,366
923,69	47,252
923,86	47,441
924,03	50,787
924,21	51,742
924,38	54,167
924,55	54,218
924,72	56,163
924,90	57,905
925,07	59,690
925,24	58,075
925,41	57,900
925,59	57,306
925,76	58,545
925,93	57,844
926,10	57,568
926,28	56,078
926,45	55,227
926,62	55,143
926,79	52,781
926,96	50,152
927,14	50,831
927,31	46,952
927,48	46,847
927,65	47,337
927,83	44,763
928,00	43,878
928,17	40,594
928,34	42,754
928,51	40,625
928,69	39,994
928,86	39,594
929,03	38,934
929,20	41,090
929,37	39,456
929,55	37,553
929,72	38,607
929,89	39,052
930,06	38,331
930,23	36,821
930,41	37,824
930,58	38,197
930,75	38,309
930,92	39,306
931,09	40,175
931,27	38,945
931,44	40,951
931,61	41,363
931,78	41,819
931,95	42,195
932,12	43,429
932,30	44,344
932,47	45,494
932,64	44,505
932,81	47,495
932,98	47,499
933,16	49,132
933,33	50,464
933,50	52,359
933,67	52,867
933,84	55,010
934,01	54,311
934,18	54,022
934,36	57,158
934,53	58,970
934,70	59,877
934,87	61,382
935,04	62,472
935,21	61,349
935,38	62,816
935,56	63,856
935,73	63,680
935,90	64,547
936,07	64,927
936,24	65,020
936,41	63,062
936,58	64,371
936,76	64,981
936,93	63,446
937,10	61,911
937,27	61,992
937,44	60,870
937,61	59,967
937,78	57,485
937,95	59,148
938,13	58,075
938,30	55,507
938,47	55,210
938,64	52,964
938,81	51,990
938,98	51,518
939,15	51,082
939,32	51,480
939,49	48,701
939,66	48,605
939,84	46,868
940,01	47,787
940,18	46,884
940,35	44,634
940,52	45,022
940,69	45,550
940,86	43,750
941,03	46,214
941,20	45,746
941,37	43,486
941,54	45,322
941,71	43,251
941,89	43,385
942,06	43,528
942,23	43,386
942,40	43,902
942,57	44,954
942,74	44,723
942,91	45,685
943,08	44,461
943,25	45,928
943,42	45,770
943,59	45,468
943,76	47,361
943,93	46,412
944,10	49,134
944,27	49,438
944,44	50,719
944,61	51,331
944,79	52,011
944,96	52,679
945,13	52,583
945,30	54,827
945,47	55,989
945,64	57,538
945,81	56,509
945,98	58,485
946,15	59,238
946,32	60,778
946,49	62,334
946,66	63,027
946,83	63,797
947,00	62,365
947,17	65,442
947,34	67,066
947,51	65,453
947,68	66,820
947,85	66,463
948,02	64,944
948,19	65,919
948,36	66,102
948,53	64,643
948,70	62,852
948,87	63,226
949,04	64,072
949,21	63,319
949,38	61,217
949,55	59,733
949,72	57,751
949,89	58,787
950,06	56,807
950,23	56,034
950,40	52,487
950,57	52,185
950,74	52,621
950,91	49,885
951,08	49,333
951,25	48,928
951,42	47,141
951,59	45,215
951,76	46,057
951,93	44,264
952,10	43,195
952,27	40,986
952,44	42,994
952,61	40,119
952,77	40,502
952,94	39,570
953,11	36,729
953,28	38,753
953,45	38,698
953,62	36,086
953,79	37,688
953,96	36,244
954,13	35,278
954,30	34,457
954,47	36,814
954,64	33,950
954,81	34,072
954,98	35,464
955,15	32,782
955,32	34,924
955,49	34,807
955,65	36,036
955,82	35,855
955,99	33,071
956,16	34,404
956,33	32,653
956,50	35,370
956,67	35,645
956,84	35,899
957,01	35,977
957,18	34,741
957,35	37,224
957,52	36,013
957,68	33,967
957,85	37,679
958,02	37,429
958,19	35,893
958,36	42,790
958,53	38,443
958,70	40,842
958,87	40,225
959,04	48,423
959,21	43,029
959,37	45,326
959,54	44,781
959,71	44,701
959,88	48,092
960,05	44,835
960,22	47,296
960,39	50,234
960,56	46,420
960,72	46,180
960,89	53,606
961,06	49,692
961,23	49,258
961,40	46,077
961,57	44,366
961,74	49,579
961,90	54,958
962,07	47,117
962,24	56,918
962,41	49,462
962,58	49,052
962,75	51,361
962,92	41,136
963,08	46,093
963,25	45,735
963,42	38,971
963,59	38,721
963,76	38,946
963,93	38,028
964,10	38,918
964,26	36,983
964,43	40,437
964,60	40,533
964,77	32,772
964,94	39,538
965,10	33,497
965,27	30,912
965,44	30,833
965,61	27,992
965,78	36,731
965,95	27,444
966,11	28,810
966,28	23,516
966,45	23,238
966,62	28,632
966,79	18,496
966,95	20,690
967,12	22,010
967,29	26,168
967,46	23,043
967,63	26,173
967,79	24,728
967,96	24,147
968,13	39,498
968,30	15,847
968,47	30,079
968,63	27,219
968,80	32,759
968,97	30,000
969,14	13,569
969,31	28,205
969,47	38,486
969,64	25,413
969,81	25,263
969,98	14,620
970,14	27,407
970,31	18,280
970,48	22,420
970,65	29,930
970,81	17,347
970,98	36,704
971,15	28,571
971,32	7,203
971,48	19,853
971,65	33,193
971,82	38,265
971,99	41,791
972,15	41,579
972,32	13,992
972,49	42,918
972,66	9,735
972,82	8,416
972,99	51,064
973,16	44,330
973,33	40,000
973,49	22,778
973,66	34,454
973,83	10,204
974,00	38,525
974,16	25,786
974,33	51,829
974,50	42,361
974,67	53,158
974,83	41,243
975,00	26,812
975,17	66,667
975,33	11,594
975,50	44,242
975,67	49,107
975,84	65,957
976,00	21,538
976,17	58,824
976,34	43,262
976,50	40,870
976,67	31,897
976,84	98,718
977,00	49,624
977,17	55,906
977,34	97,849
977,50	38,298
977,67	72,807
977,84	22,727
978,01	103,448
978,17	28,205
978,34	53,125
978,51	-13,636
978,67	48,352
978,84	45,833
979,01	52,308
979,17	65,152
979,34	306,250
979,51	23,077
979,67	50,000
979,84	60,714
980,01	42,623
980,17	30,588
980,34	110,145
980,51	70,455
980,67	77,333
980,84	-15,517
981,01	7,692
981,17	30,000
981,34	275,000
981,50	45,588
981,67	143,103
981,84	-29,310
982,00	91,304
982,17	363,636
982,34	92,308
982,50	168,421
982,67	97,222
982,84	104,762
983,00	98,000
983,17	125,000
983,33	103,226
983,50	78,261
983,67	82,609
983,83	450,000
984,00	146,875
984,17	-155,000
984,33	110,811
984,50	23,958
984,66	214,286
984,83	45,349
985,00	155,738
985,16	2,564
985,33	387,500
985,49	117,241
985,66	33,333
985,83	47,368
985,99	81,982
986,16	160,000
986,32	17,391
986,49	358,333
986,66	55,814
986,82	85,965
986,99	30,952
987,15	55,172
987,32	72,222
987,49	138,889
987,65	80,000
987,82	88,235
987,98	-29,412
988,15	75,000
988,31	36,000
988,48	162,500
988,65	81,481
988,81	143,478
988,98	433,333
989,14	146,939
989,31	263,333
989,47	70,732
989,64	58,571
989,80	273,333
989,97	72,059
990,14	-100,000
990,30	95,000
990,47	41,463
990,63	173,913
990,80	206,061
990,96	254,167
991,13	83,333
991,29	137,255
991,46	143,137
991,62	144,118
991,79	61,404
991,95	240,000
992,12	120,930
992,29	160,000
992,45	-292,308
992,62	-370,000
992,78	-88,889
992,95	155,556
993,11	206,667
993,28	22,222
993,44	95,652
993,61	800,000
993,77	260,000
993,94	239,535
994,10	219,048
994,27	72,000
994,43	114,706
994,60	-106,061
994,76	-10,526
994,93	181,818
995,09	-62,162
995,26	30,864
995,42	83,051
995,59	192,857
995,75	275,000
995,92	277,273
996,08	204,167
996,25	233,333
996,41	112,500
996,58	178,378
996,74	-120,000
996,91	133,333
997,07	215,385
997,23	63,830
997,40	66,667
997,56	220,000
997,73	0,000
997,89	155,556
998,06	-5,882
998,22	-100,000
998,39	391,304
998,55	-108,333
998,72	185,000
998,88	1666,667
999,05	69,231
999,21	178,261
999,37	-2000,000
999,54	1150,000
999,70	269,231
999,87	-131,250
1000,03	56,250
1000,20	-133,333
1000,36	-1900,000
1000,52	205,556
1000,69	79,545
1000,85	115,517
1001,02	30,769
1001,18	77,273
1001,35	-73,333
1001,51	-171,429
1001,67	-30,667
1001,84	266,667
1002,00	60,000
1002,17	59,091
1002,33	-194,118
1002,50	-411,111
1002,66	1400,000
1002,82	208,571
1002,99	-57,692
1003,15	221,739
1003,32	119,355
1003,48	40,000
1003,64	-20,000
1003,81	-60,714
1003,97	204,545
1004,14	1200,000
1004,30	-971,429
1004,46	-75,000
1004,63	352,632
1004,79	-153,333
1004,95	200,000
1005,12	171,429
1005,28	82,759
1005,45	88,462
1005,61	-1200,000
1005,77	97,368
1005,94	270,968
1006,10	-3200,000
1006,26	55,357
1006,43	533,333
1006,59	-59,259
1006,76	80,000
1006,92	-120,000
1007,08	-50,000
1007,25	-0,000
1007,41	-433,333
1007,57	-31,250
1007,74	-39,130
1007,90	-260,000
1008,06	174,286
1008,23	168,519
1008,39	2100,000
1008,55	-228,571
1008,72	150,000
1008,88	38,000
1009,04	268,000
1009,21	70,588
1009,37	-412,500
1009,53	-168,421
1009,70	-15,385
1009,86	6,818
1010,02	238,462
1010,19	0,000
1010,35	106,250
1010,51	777,778
1010,68	362,500
1010,84	-1233,333
1011,00	62,222
1011,17	-560,000
1011,33	141,176
1011,49	118,750
1011,66	121,739
1011,82	-26,415
1011,98	-29,545
1012,14	57,576
1012,31	-320,000
1012,47	466,667
1012,63	266,667
1012,80	104,000
1012,96	163,636
1013,12	18,605
1013,29	121,053
1013,45	37,778
1013,61	244,444
1013,77	222,222
1013,94	28,125
1014,10	-3,030
1014,26	2000,000
1014,43	-93,939
1014,59	-375,000
1014,75	1650,000
1014,91	1333,333
1015,08	-86,667
1015,24	-700,000
1015,40	-223,529
1015,56	-44,444
1015,73	122,222
1015,89	9,524
1016,05	300,000
1016,21	-266,667
1016,38	-100,000
1016,54	-246,154
1016,70	25,926
1016,86	127,273
1017,03	128,205
1017,19	200,000
1017,35	-515,385
1017,51	77,143
1017,68	154,545
1017,84	900,000
1018,00	557,143
1018,16	81,250
1018,33	-357,143
1018,49	82,927
1018,65	-20,588
1018,81	-35,000
1018,97	-375,000
1019,14	213,333
1019,30	250,000
1019,46	-100,000
1019,62	220,000
1019,79	575,000
1019,95	62,500
1020,11	71,429
1020,27	450,000
1020,43	171,429
1020,60	47,368
1020,76	-11,111
1020,92	328,571
1021,08	3300,000
1021,24	170,000
1021,41	17,647
1021,57	263,636
1021,73	-650,000
1021,89	-57,143
1022,05	25,000
1022,21	71,795
1022,38	-370,000
1022,54	1000,000
1022,70	-118,182
1022,86	900,000
1023,02	-64,706
1023,19	-133,333
1023,35	135,484
1023,51	203,571
1023,67	129,167
1023,83	1566,667
1023,99	122,222
1024,16	97,619
1024,32	-32,000
1024,48	218,182
1024,64	311,111
1024,80	19,444
1024,96	-48,276
1025,12	-257,143
1025,29	135,714
1025,45	138,889
1025,61	-400,000
1025,77	-12,903
1025,93	60,000
1026,09	102,439
1026,26	210,526
1026,42	-8,333
1026,58	-191,304
1026,74	-75,000
1026,90	372,222
1027,06	-71,795
1027,22	-113,043
1027,38	89,130
1027,55	-100,000
1027,71	233,333
1027,87	-225,000
1028,03	-43,750
1028,19	-82,353
1028,35	-28,571
1028,51	256,000
1028,67	52,941
1028,83	86,667
1029,00	-250,000
1029,16	132,432
1029,32	28,571
1029,48	342,857
1029,64	46,154
1029,80	100,000
1029,96	416,667
1030,12	305,263
1030,28	-450,000
1030,44	360,000
1030,61	27,273
1030,77	-283,333
1030,93	12,500
1031,09	1100,000
1031,25	0,000
1031,41	260,000
1031,57	-625,000
1031,73	-2175,000
1031,89	-95,455
1032,05	-69,767
1032,21	-0,000
1032,37	28,571
1032,53	134,483
1032,69	119,231
1032,86	-100,000
1033,02	-155,556
1033,18	250,000
1033,34	-1000,000
1033,50	118,750
1033,66	-116,000
1033,82	-22,222
1033,98	50,000
1034,14	-171,429
1034,30	-173,333
1034,46	32,353
1034,62	110,256
1034,78	-17,391
1034,94	138,710
1035,10	-230,769
1035,26	555,556
1035,42	-13,333
1035,58	200,000
1035,74	91,892
1035,90	250,000
1036,06	37,255
1036,22	109,091
1036,38	-87,500
1036,54	25,000
1036,70	61,290
1036,86	90,000
1037,02	142,857
1037,18	-141,176
1037,34	111,111
1037,50	220,000
1037,66	-2800,000
1037,82	228,571
1037,98	787,500
1038,14	-300,000
1038,30	151,724
1038,46	-414,286
1038,62	55,556
1038,78	471,429
1038,94	440,000
1039,10	236,000
1039,26	33,333
1039,42	213,043
1039,58	-725,000
1039,74	1400,000
1039,90	-308,333
1040,06	26,154
>>>>>End Processed Spectral Data<<<<<
