SpectraSuite Data File
++++++++++++++++++++++++++++++++++++
Date: Tue Jan 31 19:08:18 EET 2017
User: optolab
Dark Spectrum Present: Yes
Reference Spectrum Present: Yes
Number of Sampled Component Spectra: 1
Spectrometers: USB4C02475
Integration Time (usec): 100000 (USB4C02475)
Spectra Averaged: 1 (USB4C02475)
Boxcar Smoothing: 0 (USB4C02475)
Correct for Electrical Dark: No (USB4C02475)
Strobe/Lamp Enabled: No (USB4C02475)
Correct for Detector Non-linearity: No (USB4C02475)
Correct for Stray Light: No (USB4C02475)
Number of Pixels in Processed Spectrum: 3648
>>>>>Begin Processed Spectral Data<<<<<
344,91	0,000
345,13	0,000
345,35	0,000
345,57	0,000
345,79	516,667
346,00	60,000
346,22	-177,778
346,44	261,538
346,66	1875,000
346,87	650,000
347,09	-16,667
347,31	-2266,667
347,53	-500,000
347,74	-361,538
347,96	-28,571
348,18	2600,000
348,40	-157,143
348,61	142,857
348,83	207,317
349,05	142,857
349,27	300,000
349,48	90,385
349,70	476,471
349,92	85,366
350,14	411,111
350,35	192,683
350,57	125,714
350,79	176,471
351,01	338,462
351,22	337,500
351,44	-366,667
351,66	230,769
351,87	141,026
352,09	124,242
352,31	343,750
352,53	166,667
352,74	223,810
352,96	67,442
353,18	159,259
353,40	136,957
353,61	91,667
353,83	-116,667
354,05	136,364
354,26	260,714
354,48	-1700,000
354,70	65,854
354,92	200,000
355,13	150,000
355,35	0,000
355,57	200,000
355,78	191,176
356,00	73,529
356,22	11,111
356,44	-184,615
356,65	106,061
356,87	207,143
357,09	213,333
357,30	107,937
357,52	164,286
357,74	-2450,000
357,95	100,000
358,17	1016,667
358,39	188,235
358,60	430,000
358,82	323,529
359,04	-100,000
359,26	146,875
359,47	104,348
359,69	-75,676
359,91	303,846
360,12	430,769
360,34	114,563
360,56	203,448
360,77	628,571
360,99	36,538
361,21	129,167
361,42	87,500
361,64	800,000
361,86	95,833
362,07	34,615
362,29	50,000
362,51	253,846
362,72	41,892
362,94	204,762
363,16	280,000
363,37	-40,323
363,59	241,379
363,81	-188,889
364,02	50,588
364,24	208,696
364,46	127,027
364,67	215,556
364,89	365,000
365,11	1350,000
365,32	136,145
365,54	592,857
365,76	132,759
365,97	407,143
366,19	75,000
366,41	346,154
366,62	115,789
366,84	223,684
367,05	123,077
367,27	-155,556
367,49	158,537
367,70	575,000
367,92	53,226
368,14	5250,000
368,35	142,254
368,57	138,462
368,79	88,235
369,00	0,000
369,22	375,000
369,43	227,273
369,65	125,373
369,87	81,690
370,08	1014,286
370,30	223,529
370,51	109,259
370,73	111,538
370,95	204,762
371,16	766,667
371,38	211,364
371,60	92,308
371,81	202,703
372,03	484,211
372,24	145,455
372,46	59,756
372,68	151,563
372,89	131,429
373,11	176,190
373,32	286,667
373,54	110,000
373,76	102,128
373,97	83,871
374,19	200,000
374,40	33,333
374,62	-400,000
374,84	336,000
375,05	154,054
375,27	149,057
375,48	83,721
375,70	27,273
375,92	145,833
376,13	180,000
376,35	1633,333
376,56	106,667
376,78	89,583
376,99	106,494
377,21	-4100,000
377,43	56,250
377,64	176,316
377,86	223,913
378,07	106,667
378,29	-64,516
378,51	97,436
378,72	57,778
378,94	94,118
379,15	257,143
379,37	121,429
379,58	91,071
379,80	19,231
380,01	775,000
380,23	347,368
380,45	92,308
380,66	222,222
380,88	-1800,000
381,09	48,571
381,31	94,203
381,52	225,000
381,74	101,493
381,95	119,512
382,17	190,000
382,39	250,000
382,60	446,154
382,82	94,286
383,03	236,538
383,25	111,538
383,46	141,463
383,68	101,786
383,89	270,000
384,11	102,273
384,32	250,000
384,54	148,889
384,76	6100,000
384,97	87,654
385,19	-16,667
385,40	145,833
385,62	55,556
385,83	172,973
386,05	125,581
386,26	64,865
386,48	72,000
386,69	100,000
386,91	205,882
387,12	220,833
387,34	82,353
387,55	143,182
387,77	238,095
387,98	-571,429
388,20	183,871
388,41	215,385
388,63	190,698
388,84	92,308
389,06	115,385
389,27	103,571
389,49	190,625
389,70	64,286
389,92	67,187
390,13	-273,913
390,35	48,000
390,56	142,424
390,78	177,419
390,99	1200,000
391,21	173,214
391,42	81,967
391,64	70,370
391,85	81,667
392,07	94,000
392,28	77,500
392,50	75,439
392,71	48,148
392,93	100,000
393,14	-210,526
393,36	271,875
393,57	107,843
393,79	90,909
394,00	112,727
394,22	75,000
394,43	247,500
394,65	750,000
394,86	98,485
395,08	78,082
395,29	160,465
395,50	143,750
395,72	161,111
395,93	133,333
396,15	64,789
396,36	92,453
396,58	151,852
396,79	161,818
397,01	96,386
397,22	200,000
397,44	-1020,000
397,65	147,368
397,87	71,795
398,08	50,000
398,29	106,250
398,51	275,000
398,72	90,000
398,94	70,270
399,15	81,633
399,37	124,359
399,58	267,742
399,80	87,500
400,01	82,609
400,22	120,408
400,44	186,667
400,65	206,667
400,87	77,049
401,08	93,421
401,30	23,000
401,51	92,424
401,72	158,140
401,94	85,484
402,15	40,678
402,37	136,364
402,58	233,333
402,80	101,786
403,01	101,064
403,22	110,000
403,44	98,750
403,65	-254,545
403,87	102,564
404,08	80,000
404,30	186,207
404,51	55,357
404,72	91,463
404,94	104,286
405,15	71,014
405,37	111,111
405,58	136,364
405,79	105,063
406,01	64,486
406,22	-4,878
406,44	67,347
406,65	76,712
406,86	33,333
407,08	188,889
407,29	73,034
407,51	59,184
407,72	72,222
407,93	65,772
408,15	105,405
408,36	31,481
408,58	57,724
408,79	73,118
409,00	55,682
409,22	50,549
409,43	64,045
409,64	54,386
409,86	24,823
410,07	28,704
410,29	44,944
410,50	40,411
410,71	40,698
410,93	42,353
411,14	64,063
411,35	82,759
411,57	34,466
411,78	32,227
412,00	67,797
412,21	52,023
412,42	36,275
412,64	31,944
412,85	26,943
413,06	20,000
413,28	36,571
413,49	22,159
413,70	36,462
413,92	25,094
414,13	28,571
414,34	17,352
414,56	19,032
414,77	13,258
414,98	20,597
415,20	23,907
415,41	18,495
415,63	10,366
415,84	21,779
416,05	22,816
416,27	13,768
416,48	8,500
416,69	12,802
416,91	19,309
417,12	11,899
417,33	11,401
417,55	1,101
417,76	12,348
417,97	20,676
418,19	11,324
418,40	9,800
418,61	14,580
418,83	10,573
419,04	6,992
419,25	9,641
419,46	7,233
419,68	14,265
419,89	10,237
420,10	8,417
420,32	8,745
420,53	5,144
420,74	5,660
420,96	3,780
421,17	9,038
421,38	5,488
421,60	4,158
421,81	6,022
422,02	3,535
422,23	6,052
422,45	6,304
422,66	6,441
422,87	5,569
423,09	7,009
423,30	1,870
423,51	7,107
423,73	1,825
423,94	4,480
424,15	3,419
424,36	4,124
424,58	6,214
424,79	3,104
425,00	3,734
425,22	4,237
425,43	3,609
425,64	3,478
425,85	5,425
426,07	2,522
426,28	5,284
426,49	3,520
426,71	3,839
426,92	4,578
427,13	4,643
427,34	4,646
427,56	2,651
427,77	3,891
427,98	1,996
428,19	1,278
428,41	3,558
428,62	2,034
428,83	0,515
429,04	3,134
429,26	3,002
429,47	2,805
429,68	1,693
429,89	1,377
430,11	3,189
430,32	2,080
430,53	1,907
430,74	2,357
430,96	1,381
431,17	2,339
431,38	2,071
431,59	1,881
431,81	0,974
432,02	2,314
432,23	0,517
432,44	2,034
432,66	1,788
432,87	1,798
433,08	1,762
433,29	0,174
433,51	1,172
433,72	1,195
433,93	1,179
434,14	0,777
434,35	1,866
434,57	0,327
434,78	1,720
434,99	1,254
435,20	0,552
435,42	1,517
435,63	1,181
435,84	1,600
436,05	0,000
436,26	0,963
436,48	0,877
436,69	0,664
436,90	1,148
437,11	1,545
437,32	0,856
437,54	0,656
437,75	0,467
437,96	1,064
438,17	1,174
438,38	1,166
438,60	0,875
438,81	1,175
439,02	1,079
439,23	0,778
439,44	1,067
439,66	0,764
439,87	1,175
440,08	1,225
440,29	0,981
440,50	0,873
440,72	0,935
440,93	0,708
441,14	0,818
441,35	0,944
441,56	0,820
441,77	1,080
441,99	0,757
442,20	0,634
442,41	0,717
442,62	0,786
442,83	0,515
443,04	0,817
443,26	0,802
443,47	0,768
443,68	0,954
443,89	0,933
444,10	0,912
444,31	0,753
444,53	0,866
444,74	0,678
444,95	0,760
445,16	0,614
445,37	0,837
445,58	0,836
445,80	0,685
446,01	0,770
446,22	0,968
446,43	0,829
446,64	0,970
446,85	0,833
447,06	1,345
447,28	0,956
447,49	1,203
447,70	1,149
447,91	1,306
448,12	1,200
448,33	1,212
448,54	1,189
448,76	0,913
448,97	1,206
449,18	1,112
449,39	1,088
449,60	1,527
449,81	2,189
450,02	1,931
450,23	3,706
450,45	5,382
450,66	8,478
450,87	13,695
451,08	20,482
451,29	29,309
451,50	37,952
451,71	47,107
451,92	59,057
452,13	70,013
452,35	81,350
452,56	89,312
452,77	93,477
452,98	95,267
453,19	97,310
453,40	99,005
453,61	98,810
453,82	98,484
454,03	100,200
454,25	98,243
454,46	100,180
454,67	101,058
454,88	101,621
455,09	101,105
455,30	100,729
455,51	100,950
455,72	100,525
455,93	100,194
456,14	99,830
456,35	99,331
456,56	100,575
456,78	100,356
456,99	100,388
457,20	98,585
457,41	100,736
457,62	98,868
457,83	98,849
458,04	100,048
458,25	99,133
458,46	100,877
458,67	98,675
458,88	99,844
459,09	100,438
459,30	99,221
459,51	100,170
459,73	99,240
459,94	99,856
460,15	98,343
460,36	99,212
460,57	98,719
460,78	97,323
460,99	98,972
461,20	98,015
461,41	97,492
461,62	97,777
461,83	97,203
462,04	98,316
462,25	96,883
462,46	96,911
462,67	96,963
462,88	97,501
463,09	98,119
463,30	96,632
463,51	97,094
463,72	97,731
463,93	98,289
464,15	96,376
464,36	96,670
464,57	96,754
464,78	96,109
464,99	96,388
465,20	95,445
465,41	96,395
465,62	96,796
465,83	96,498
466,04	96,468
466,25	96,224
466,46	96,363
466,67	96,702
466,88	97,254
467,09	98,213
467,30	98,904
467,51	97,984
467,72	98,682
467,93	98,617
468,14	99,208
468,35	99,501
468,56	99,287
468,77	99,374
468,98	98,907
469,19	100,519
469,40	98,416
469,61	100,767
469,82	99,853
470,03	99,951
470,24	101,222
470,45	100,405
470,66	101,017
470,87	100,391
471,08	101,841
471,29	101,029
471,50	100,861
471,71	100,134
471,92	99,906
472,13	100,791
472,34	100,552
472,55	100,840
472,76	99,841
472,97	101,417
473,18	100,716
473,39	99,767
473,60	101,038
473,81	100,832
474,01	99,259
474,22	100,561
474,43	98,956
474,64	100,954
474,85	100,476
475,06	100,081
475,27	100,430
475,48	100,709
475,69	99,636
475,90	98,608
476,11	99,461
476,32	99,518
476,53	98,588
476,74	99,812
476,95	97,843
477,16	99,478
477,37	98,141
477,58	99,130
477,79	98,542
478,00	98,185
478,21	99,387
478,41	99,536
478,62	101,194
478,83	98,407
479,04	97,817
479,25	98,784
479,46	99,637
479,67	98,081
479,88	98,969
480,09	98,630
480,30	98,634
480,51	100,014
480,72	100,050
480,93	99,878
481,14	99,663
481,34	99,978
481,55	99,061
481,76	98,260
481,97	98,156
482,18	98,342
482,39	97,103
482,60	96,822
482,81	97,159
483,02	97,763
483,23	97,227
483,44	99,336
483,65	98,748
483,85	98,982
484,06	98,639
484,27	99,088
484,48	100,461
484,69	100,940
484,90	99,897
485,11	100,630
485,32	100,722
485,53	101,115
485,73	99,287
485,94	100,672
486,15	99,278
486,36	100,486
486,57	98,062
486,78	100,287
486,99	100,042
487,20	100,254
487,41	99,778
487,61	99,602
487,82	99,914
488,03	101,015
488,24	100,560
488,45	100,628
488,66	100,450
488,87	99,862
489,08	100,365
489,28	99,622
489,49	99,776
489,70	99,123
489,91	99,251
490,12	101,057
490,33	100,592
490,54	99,564
490,74	100,657
490,95	99,079
491,16	100,516
491,37	100,223
491,58	98,783
491,79	99,769
492,00	100,031
492,20	99,811
492,41	99,996
492,62	99,736
492,83	100,142
493,04	98,781
493,25	100,370
493,45	99,351
493,66	97,327
493,87	99,457
494,08	99,135
494,29	97,427
494,50	98,222
494,70	98,714
494,91	98,655
495,12	99,047
495,33	98,888
495,54	97,947
495,75	98,986
495,95	99,058
496,16	99,053
496,37	98,879
496,58	98,843
496,79	98,880
496,99	98,338
497,20	98,698
497,41	98,236
497,62	98,829
497,83	98,795
498,04	98,343
498,24	97,400
498,45	98,585
498,66	98,994
498,87	99,640
499,08	97,874
499,28	97,123
499,49	96,405
499,70	94,845
499,91	91,213
500,12	85,879
500,32	79,406
500,53	70,212
500,74	59,525
500,95	47,335
501,15	36,139
501,36	25,685
501,57	17,334
501,78	11,297
501,99	7,131
502,19	4,610
502,40	3,176
502,61	2,079
502,82	1,553
503,02	1,134
503,23	0,851
503,44	0,748
503,65	0,675
503,86	0,834
504,06	0,750
504,27	0,739
504,48	0,619
504,69	0,697
504,89	0,519
505,10	0,562
505,31	0,424
505,52	0,659
505,72	0,649
505,93	0,610
506,14	0,344
506,35	0,631
506,55	0,525
506,76	0,620
506,97	0,658
507,18	0,465
507,38	0,512
507,59	0,430
507,80	0,506
508,01	0,523
508,21	0,562
508,42	0,432
508,63	0,599
508,84	0,614
509,04	0,486
509,25	0,454
509,46	0,557
509,67	0,411
509,87	0,358
510,08	0,521
510,29	0,464
510,49	0,341
510,70	0,517
510,91	0,425
511,12	0,484
511,32	0,453
511,53	0,373
511,74	0,513
511,94	0,487
512,15	0,557
512,36	0,487
512,57	0,607
512,77	0,430
512,98	0,559
513,19	0,465
513,39	0,644
513,60	0,489
513,81	0,483
514,01	0,389
514,22	0,573
514,43	0,381
514,64	0,421
514,84	0,550
515,05	0,467
515,26	0,556
515,46	0,609
515,67	0,456
515,88	0,363
516,08	0,507
516,29	0,343
516,50	0,469
516,70	0,252
516,91	0,752
517,12	0,238
517,32	0,444
517,53	0,439
517,74	0,418
517,95	0,537
518,15	0,559
518,36	0,576
518,57	0,371
518,77	0,466
518,98	0,562
519,19	0,428
519,39	0,609
519,60	0,322
519,80	0,305
520,01	0,236
520,22	0,266
520,42	0,488
520,63	0,407
520,84	0,697
521,04	0,395
521,25	0,411
521,46	0,507
521,66	0,415
521,87	0,530
522,08	0,635
522,28	0,476
522,49	0,337
522,70	0,521
522,90	0,422
523,11	0,330
523,31	0,465
523,52	0,335
523,73	0,735
523,93	0,504
524,14	0,584
524,35	0,529
524,55	0,326
524,76	0,422
524,97	0,407
525,17	0,372
525,38	0,603
525,58	0,269
525,79	0,625
526,00	0,572
526,20	0,490
526,41	0,494
526,61	0,613
526,82	0,700
527,03	0,447
527,23	0,473
527,44	0,556
527,64	0,505
527,85	0,571
528,06	0,407
528,26	0,590
528,47	0,308
528,68	0,528
528,88	0,590
529,09	0,206
529,29	0,697
529,50	0,523
529,70	0,553
529,91	0,631
530,12	0,421
530,32	0,456
530,53	0,618
530,73	0,414
530,94	0,416
531,15	0,334
531,35	0,447
531,56	0,664
531,76	0,642
531,97	0,500
532,17	0,402
532,38	0,729
532,59	0,352
532,79	0,542
533,00	0,569
533,20	0,482
533,41	0,708
533,61	0,474
533,82	0,497
534,03	0,515
534,23	0,691
534,44	0,517
534,64	0,580
534,85	0,466
535,05	0,530
535,26	0,527
535,46	0,504
535,67	0,301
535,88	0,453
536,08	0,542
536,29	0,460
536,49	0,577
536,70	0,606
536,90	0,495
537,11	0,640
537,31	0,570
537,52	0,643
537,72	0,690
537,93	0,476
538,13	0,592
538,34	0,587
538,55	0,589
538,75	0,308
538,96	0,533
539,16	0,492
539,37	0,708
539,57	0,556
539,78	0,766
539,98	0,535
540,19	0,654
540,39	0,457
540,60	0,515
540,80	0,589
541,01	0,555
541,21	0,624
541,42	0,575
541,62	0,708
541,83	0,812
542,03	0,464
542,24	0,703
542,44	0,506
542,65	0,522
542,85	0,633
543,06	0,699
543,26	0,570
543,47	0,456
543,67	0,633
543,88	0,592
544,08	0,547
544,29	0,688
544,49	0,683
544,70	0,577
544,90	0,707
545,11	0,693
545,31	0,754
545,52	0,621
545,72	0,718
545,93	0,739
546,13	0,724
546,34	0,876
546,54	0,568
546,75	0,887
546,95	0,724
547,15	0,727
547,36	0,776
547,56	0,834
547,77	0,572
547,97	0,721
548,18	0,735
548,38	0,822
548,59	0,776
548,79	0,800
549,00	1,033
549,20	0,804
549,41	0,945
549,61	1,080
549,81	1,102
550,02	1,115
550,22	0,930
550,43	0,885
550,63	1,069
550,84	0,920
551,04	1,264
551,25	1,278
551,45	1,649
551,65	2,011
551,86	2,987
552,06	4,446
552,27	6,547
552,47	9,738
552,68	13,788
552,88	19,643
553,08	27,685
553,29	35,765
553,49	45,372
553,70	55,353
553,90	65,772
554,11	75,377
554,31	83,307
554,51	89,327
554,72	94,315
554,92	95,715
555,13	98,376
555,33	98,471
555,53	98,784
555,74	98,773
555,94	99,749
556,15	99,804
556,35	100,250
556,56	100,712
556,76	100,688
556,96	101,708
557,17	100,987
557,37	100,614
557,58	100,426
557,78	100,342
557,98	100,631
558,19	100,729
558,39	100,721
558,59	100,765
558,80	100,870
559,00	101,416
559,21	100,918
559,41	101,022
559,61	100,572
559,82	100,996
560,02	101,821
560,23	101,126
560,43	99,690
560,63	100,986
560,84	100,343
561,04	100,548
561,24	100,605
561,45	101,676
561,65	100,135
561,85	101,644
562,06	100,457
562,26	100,749
562,47	100,958
562,67	100,520
562,87	101,553
563,08	100,949
563,28	100,416
563,48	101,102
563,69	99,963
563,89	100,071
564,09	101,450
564,30	100,251
564,50	100,623
564,70	100,082
564,91	100,682
565,11	101,056
565,31	99,989
565,52	99,849
565,72	101,120
565,92	100,516
566,13	100,754
566,33	98,955
566,53	100,293
566,74	100,323
566,94	100,937
567,14	100,100
567,35	100,055
567,55	100,326
567,75	100,675
567,96	100,614
568,16	100,389
568,36	100,718
568,57	100,386
568,77	100,275
568,97	100,924
569,18	100,825
569,38	100,880
569,58	100,656
569,79	100,175
569,99	100,797
570,19	100,391
570,39	100,188
570,60	99,929
570,80	100,269
571,00	100,748
571,21	100,712
571,41	99,484
571,61	101,140
571,82	101,047
572,02	100,040
572,22	100,921
572,42	100,990
572,63	100,062
572,83	100,975
573,03	100,954
573,24	100,210
573,44	99,416
573,64	100,583
573,84	98,942
574,05	99,306
574,25	99,529
574,45	99,600
574,66	99,042
574,86	100,403
575,06	99,868
575,26	100,725
575,47	99,683
575,67	100,681
575,87	100,800
576,07	99,612
576,28	101,511
576,48	99,964
576,68	101,615
576,88	100,737
577,09	99,701
577,29	101,103
577,49	100,722
577,69	99,787
577,90	99,723
578,10	100,011
578,30	100,646
578,50	100,250
578,71	100,069
578,91	99,138
579,11	99,967
579,31	100,112
579,52	99,754
579,72	99,439
579,92	100,000
580,12	100,785
580,33	100,190
580,53	100,795
580,73	100,307
580,93	99,834
581,13	100,891
581,34	100,967
581,54	100,744
581,74	100,123
581,94	101,046
582,15	100,502
582,35	100,387
582,55	101,683
582,75	101,180
582,95	101,381
583,16	100,279
583,36	101,421
583,56	101,645
583,76	100,971
583,96	101,747
584,17	102,377
584,37	101,269
584,57	102,147
584,77	100,745
584,97	101,769
585,18	101,424
585,38	100,964
585,58	100,800
585,78	101,533
585,98	100,908
586,19	101,547
586,39	100,957
586,59	101,575
586,79	101,489
586,99	101,405
587,20	100,206
587,40	101,063
587,60	100,387
587,80	99,871
588,00	100,898
588,20	100,753
588,41	99,768
588,61	99,456
588,81	100,218
589,01	99,775
589,21	98,474
589,41	98,968
589,62	99,679
589,82	97,899
590,02	99,664
590,22	99,569
590,42	99,216
590,62	98,849
590,83	99,740
591,03	99,203
591,23	99,691
591,43	99,344
591,63	99,975
591,83	98,936
592,03	99,585
592,24	99,104
592,44	98,415
592,64	98,909
592,84	100,025
593,04	99,538
593,24	99,076
593,44	98,569
593,65	99,343
593,85	99,638
594,05	99,204
594,25	100,007
594,45	100,240
594,65	99,265
594,85	99,405
595,06	99,989
595,26	99,365
595,46	99,310
595,66	99,372
595,86	99,607
596,06	98,530
596,26	98,832
596,46	98,950
596,66	98,934
596,87	98,873
597,07	97,683
597,27	98,068
597,47	98,520
597,67	96,878
597,87	98,034
598,07	97,603
598,27	97,370
598,47	98,946
598,67	98,867
598,88	98,972
599,08	98,262
599,28	99,783
599,48	99,115
599,68	100,158
599,88	98,330
600,08	99,194
600,28	100,111
600,48	100,225
600,68	99,280
600,88	99,729
601,09	99,622
601,29	100,481
601,49	99,515
601,69	100,351
601,89	99,590
602,09	99,247
602,29	99,085
602,49	99,344
602,69	99,873
602,89	99,966
603,09	99,700
603,29	98,470
603,49	99,807
603,69	99,546
603,90	99,666
604,10	98,965
604,30	99,717
604,50	98,727
604,70	99,383
604,90	99,850
605,10	99,816
605,30	99,161
605,50	99,894
605,70	101,267
605,90	99,769
606,10	99,735
606,30	100,488
606,50	99,833
606,70	100,190
606,90	99,966
607,10	99,573
607,30	100,320
607,50	100,035
607,70	100,888
607,90	100,149
608,10	100,148
608,30	99,732
608,50	98,889
608,70	99,287
608,90	97,707
609,11	97,145
609,31	94,224
609,51	91,375
609,71	87,238
609,91	80,714
610,11	73,183
610,31	64,244
610,51	54,292
610,71	42,998
610,91	33,518
611,11	24,588
611,31	17,490
611,51	12,548
611,71	9,026
611,91	6,223
612,11	4,347
612,31	3,140
612,51	2,439
612,71	1,743
612,91	1,310
613,11	1,315
613,31	1,087
613,51	0,902
613,71	0,624
613,91	0,649
614,11	0,605
614,31	0,652
614,50	0,560
614,70	0,612
614,90	0,829
615,10	0,361
615,30	0,428
615,50	0,370
615,70	0,559
615,90	0,365
616,10	0,512
616,30	0,600
616,50	0,342
616,70	0,425
616,90	0,659
617,10	0,288
617,30	0,330
617,50	0,561
617,70	0,336
617,90	0,418
618,10	0,575
618,30	0,420
618,50	0,445
618,70	0,564
618,90	0,557
619,10	0,395
619,30	0,453
619,49	0,610
619,69	0,509
619,89	0,278
620,09	0,334
620,29	0,240
620,49	0,609
620,69	0,459
620,89	0,491
621,09	0,601
621,29	0,295
621,49	0,466
621,69	0,496
621,89	0,529
622,09	0,302
622,29	0,380
622,48	0,283
622,68	0,605
622,88	0,342
623,08	0,371
623,28	0,418
623,48	0,264
623,68	0,277
623,88	0,226
624,08	0,454
624,28	0,390
624,48	0,355
624,67	0,180
624,87	0,345
625,07	0,511
625,27	0,436
625,47	0,261
625,67	0,245
625,87	0,367
626,07	0,295
626,27	0,316
626,47	0,380
626,66	0,285
626,86	0,208
627,06	0,243
627,26	0,210
627,46	0,173
627,66	0,342
627,86	0,213
628,06	0,400
628,25	0,180
628,45	0,454
628,65	0,357
628,85	0,212
629,05	0,155
629,25	0,481
629,45	0,271
629,65	0,314
629,84	0,461
630,04	0,184
630,24	0,284
630,44	0,235
630,64	0,488
630,84	0,302
631,04	0,393
631,23	0,389
631,43	0,349
631,63	0,354
631,83	0,520
632,03	0,330
632,23	0,375
632,42	0,300
632,62	0,299
632,82	0,546
633,02	0,352
633,22	0,290
633,42	0,447
633,62	0,434
633,81	0,217
634,01	0,269
634,21	0,378
634,41	0,616
634,61	0,528
634,80	0,460
635,00	0,324
635,20	0,382
635,40	0,410
635,60	0,281
635,80	0,383
635,99	0,548
636,19	0,557
636,39	0,205
636,59	0,420
636,79	0,467
636,98	0,200
637,18	0,327
637,38	0,408
637,58	0,486
637,78	0,208
637,97	0,151
638,17	0,242
638,37	0,417
638,57	0,553
638,77	0,549
638,96	0,630
639,16	0,419
639,36	0,528
639,56	0,786
639,76	0,204
639,95	0,394
640,15	0,469
640,35	0,339
640,55	0,379
640,75	0,285
640,94	0,651
641,14	0,499
641,34	0,227
641,54	0,675
641,73	0,861
641,93	0,460
642,13	0,536
642,33	0,230
642,53	0,627
642,72	0,256
642,92	0,709
643,12	0,579
643,32	0,419
643,51	0,579
643,71	0,314
643,91	0,776
644,11	0,700
644,30	0,346
644,50	0,456
644,70	0,616
644,90	0,535
645,09	0,573
645,29	0,451
645,49	0,619
645,69	0,867
645,88	0,307
646,08	0,818
646,28	0,723
646,48	0,809
646,67	0,611
646,87	0,812
647,07	0,997
647,26	0,589
647,46	0,439
647,66	0,614
647,86	0,597
648,05	0,910
648,25	0,851
648,45	0,678
648,65	0,685
648,84	0,675
649,04	0,401
649,24	0,720
649,43	0,428
649,63	0,782
649,83	1,056
650,03	0,599
650,22	0,930
650,42	0,992
650,62	0,624
650,81	1,154
651,01	0,778
651,21	1,170
651,40	1,076
651,60	1,019
651,80	1,801
652,00	1,948
652,19	2,744
652,39	3,717
652,59	4,715
652,78	6,055
652,98	8,206
653,18	11,734
653,37	15,160
653,57	18,924
653,77	24,889
653,96	30,846
654,16	39,681
654,36	47,030
654,55	55,079
654,75	62,901
654,95	70,662
655,14	76,383
655,34	83,295
655,54	86,265
655,73	89,919
655,93	94,352
656,13	93,135
656,32	94,690
656,52	96,778
656,72	98,172
656,91	95,785
657,11	95,779
657,31	96,589
657,50	97,019
657,70	96,198
657,90	96,072
658,09	96,449
658,29	95,970
658,49	96,274
658,68	95,308
658,88	96,655
659,07	94,809
659,27	96,359
659,47	96,895
659,66	97,535
659,86	97,662
660,06	96,368
660,25	96,814
660,45	96,395
660,64	97,555
660,84	97,497
661,04	96,679
661,23	97,524
661,43	96,893
661,63	96,537
661,82	97,437
662,02	97,614
662,21	97,848
662,41	96,164
662,61	96,883
662,80	97,192
663,00	98,333
663,19	98,053
663,39	98,457
663,59	98,740
663,78	96,626
663,98	96,672
664,17	96,981
664,37	96,881
664,57	97,300
664,76	98,498
664,96	96,034
665,15	98,299
665,35	96,337
665,55	96,385
665,74	97,806
665,94	97,329
666,13	96,445
666,33	96,508
666,53	97,329
666,72	95,173
666,92	97,360
667,11	98,087
667,31	97,131
667,50	94,691
667,70	96,667
667,90	95,423
668,09	96,021
668,29	94,569
668,48	94,175
668,68	96,664
668,87	95,471
669,07	96,508
669,26	94,934
669,46	94,993
669,66	95,169
669,85	95,191
670,05	94,266
670,24	95,855
670,44	94,407
670,63	93,490
670,83	95,083
671,02	95,177
671,22	94,168
671,42	94,491
671,61	95,753
671,81	96,215
672,00	95,202
672,20	95,168
672,39	94,800
672,59	96,126
672,78	95,741
672,98	94,622
673,17	94,936
673,37	94,815
673,56	95,106
673,76	94,227
673,95	95,280
674,15	95,836
674,34	95,081
674,54	95,120
674,73	94,146
674,93	94,741
675,13	94,047
675,32	94,932
675,52	95,384
675,71	95,293
675,91	94,028
676,10	95,859
676,30	94,398
676,49	95,177
676,69	93,763
676,88	95,590
677,08	94,261
677,27	94,392
677,47	94,258
677,66	94,584
677,86	94,018
678,05	93,785
678,24	94,289
678,44	93,768
678,63	93,864
678,83	95,699
679,02	93,508
679,22	92,956
679,41	93,780
679,61	91,611
679,80	93,691
680,00	93,080
680,19	93,580
680,39	92,143
680,58	92,516
680,78	93,655
680,97	92,849
681,17	91,555
681,36	93,350
681,56	92,387
681,75	91,836
681,94	92,337
682,14	91,664
682,33	92,370
682,53	93,160
682,72	93,082
682,92	92,443
683,11	93,413
683,31	92,554
683,50	93,532
683,69	92,538
683,89	92,843
684,08	93,921
684,28	92,580
684,47	93,365
684,67	93,200
684,86	91,841
685,06	92,904
685,25	92,531
685,44	93,543
685,64	92,041
685,83	93,724
686,03	93,872
686,22	93,440
686,42	92,996
686,61	94,039
686,80	93,695
687,00	93,986
687,19	94,130
687,39	93,834
687,58	93,547
687,77	93,179
687,97	94,012
688,16	93,843
688,36	94,195
688,55	94,320
688,74	94,085
688,94	94,172
689,13	93,131
689,33	93,397
689,52	94,427
689,71	94,743
689,91	94,054
690,10	93,525
690,30	94,598
690,49	93,411
690,68	94,194
690,88	94,421
691,07	94,162
691,27	94,542
691,46	94,960
691,65	94,286
691,85	94,027
692,04	95,410
692,23	95,499
692,43	95,636
692,62	95,585
692,82	96,927
693,01	95,636
693,20	96,081
693,40	97,506
693,59	96,645
693,78	97,195
693,98	98,009
694,17	98,527
694,36	98,318
694,56	99,182
694,75	100,289
694,94	100,448
695,14	100,004
695,33	101,574
695,53	100,870
695,72	101,284
695,91	101,729
696,11	103,298
696,30	102,460
696,49	104,019
696,69	103,275
696,88	104,370
697,07	104,883
697,27	106,917
697,46	106,336
697,65	107,057
697,85	107,513
698,04	107,327
698,23	108,974
698,43	107,557
698,62	107,640
698,81	108,431
699,01	109,339
699,20	109,091
699,39	108,470
699,58	109,458
699,78	109,092
699,97	109,713
700,16	108,436
700,36	111,483
700,55	110,691
700,74	111,021
700,94	111,038
701,13	111,186
701,32	109,391
701,52	109,422
701,71	110,212
701,90	109,527
702,09	111,498
702,29	111,440
702,48	111,341
702,67	110,774
702,87	111,705
703,06	107,567
703,25	109,696
703,44	108,612
703,64	107,172
703,83	106,578
704,02	111,006
704,22	109,973
704,41	106,295
704,60	107,076
704,79	109,094
704,99	107,628
705,18	109,359
705,37	107,272
705,56	109,737
705,76	107,929
705,95	109,133
706,14	106,388
706,33	107,950
706,53	104,858
706,72	109,022
706,91	110,660
707,11	104,477
707,30	106,638
707,49	106,813
707,68	106,949
707,88	103,962
708,07	105,013
708,26	103,049
708,45	104,183
708,64	103,194
708,84	102,079
709,03	101,113
709,22	100,845
709,41	99,973
709,61	97,214
709,80	93,738
709,99	91,329
710,18	89,123
710,38	84,245
710,57	74,597
710,76	68,632
710,95	60,913
711,14	53,134
711,34	44,042
711,53	32,862
711,72	26,599
711,91	20,562
712,11	15,569
712,30	14,214
712,49	9,541
712,68	8,536
712,87	7,268
713,07	7,078
713,26	6,656
713,45	4,617
713,64	3,399
713,83	5,276
714,03	1,503
714,22	1,133
714,41	4,736
714,60	2,852
714,79	2,366
714,99	3,263
715,18	0,941
715,37	2,663
715,56	2,048
715,75	1,892
715,94	0,305
716,14	0,000
716,33	2,952
716,52	1,872
716,71	4,282
716,90	3,586
717,10	4,501
717,29	4,933
717,48	3,685
717,67	2,936
717,86	2,689
718,05	7,546
718,24	2,776
718,44	5,131
718,63	5,103
718,82	3,769
719,01	2,766
719,20	3,606
719,39	3,646
719,59	2,533
719,78	2,343
719,97	4,580
720,16	3,431
720,35	5,215
720,54	5,645
720,73	4,195
720,93	2,019
721,12	-0,720
721,31	4,956
721,50	6,392
721,69	5,800
721,88	3,947
722,07	4,321
722,27	0,779
722,46	3,309
722,65	-0,076
722,84	6,551
723,03	6,656
723,22	2,276
723,41	2,823
723,60	1,431
723,79	7,506
723,99	6,899
724,18	2,285
724,37	2,128
724,56	1,918
724,75	-0,268
724,94	6,673
725,13	5,742
725,32	5,771
725,51	5,376
725,71	5,230
725,90	5,509
726,09	3,707
726,28	2,731
726,47	5,239
726,66	1,947
726,85	4,479
727,04	7,331
727,23	4,004
727,42	2,789
727,61	5,509
727,81	8,017
728,00	4,413
728,19	-0,106
728,38	2,137
728,57	2,366
728,76	8,941
728,95	3,279
729,14	8,467
729,33	0,664
729,52	8,299
729,71	1,397
729,90	2,910
730,09	4,734
730,28	8,983
730,48	6,901
730,67	8,706
730,86	4,498
731,05	0,245
731,24	3,887
731,43	6,897
731,62	3,827
731,81	6,865
732,00	4,732
732,19	4,511
732,38	10,182
732,57	6,784
732,76	-1,791
732,95	5,520
733,14	8,483
733,33	4,583
733,52	0,407
733,71	7,447
733,90	5,809
734,09	5,874
734,28	7,743
734,47	-1,912
734,66	8,415
734,85	7,898
735,04	8,034
735,23	8,310
735,42	6,099
735,61	6,648
735,81	6,392
736,00	7,820
736,19	2,099
736,38	8,120
736,57	8,386
736,76	6,775
736,95	4,466
737,14	14,110
737,33	5,452
737,52	-2,736
737,71	6,860
737,90	6,869
738,09	1,034
738,28	6,331
738,47	6,270
738,66	5,593
738,85	-2,205
739,04	1,932
739,22	5,317
739,41	0,524
739,60	0,359
739,79	1,954
739,98	14,501
740,17	13,007
740,36	7,197
740,55	13,297
740,74	4,275
740,93	13,322
741,12	15,398
741,31	-6,339
741,50	5,749
741,69	2,773
741,88	19,440
742,07	5,300
742,26	9,369
742,45	11,957
742,64	2,041
742,83	6,593
743,02	2,410
743,21	-1,354
743,40	6,322
743,59	6,876
743,78	-1,477
743,97	16,509
744,16	4,095
744,34	10,124
744,53	14,224
744,72	12,951
744,91	17,043
745,10	2,759
745,29	-1,408
745,48	10,699
745,67	7,333
745,86	5,809
746,05	4,698
746,24	3,664
746,43	14,059
746,62	13,807
746,81	0,474
747,00	16,250
747,18	7,500
747,37	4,545
747,56	18,078
747,75	-0,512
747,94	9,848
748,13	3,738
748,32	7,805
748,51	9,368
748,70	15,827
748,89	6,452
749,08	18,966
749,26	5,333
749,45	7,728
749,64	2,842
749,83	5,897
750,02	2,949
750,21	15,104
750,40	1,583
750,59	8,511
750,78	11,566
750,96	11,471
751,15	15,818
751,34	17,690
751,53	10,833
751,72	5,898
751,91	9,974
752,10	21,127
752,29	-0,870
752,47	9,770
752,66	8,876
752,85	16,667
753,04	6,486
753,23	9,904
753,42	10,973
753,61	14,286
753,80	6,607
753,98	11,250
754,17	9,065
754,36	1,961
754,55	14,332
754,74	17,297
754,93	10,645
755,12	15,077
755,30	-0,738
755,49	12,317
755,68	3,836
755,87	8,874
756,06	19,308
756,25	-10,891
756,43	14,029
756,62	13,718
756,81	-2,353
757,00	14,011
757,19	21,472
757,38	13,029
757,56	7,095
757,75	-9,160
757,94	3,017
758,13	14,331
758,32	7,955
758,51	11,613
758,69	11,538
758,88	6,885
759,07	25,623
759,26	3,741
759,45	8,214
759,63	6,719
759,82	10,219
760,01	6,944
760,20	11,314
760,39	15,709
760,57	3,004
760,76	11,069
760,95	6,513
761,14	15,385
761,33	22,266
761,51	31,481
761,70	12,759
761,89	22,093
762,08	9,483
762,27	6,731
762,45	8,019
762,64	15,044
762,83	19,331
763,02	14,879
763,21	9,859
763,39	21,719
763,58	3,265
763,77	34,574
763,96	28,655
764,14	17,012
764,33	29,323
764,52	10,714
764,71	-6,897
764,89	14,527
765,08	19,476
765,27	4,455
765,46	16,818
765,65	34,518
765,83	24,762
766,02	15,751
766,21	9,283
766,40	8,372
766,58	27,602
766,77	-13,559
766,96	21,538
767,15	6,280
767,33	1,923
767,52	9,005
767,71	6,111
767,90	15,833
768,08	9,013
768,27	-8,837
768,46	9,048
768,64	4,369
768,83	29,189
769,02	20,000
769,21	20,312
769,39	14,765
769,58	27,500
769,77	21,196
769,96	6,623
770,14	12,595
770,33	27,273
770,52	15,385
770,70	17,327
770,89	12,755
771,08	5,208
771,27	17,526
771,45	25,434
771,64	23,026
771,83	37,097
772,01	-8,397
772,20	25,758
772,39	-4,459
772,57	33,333
772,76	39,310
772,95	13,198
773,14	38,953
773,32	2,198
773,51	34,419
773,70	28,477
773,88	11,055
774,07	27,197
774,26	6,707
774,44	3,518
774,63	34,810
774,82	42,169
775,00	29,258
775,19	26,437
775,38	3,333
775,56	29,268
775,75	-8,383
775,94	0,000
776,12	31,667
776,31	32,934
776,50	10,909
776,68	27,160
776,87	30,769
777,06	4,795
777,24	13,934
777,43	10,569
777,62	13,333
777,80	25,543
777,99	33,758
778,18	19,108
778,36	28,244
778,55	34,074
778,74	0,758
778,92	42,534
779,11	29,032
779,29	39,216
779,48	21,488
779,67	23,022
779,85	32,800
780,04	26,056
780,23	18,881
780,41	24,706
780,60	2,924
780,79	59,722
780,97	40,000
781,16	45,600
781,34	50,758
781,53	49,359
781,72	74,074
781,90	63,462
782,09	37,705
782,28	47,154
782,46	26,016
782,65	8,392
782,83	13,740
783,02	34,400
783,21	47,287
783,39	32,051
783,58	44,667
783,76	74,324
783,95	25,828
784,14	-14,737
784,32	14,679
784,51	-1,124
784,69	-5,096
784,88	17,419
785,06	26,950
785,25	7,519
785,44	29,054
785,62	32,143
785,81	29,851
785,99	6,803
786,18	27,049
786,37	33,103
786,55	8,209
786,74	65,217
786,92	27,907
787,11	17,600
787,29	51,765
787,48	-2,000
787,67	13,265
787,85	34,375
788,04	19,178
788,22	70,370
788,41	44,737
788,59	49,660
788,78	34,722
788,96	49,524
789,15	32,787
789,34	6,098
789,52	48,507
789,71	14,286
789,89	71,930
790,08	20,588
790,26	56,349
790,45	24,818
790,63	17,763
790,82	12,097
791,00	33,333
791,19	31,429
791,38	28,767
791,56	60,526
791,75	50,000
791,93	-18,627
792,12	18,939
792,30	16,447
792,49	28,037
792,67	29,286
792,86	-12,162
793,04	11,111
793,23	36,842
793,41	28,387
793,60	38,608
793,78	61,074
793,97	-11,207
794,15	43,791
794,34	39,796
794,52	30,233
794,71	47,531
794,89	35,714
795,08	45,513
795,26	49,000
795,45	28,723
795,63	23,270
795,82	0,000
796,00	-9,231
796,19	89,610
796,37	23,729
796,56	-16,667
796,74	46,875
796,93	31,933
797,11	13,333
797,30	38,168
797,48	51,748
797,67	40,323
797,85	41,304
798,04	38,739
798,22	11,511
798,41	77,119
798,59	12,857
798,77	34,188
798,96	27,419
799,14	52,778
799,33	50,442
799,51	14,851
799,70	70,330
799,88	19,266
800,07	21,583
800,25	33,588
800,44	24,752
800,62	36,691
800,80	25,000
800,99	-28,205
801,17	45,517
801,36	22,917
801,54	21,705
801,73	7,576
801,91	2,247
802,10	18,824
802,28	19,685
802,46	33,871
802,65	35,099
802,83	30,579
803,02	34,694
803,20	57,627
803,39	35,780
803,57	28,873
803,75	35,000
803,94	31,757
804,12	52,795
804,31	29,808
804,49	29,677
804,67	-33,333
804,86	36,646
805,04	13,178
805,23	40,146
805,41	37,255
805,59	19,880
805,78	49,286
805,96	63,855
806,15	52,000
806,33	-29,927
806,51	51,923
806,70	-46,512
806,88	17,273
807,07	20,492
807,25	52,174
807,43	30,000
807,62	28,125
807,80	32,317
807,99	9,353
808,17	18,056
808,35	26,415
808,54	27,374
808,72	26,923
808,90	-13,821
809,09	16,058
809,27	47,573
809,46	17,757
809,64	31,214
809,82	13,793
810,01	19,892
810,19	-28,182
810,37	56,818
810,56	23,841
810,74	30,818
810,92	10,563
811,11	27,607
811,29	11,180
811,48	0,870
811,66	25,888
811,84	35,593
812,03	5,405
812,21	32,121
812,39	25,806
812,58	22,807
812,76	42,336
812,94	4,027
813,13	22,561
813,31	38,095
813,49	19,333
813,68	8,197
813,86	29,487
814,04	4,505
814,23	13,077
814,41	30,822
814,59	17,647
814,78	6,040
814,96	17,318
815,14	20,603
815,33	19,008
815,51	23,622
815,69	35,878
815,87	19,355
816,06	23,383
816,24	47,712
816,42	0,595
816,61	6,790
816,79	9,827
816,97	39,744
817,16	1,190
817,34	15,882
817,52	47,196
817,70	21,244
817,89	27,273
818,07	3,333
818,25	29,747
818,44	10,695
818,62	16,337
818,80	18,681
818,98	32,308
819,17	17,797
819,35	36,242
819,53	12,821
819,72	21,081
819,90	19,111
820,08	30,198
820,26	24,658
820,45	13,441
820,63	32,164
820,81	26,147
820,99	25,764
821,18	19,880
821,36	24,375
821,54	21,393
821,73	8,197
821,91	-2,817
822,09	32,544
822,27	26,459
822,46	28,079
822,64	6,316
822,82	2,538
823,00	31,937
823,19	22,381
823,37	22,650
823,55	25,316
823,73	25,281
823,91	13,904
824,10	15,625
824,28	11,983
824,46	-17,105
824,64	20,664
824,83	7,109
825,01	-0,588
825,19	15,721
825,37	1,471
825,56	21,756
825,74	13,420
825,92	23,735
826,10	8,370
826,28	11,070
826,47	19,844
826,65	21,583
826,83	14,474
827,01	29,134
827,19	24,806
827,38	6,367
827,56	19,500
827,74	-11,848
827,92	9,268
828,10	11,458
828,29	4,059
828,47	13,869
828,65	22,656
828,83	6,329
829,01	0,450
829,20	3,077
829,38	16,803
829,56	30,976
829,74	0,385
829,92	-9,312
830,10	0,858
830,29	16,092
830,47	22,388
830,65	0,418
830,83	12,245
831,01	5,381
831,20	-1,825
831,38	9,772
831,56	20,351
831,74	18,983
831,92	15,385
832,10	12,658
832,29	10,954
832,47	8,865
832,65	15,410
832,83	15,190
833,01	13,293
833,19	14,205
833,37	8,207
833,56	14,286
833,74	23,279
833,92	9,459
834,10	9,940
834,28	9,059
834,46	9,827
834,64	21,333
834,83	12,465
835,01	17,755
835,19	8,156
835,37	13,277
835,55	9,915
835,73	9,040
835,91	17,699
836,09	3,947
836,28	11,280
836,46	17,109
836,64	8,136
836,82	6,868
837,00	-5,751
837,18	16,000
837,36	17,889
837,54	0,546
837,72	5,063
837,91	2,833
838,09	15,758
838,27	4,663
838,45	7,397
838,63	9,859
838,81	8,815
838,99	7,958
839,17	-4,969
839,35	17,156
839,53	12,245
839,72	15,934
839,90	6,000
840,08	9,176
840,26	3,412
840,44	2,799
840,62	-0,270
840,80	15,165
840,98	8,949
841,16	-6,793
841,34	21,786
841,52	5,000
841,70	-0,744
841,89	7,973
842,07	9,885
842,25	17,610
842,43	10,219
842,61	9,693
842,79	4,989
842,97	4,348
843,15	11,482
843,33	10,082
843,51	8,478
843,69	9,570
843,87	18,750
844,05	12,527
844,23	10,603
844,41	19,085
844,59	13,693
844,77	7,216
844,95	-2,597
845,13	7,789
845,31	7,662
845,50	11,387
845,68	8,351
845,86	8,333
846,04	11,599
846,22	5,439
846,40	3,719
846,58	7,968
846,76	11,968
846,94	2,187
847,12	5,769
847,30	-1,501
847,48	12,933
847,66	4,938
847,84	8,127
848,02	-3,309
848,20	8,851
848,38	6,964
848,56	1,077
848,74	7,832
848,92	13,746
849,10	5,458
849,28	12,441
849,46	-2,033
849,64	11,473
849,82	14,377
850,00	4,553
850,18	6,498
850,36	5,629
850,54	8,946
850,72	6,698
850,90	12,131
851,08	3,150
851,26	1,780
851,44	3,231
851,62	10,989
851,80	5,873
851,98	9,502
852,16	8,371
852,34	10,704
852,52	5,769
852,70	5,660
852,87	-1,310
853,05	4,585
853,23	0,295
853,41	8,169
853,59	4,040
853,77	-0,436
853,95	0,885
854,13	1,136
854,31	4,178
854,49	5,767
854,67	7,032
854,85	5,256
855,03	12,532
855,21	4,762
855,39	12,614
855,57	9,104
855,75	9,031
855,93	3,933
856,11	6,226
856,28	-1,465
856,46	1,447
856,64	1,818
856,82	9,102
857,00	8,376
857,18	4,768
857,36	4,353
857,54	9,744
857,72	2,516
857,90	5,068
858,08	-1,953
858,26	5,589
858,44	3,584
858,61	7,345
858,79	2,026
858,97	6,405
859,15	8,715
859,33	3,158
859,51	6,012
859,69	3,295
859,87	1,451
860,05	0,246
860,23	4,562
860,40	-1,749
860,58	0,000
860,76	4,239
860,94	4,487
861,12	4,033
861,30	5,219
861,48	5,377
861,66	4,697
861,84	3,030
862,01	9,610
862,19	5,793
862,37	-0,217
862,55	6,478
862,73	4,959
862,91	5,899
863,09	1,335
863,27	-0,206
863,44	2,316
863,62	4,601
863,80	3,024
863,98	3,775
864,16	5,418
864,34	2,196
864,52	9,338
864,69	3,815
864,87	3,673
865,05	4,745
865,23	-2,626
865,41	-1,190
865,59	4,193
865,76	4,720
865,94	5,893
866,12	2,783
866,30	4,310
866,48	6,289
866,66	5,304
866,83	6,341
867,01	2,648
867,19	3,133
867,37	5,345
867,55	5,867
867,73	5,145
867,90	5,285
868,08	7,513
868,26	2,602
868,44	1,923
868,62	6,425
868,79	4,774
868,97	4,460
869,15	4,198
869,33	4,293
869,51	2,830
869,69	2,176
869,86	3,099
870,04	4,468
870,22	4,794
870,40	4,237
870,57	4,762
870,75	7,154
870,93	4,591
871,11	3,147
871,29	4,630
871,46	1,538
871,64	3,779
871,82	4,827
872,00	5,648
872,18	6,074
872,35	3,976
872,53	8,999
872,71	6,147
872,89	7,132
873,06	8,188
873,24	12,619
873,42	9,072
873,60	10,007
873,77	9,841
873,95	10,717
874,13	14,912
874,31	12,027
874,49	12,798
874,66	15,395
874,84	15,359
875,02	15,766
875,20	17,075
875,37	11,584
875,55	14,694
875,73	14,736
875,91	14,206
876,08	12,131
876,26	16,780
876,44	10,851
876,61	14,494
876,79	10,482
876,97	11,008
877,15	12,192
877,32	10,238
877,50	13,097
877,68	14,154
877,86	10,814
878,03	11,862
878,21	8,847
878,39	11,581
878,56	13,034
878,74	13,106
878,92	13,913
879,10	16,765
879,27	17,911
879,45	16,973
879,63	15,326
879,80	18,065
879,98	19,504
880,16	20,031
880,34	24,708
880,51	25,267
880,69	27,118
880,87	25,367
881,04	26,762
881,22	30,569
881,40	31,764
881,57	33,734
881,75	32,892
881,93	35,201
882,10	37,114
882,28	39,289
882,46	40,433
882,63	41,481
882,81	39,586
882,99	39,475
883,16	43,299
883,34	41,404
883,52	41,176
883,69	38,129
883,87	37,538
884,05	38,405
884,22	34,491
884,40	33,124
884,58	26,563
884,75	27,413
884,93	26,609
885,11	25,680
885,28	22,042
885,46	21,960
885,64	20,662
885,81	16,817
885,99	16,973
886,17	16,980
886,34	14,735
886,52	15,189
886,70	13,988
886,87	13,349
887,05	13,482
887,22	11,512
887,40	12,578
887,58	12,187
887,75	12,340
887,93	10,500
888,11	11,794
888,28	12,650
888,46	10,981
888,63	11,812
888,81	12,783
888,99	13,229
889,16	12,500
889,34	13,791
889,51	16,333
889,69	16,250
889,87	16,860
890,04	16,928
890,22	16,553
890,39	17,412
890,57	19,932
890,75	20,516
890,92	21,973
891,10	22,787
891,27	22,077
891,45	23,770
891,63	27,496
891,80	28,511
891,98	26,027
892,15	28,145
892,33	27,694
892,51	27,370
892,68	25,023
892,86	28,837
893,03	26,450
893,21	26,407
893,38	26,327
893,56	25,225
893,74	24,757
893,91	22,860
894,09	22,657
894,26	20,019
894,44	19,537
894,61	16,776
894,79	16,430
894,96	14,368
895,14	15,013
895,32	13,141
895,49	13,160
895,67	11,789
895,84	10,822
896,02	10,813
896,19	10,407
896,37	8,442
896,54	9,738
896,72	8,282
896,89	7,570
897,07	7,908
897,25	6,898
897,42	7,987
897,60	6,809
897,77	5,948
897,95	5,143
898,12	5,416
898,30	6,856
898,47	4,787
898,65	5,095
898,82	5,095
899,00	6,298
899,17	5,807
899,35	4,795
899,52	6,303
899,70	6,207
899,87	5,402
900,05	5,594
900,22	6,063
900,40	4,570
900,57	5,151
900,75	5,165
900,92	5,319
901,10	5,587
901,27	6,115
901,45	5,190
901,62	5,847
901,80	7,058
901,97	5,945
902,15	6,106
902,32	7,461
902,50	7,353
902,67	8,487
902,85	6,734
903,02	8,037
903,20	7,601
903,37	8,411
903,54	9,993
903,72	9,653
903,89	9,701
904,07	10,473
904,24	11,344
904,42	10,571
904,59	13,498
904,77	13,706
904,94	13,388
905,12	14,381
905,29	15,605
905,47	17,239
905,64	17,554
905,81	18,576
905,99	18,554
906,16	19,000
906,34	20,170
906,51	22,198
906,69	20,512
906,86	22,516
907,03	21,482
907,21	21,868
907,38	20,922
907,56	20,640
907,73	21,572
907,91	21,599
908,08	22,622
908,25	20,530
908,43	21,977
908,60	18,909
908,78	20,499
908,95	19,419
909,13	18,422
909,30	17,197
909,47	18,364
909,65	17,476
909,82	15,484
910,00	15,032
910,17	15,420
910,34	14,409
910,52	14,073
910,69	12,549
910,87	12,667
911,04	11,373
911,21	11,854
911,39	11,982
911,56	11,834
911,73	10,374
911,91	9,670
912,08	11,524
912,26	10,432
912,43	11,295
912,60	9,560
912,78	10,017
912,95	10,354
913,13	9,491
913,30	9,466
913,47	9,409
913,65	9,787
913,82	10,057
913,99	10,277
914,17	10,710
914,34	8,853
914,51	9,749
914,69	10,937
914,86	11,283
915,03	11,087
915,21	11,553
915,38	11,135
915,56	10,333
915,73	10,747
915,90	11,998
916,08	12,984
916,25	13,882
916,42	14,726
916,60	14,599
916,77	14,553
916,94	15,062
917,12	16,035
917,29	16,654
917,46	18,677
917,64	18,691
917,81	19,155
917,98	20,897
918,16	22,689
918,33	23,906
918,50	24,057
918,67	25,889
918,85	27,884
919,02	27,880
919,19	31,278
919,37	32,479
919,54	35,524
919,71	35,005
919,89	38,376
920,06	39,780
920,23	42,325
920,41	43,099
920,58	42,862
920,75	46,347
920,92	46,632
921,10	48,571
921,27	49,991
921,44	50,586
921,62	50,345
921,79	52,444
921,96	52,218
922,13	54,345
922,31	52,514
922,48	50,949
922,65	52,760
922,82	50,413
923,00	51,267
923,17	51,505
923,34	50,711
923,52	47,289
923,69	48,242
923,86	46,957
924,03	43,872
924,21	44,188
924,38	43,456
924,55	44,267
924,72	41,780
924,90	40,775
925,07	40,826
925,24	39,893
925,41	39,940
925,59	39,042
925,76	37,818
925,93	39,019
926,10	36,847
926,28	36,966
926,45	36,570
926,62	36,789
926,79	36,063
926,96	36,578
927,14	37,191
927,31	36,690
927,48	36,529
927,65	38,809
927,83	37,854
928,00	38,714
928,17	37,904
928,34	38,687
928,51	39,320
928,69	40,073
928,86	39,784
929,03	41,860
929,20	42,624
929,37	43,924
929,55	43,544
929,72	46,393
929,89	47,369
930,06	46,767
930,23	47,590
930,41	49,294
930,58	49,862
930,75	50,506
930,92	53,875
931,09	53,501
931,27	54,436
931,44	54,943
931,61	56,678
931,78	56,737
931,95	58,783
932,12	58,624
932,30	58,804
932,47	59,867
932,64	58,063
932,81	59,966
932,98	58,563
933,16	58,582
933,33	59,479
933,50	60,177
933,67	58,587
933,84	59,428
934,01	57,885
934,18	57,299
934,36	55,066
934,53	55,761
934,70	54,999
934,87	54,742
935,04	53,184
935,21	52,798
935,38	50,938
935,56	51,235
935,73	48,779
935,90	49,341
936,07	47,957
936,24	47,433
936,41	45,410
936,58	46,039
936,76	44,164
936,93	44,059
937,10	44,115
937,27	42,633
937,44	44,630
937,61	44,449
937,78	40,850
937,95	42,838
938,13	43,236
938,30	42,640
938,47	41,317
938,64	40,885
938,81	41,951
938,98	42,363
939,15	44,273
939,32	41,886
939,49	42,835
939,66	43,330
939,84	43,080
940,01	45,257
940,18	44,792
940,35	44,833
940,52	45,254
940,69	46,155
940,86	48,286
941,03	49,551
941,20	49,837
941,37	49,571
941,54	51,142
941,71	51,809
941,89	51,838
942,06	53,035
942,23	54,820
942,40	54,234
942,57	56,802
942,74	58,007
942,91	57,446
943,08	60,026
943,25	60,416
943,42	59,595
943,59	60,426
943,76	61,946
943,93	60,864
944,10	63,389
944,27	62,171
944,44	61,872
944,61	62,339
944,79	61,715
944,96	60,353
945,13	61,845
945,30	63,138
945,47	61,765
945,64	60,837
945,81	60,060
945,98	60,397
946,15	60,852
946,32	57,052
946,49	57,352
946,66	55,947
946,83	54,905
947,00	53,356
947,17	51,798
947,34	50,845
947,51	49,911
947,68	51,795
947,85	48,953
948,02	46,421
948,19	48,983
948,36	46,921
948,53	44,222
948,70	44,236
948,87	44,624
949,04	42,992
949,21	41,880
949,38	41,031
949,55	37,979
949,72	39,681
949,89	38,051
950,06	39,202
950,23	36,110
950,40	34,314
950,57	35,343
950,74	36,328
950,91	35,672
951,08	36,319
951,25	35,433
951,42	35,141
951,59	34,089
951,76	35,443
951,93	36,066
952,10	34,623
952,27	35,569
952,44	36,869
952,61	39,169
952,77	35,992
952,94	36,233
953,11	35,443
953,28	39,765
953,45	38,301
953,62	38,301
953,79	38,404
953,96	42,100
954,13	40,973
954,30	40,947
954,47	41,804
954,64	40,318
954,81	41,322
954,98	39,546
955,15	41,726
955,32	44,346
955,49	45,233
955,65	46,890
955,82	44,775
955,99	44,838
956,16	45,051
956,33	47,800
956,50	47,083
956,67	46,787
956,84	47,964
957,01	49,339
957,18	50,610
957,35	55,626
957,52	46,854
957,68	48,696
957,85	48,515
958,02	46,171
958,19	48,366
958,36	49,737
958,53	52,987
958,70	48,329
958,87	51,031
959,04	51,774
959,21	47,909
959,37	51,244
959,54	51,044
959,71	48,166
959,88	45,284
960,05	41,841
960,22	39,604
960,39	46,178
960,56	39,903
960,72	48,412
960,89	41,051
961,06	41,498
961,23	36,332
961,40	40,785
961,57	33,011
961,74	35,080
961,90	40,510
962,07	32,107
962,24	38,889
962,41	30,108
962,58	31,661
962,75	31,124
962,92	29,205
963,08	32,390
963,25	32,938
963,42	29,534
963,59	29,795
963,76	26,221
963,93	29,065
964,10	21,907
964,26	23,364
964,43	26,639
964,60	23,077
964,77	24,043
964,94	28,769
965,10	29,575
965,27	16,723
965,44	25,167
965,61	23,745
965,78	33,568
965,95	25,901
966,11	22,965
966,28	25,934
966,45	22,476
966,62	18,590
966,79	23,171
966,95	22,629
967,12	25,359
967,29	20,327
967,46	24,783
967,63	20,000
967,79	16,576
967,96	22,310
968,13	43,260
968,30	16,120
968,47	25,858
968,63	26,036
968,80	26,207
968,97	47,429
969,14	18,584
969,31	27,244
969,47	47,950
969,64	43,894
969,81	33,684
969,98	35,673
970,14	26,667
970,31	19,355
970,48	24,911
970,65	33,099
970,81	26,190
970,98	43,071
971,15	32,258
971,32	27,119
971,48	32,353
971,65	38,235
971,82	57,653
971,99	66,169
972,15	44,211
972,32	37,860
972,49	41,202
972,66	18,142
972,82	36,634
972,99	65,532
973,16	73,196
973,33	65,238
973,49	43,333
973,66	62,185
973,83	48,980
974,00	55,738
974,16	79,874
974,33	53,659
974,50	45,139
974,67	84,211
974,83	72,316
975,00	68,116
975,17	80,272
975,33	70,290
975,50	83,636
975,67	83,036
975,84	58,156
976,00	40,000
976,17	69,118
976,34	49,645
976,50	60,870
976,67	71,552
976,84	80,769
977,00	63,158
977,17	78,740
977,34	79,570
977,50	52,128
977,67	71,930
977,84	56,364
978,01	90,805
978,17	97,436
978,34	95,833
978,51	28,788
978,67	116,484
978,84	85,417
979,01	100,000
979,17	134,848
979,34	393,750
979,51	53,846
979,67	137,500
979,84	64,286
980,01	80,328
980,17	60,000
980,34	79,710
980,51	95,455
980,67	84,000
980,84	84,483
981,01	58,974
981,17	88,000
981,34	575,000
981,50	41,176
981,67	177,586
981,84	72,414
982,00	173,913
982,17	227,273
982,34	128,205
982,50	200,000
982,67	59,259
982,84	147,619
983,00	92,000
983,17	125,000
983,33	161,290
983,50	41,304
983,67	132,609
983,83	900,000
984,00	106,250
984,17	65,000
984,33	71,622
984,50	61,458
984,66	300,000
984,83	67,442
985,00	165,574
985,16	53,846
985,33	275,000
985,49	313,793
985,66	142,424
985,83	89,474
985,99	74,775
986,16	220,000
986,32	146,377
986,49	408,333
986,66	-37,209
986,82	121,053
986,99	159,524
987,15	-48,276
987,32	98,148
987,49	169,444
987,65	60,000
987,82	-29,412
987,98	170,588
988,15	157,143
988,31	46,000
988,48	-91,667
988,65	188,889
988,81	213,043
988,98	500,000
989,14	161,224
989,31	173,333
989,47	117,073
989,64	92,857
989,80	100,000
989,97	111,765
990,14	143,478
990,30	145,000
990,47	121,951
990,63	326,087
990,80	172,727
990,96	358,333
991,13	61,111
991,29	172,549
991,46	162,745
991,62	188,235
991,79	70,175
991,95	300,000
992,12	118,605
992,29	40,000
992,45	-146,154
992,62	-390,000
992,78	-166,667
992,95	283,333
993,11	206,667
993,28	39,506
993,44	252,174
993,61	800,000
993,77	180,000
993,94	146,512
994,10	314,286
994,27	200,000
994,43	326,471
994,60	-24,242
994,76	168,421
994,93	313,636
995,09	-0,000
995,26	91,358
995,42	108,475
995,59	250,000
995,75	121,875
995,92	318,182
996,08	291,667
996,25	88,889
996,41	106,250
996,58	221,622
996,74	220,000
996,91	305,556
997,07	103,846
997,23	136,170
997,40	-200,000
997,56	53,333
997,73	0,000
997,89	225,926
998,06	-47,059
998,22	-3200,000
998,39	465,217
998,55	-58,333
998,72	315,000
998,88	3000,000
999,05	192,308
999,21	191,304
999,37	-3500,000
999,54	-2450,000
999,70	338,462
999,87	-18,750
1000,03	-15,625
1000,20	300,000
1000,36	2000,000
1000,52	405,556
1000,69	97,727
1000,85	151,724
1001,02	113,846
1001,18	113,636
1001,35	22,222
1001,51	-21,429
1001,67	-34,667
1001,84	316,667
1002,00	167,500
1002,17	154,545
1002,33	-264,706
1002,50	100,000
1002,66	5400,000
1002,82	220,000
1002,99	38,462
1003,15	65,217
1003,32	38,710
1003,48	-940,000
1003,64	-117,500
1003,81	-135,714
1003,97	254,545
1004,14	1700,000
1004,30	-957,143
1004,46	1350,000
1004,63	231,579
1004,79	-6,667
1004,95	-17,647
1005,12	-400,000
1005,28	265,517
1005,45	46,154
1005,61	-666,667
1005,77	100,000
1005,94	125,806
1006,10	-4400,000
1006,26	155,357
1006,43	788,889
1006,59	-100,000
1006,76	-140,000
1006,92	-20,000
1007,08	410,000
1007,25	-180,556
1007,41	-283,333
1007,57	-0,000
1007,74	-139,130
1007,90	-880,000
1008,06	154,286
1008,23	133,333
1008,39	2950,000
1008,55	-142,857
1008,72	687,500
1008,88	170,000
1009,04	292,000
1009,21	-64,706
1009,37	-475,000
1009,53	-242,105
1009,70	-207,692
1009,86	106,818
1010,02	553,846
1010,19	0,000
1010,35	156,250
1010,51	633,333
1010,68	462,500
1010,84	-333,333
1011,00	82,222
1011,17	-440,000
1011,33	241,176
1011,49	143,750
1011,66	213,043
1011,82	-75,472
1011,98	-31,818
1012,14	127,273
1012,31	-500,000
1012,47	666,667
1012,63	488,889
1012,80	256,000
1012,96	-227,273
1013,12	111,628
1013,29	102,632
1013,45	97,778
1013,61	-622,222
1013,77	44,444
1013,94	75,000
1014,10	6,061
1014,26	3800,000
1014,43	-3,030
1014,59	-637,500
1014,75	3050,000
1014,91	2233,333
1015,08	333,333
1015,24	266,667
1015,40	-252,941
1015,56	461,111
1015,73	226,667
1015,89	271,429
1016,05	100,000
1016,21	-355,556
1016,38	460,000
1016,54	-138,462
1016,70	-11,111
1016,86	160,606
1017,03	153,846
1017,19	121,739
1017,35	-346,154
1017,51	165,714
1017,68	472,727
1017,84	5100,000
1018,00	571,429
1018,16	125,000
1018,33	-328,571
1018,49	73,171
1018,65	-20,588
1018,81	-185,000
1018,97	-775,000
1019,14	226,667
1019,30	175,000
1019,46	555,556
1019,62	306,667
1019,79	333,333
1019,95	141,667
1020,11	-314,286
1020,27	400,000
1020,43	-700,000
1020,60	-384,211
1020,76	-94,444
1020,92	414,286
1021,08	4300,000
1021,24	255,000
1021,41	-94,118
1021,57	18,182
1021,73	-1400,000
1021,89	-207,143
1022,05	1400,000
1022,21	79,487
1022,38	-350,000
1022,54	1200,000
1022,70	-154,545
1022,86	700,000
1023,02	23,529
1023,19	-344,444
1023,35	116,129
1023,51	150,000
1023,67	87,500
1023,83	1766,667
1023,99	188,889
1024,16	71,429
1024,32	-88,000
1024,48	218,182
1024,64	722,222
1024,80	-180,556
1024,96	6,897
1025,12	14,286
1025,29	78,571
1025,45	136,111
1025,61	-2133,333
1025,77	-180,645
1025,93	90,000
1026,09	114,634
1026,26	126,316
1026,42	-58,333
1026,58	-117,391
1026,74	295,833
1026,90	416,667
1027,06	-30,769
1027,22	-147,826
1027,38	106,522
1027,55	933,333
1027,71	216,667
1027,87	350,000
1028,03	-243,750
1028,19	-205,882
1028,35	-428,571
1028,51	280,000
1028,67	152,941
1028,83	184,444
1029,00	400,000
1029,16	151,351
1029,32	96,429
1029,48	14,286
1029,64	-153,846
1029,80	322,727
1029,96	-50,000
1030,12	363,158
1030,28	750,000
1030,44	1000,000
1030,61	327,273
1030,77	-983,333
1030,93	-143,750
1031,09	1150,000
1031,25	0,000
1031,41	-80,000
1031,57	-900,000
1031,73	-2300,000
1031,89	-195,455
1032,05	-109,302
1032,21	-27,273
1032,37	107,143
1032,53	17,241
1032,69	211,538
1032,86	-833,333
1033,02	-333,333
1033,18	241,667
1033,34	-1400,000
1033,50	131,250
1033,66	-52,000
1033,82	255,556
1033,98	3400,000
1034,14	-42,857
1034,30	-160,000
1034,46	155,882
1034,62	84,615
1034,78	-69,565
1034,94	145,161
1035,10	-230,769
1035,26	633,333
1035,42	-13,333
1035,58	166,667
1035,74	94,595
1035,90	462,500
1036,06	58,824
1036,22	100,000
1036,38	-93,750
1036,54	-50,000
1036,70	96,774
1036,86	195,000
1037,02	-114,286
1037,18	-135,294
1037,34	333,333
1037,50	-1420,000
1037,66	-1100,000
1037,82	228,571
1037,98	375,000
1038,14	-1250,000
1038,30	296,552
1038,46	-457,143
1038,62	566,667
1038,78	-214,286
1038,94	300,000
1039,10	156,000
1039,26	-137,500
1039,42	263,043
1039,58	-850,000
1039,74	750,000
1039,90	-658,333
1040,06	-26,154
>>>>>End Processed Spectral Data<<<<<
