SpectraSuite Data File
++++++++++++++++++++++++++++++++++++
Date: Tue Jan 31 19:10:10 EET 2017
User: optolab
Dark Spectrum Present: Yes
Reference Spectrum Present: Yes
Number of Sampled Component Spectra: 1
Spectrometers: USB4C02475
Integration Time (usec): 100000 (USB4C02475)
Spectra Averaged: 1 (USB4C02475)
Boxcar Smoothing: 0 (USB4C02475)
Correct for Electrical Dark: No (USB4C02475)
Strobe/Lamp Enabled: No (USB4C02475)
Correct for Detector Non-linearity: No (USB4C02475)
Correct for Stray Light: No (USB4C02475)
Number of Pixels in Processed Spectrum: 3648
>>>>>Begin Processed Spectral Data<<<<<
344,91	123,077
345,13	123,077
345,35	123,077
345,57	0,000
345,79	483,333
346,00	670,000
346,22	-166,667
346,44	430,769
346,66	1250,000
346,87	350,000
347,09	-27,778
347,31	-1700,000
347,53	150,000
347,74	-261,538
347,96	114,286
348,18	2466,667
348,40	-178,571
348,61	128,571
348,83	204,878
349,05	126,786
349,27	463,158
349,48	101,923
349,70	288,235
349,92	114,634
350,14	411,111
350,35	53,659
350,57	162,857
350,79	152,941
351,01	607,692
351,22	400,000
351,44	-216,667
351,66	484,615
351,87	153,846
352,09	242,424
352,31	375,000
352,53	204,444
352,74	300,000
352,96	-27,907
353,18	114,815
353,40	145,652
353,61	196,667
353,83	766,667
354,05	166,667
354,26	235,714
354,48	-975,000
354,70	92,683
354,92	100,000
355,13	161,765
355,35	0,000
355,57	116,667
355,78	11,765
356,00	202,941
356,22	800,000
356,44	-253,846
356,65	160,606
356,87	214,286
357,09	120,000
357,30	111,111
357,52	242,857
357,74	-2600,000
357,95	480,000
358,17	966,667
358,39	158,824
358,60	800,000
358,82	347,059
359,04	-62,500
359,26	151,562
359,47	147,826
359,69	-59,459
359,91	142,308
360,12	330,769
360,34	101,942
360,56	196,552
360,77	857,143
360,99	15,385
361,21	283,333
361,42	150,000
361,64	246,154
361,86	152,083
362,07	123,077
362,29	60,294
362,51	292,308
362,72	37,838
362,94	90,476
363,16	340,000
363,37	-12,903
363,59	258,621
363,81	-72,222
364,02	62,353
364,24	226,087
364,46	210,811
364,67	175,556
364,89	155,000
365,11	1300,000
365,32	103,614
365,54	221,429
365,76	132,759
365,97	92,857
366,19	1050,000
366,41	238,462
366,62	184,211
366,84	244,737
367,05	123,077
367,27	-22,222
367,49	309,756
367,70	837,500
367,92	112,903
368,14	2950,000
368,35	122,535
368,57	192,308
368,79	105,882
369,00	0,000
369,22	333,333
369,43	131,818
369,65	188,060
369,87	91,549
370,08	571,429
370,30	258,824
370,51	105,556
370,73	192,308
370,95	285,714
371,16	783,333
371,38	129,545
371,60	300,000
371,81	213,514
372,03	352,632
372,24	572,727
372,46	80,488
372,68	150,000
372,89	122,857
373,11	142,857
373,32	120,000
373,54	122,000
373,76	70,213
373,97	75,269
374,19	170,270
374,40	150,000
374,62	233,333
374,84	152,000
375,05	164,865
375,27	135,849
375,48	32,558
375,70	77,273
375,92	354,167
376,13	108,889
376,35	2133,333
376,56	140,000
376,78	83,333
376,99	106,494
377,21	-5300,000
377,43	-16,667
377,64	200,000
377,86	215,217
378,07	106,667
378,29	-87,097
378,51	223,077
378,72	142,222
378,94	58,824
379,15	217,143
379,37	158,929
379,58	133,929
379,80	57,692
380,01	412,500
380,23	189,474
380,45	103,846
380,66	488,889
380,88	-1950,000
381,09	138,571
381,31	71,014
381,52	158,333
381,74	98,507
381,95	178,049
382,17	156,667
382,39	213,636
382,60	392,308
382,82	254,286
383,03	153,846
383,25	114,103
383,46	182,927
383,68	82,143
383,89	240,000
384,11	77,273
384,32	-600,000
384,54	137,778
384,76	5500,000
384,97	60,494
385,19	89,583
385,40	145,833
385,62	283,333
385,83	159,459
386,05	79,070
386,26	59,459
386,48	124,000
386,69	116,981
386,91	170,588
387,12	179,167
387,34	152,941
387,55	134,091
387,77	119,048
387,98	-385,714
388,20	151,613
388,41	264,103
388,63	165,116
388,84	127,692
389,06	174,359
389,27	50,000
389,49	168,750
389,70	69,048
389,92	93,750
390,13	-186,957
390,35	138,000
390,56	113,636
390,78	212,903
390,99	1900,000
391,21	217,857
391,42	150,820
391,64	-44,444
391,85	51,667
392,07	14,000
392,28	51,250
392,50	70,175
392,71	203,704
392,93	194,595
393,14	-268,421
393,36	356,250
393,57	105,882
393,79	113,636
394,00	90,909
394,22	47,727
394,43	140,000
394,65	1225,000
394,86	140,909
395,08	84,932
395,29	195,349
395,50	300,000
395,72	155,556
395,93	120,833
396,15	60,563
396,36	126,415
396,58	159,259
396,79	76,364
397,01	61,446
397,22	422,222
397,44	-1300,000
397,65	106,579
397,87	115,385
398,08	32,000
398,29	306,250
398,51	370,833
398,72	85,000
398,94	97,297
399,15	108,163
399,37	112,821
399,58	283,871
399,80	81,250
400,01	91,304
400,22	181,633
400,44	126,667
400,65	500,000
400,87	119,672
401,08	48,684
401,30	63,000
401,51	68,182
401,72	151,163
401,94	101,613
402,15	61,017
402,37	118,182
402,58	106,667
402,80	73,214
403,01	131,915
403,22	81,667
403,44	77,500
403,65	-490,909
403,87	148,718
404,08	32,308
404,30	3,448
404,51	23,214
404,72	93,902
404,94	121,429
405,15	69,565
405,37	76,389
405,58	81,818
405,79	75,949
406,01	54,206
406,22	104,878
406,44	73,469
406,65	110,959
406,86	-6,061
407,08	108,333
407,29	71,910
407,51	80,612
407,72	161,111
407,93	80,537
408,15	9,459
408,36	48,148
408,58	67,480
408,79	97,849
409,00	64,773
409,22	64,835
409,43	32,584
409,64	30,702
409,86	44,681
410,07	54,630
410,29	53,933
410,50	-0,685
410,71	47,674
410,93	54,118
411,14	44,531
411,35	62,069
411,57	28,155
411,78	27,488
412,00	41,243
412,21	0,578
412,42	38,235
412,64	26,852
412,85	25,389
413,06	35,610
413,28	32,000
413,49	10,227
413,70	45,126
413,92	17,978
414,13	18,919
414,34	8,219
414,56	25,484
414,77	22,727
414,98	21,791
415,20	38,817
415,41	11,285
415,63	11,585
415,84	22,393
416,05	18,689
416,27	15,217
416,48	9,750
416,69	13,768
416,91	24,593
417,12	10,526
417,33	8,076
417,55	4,405
417,76	12,146
417,97	12,127
418,19	21,080
418,40	12,341
418,61	11,321
418,83	9,498
419,04	11,057
419,25	7,680
419,46	11,792
419,68	12,411
419,89	8,160
420,10	6,533
420,32	7,605
420,53	6,023
420,74	9,552
420,96	8,133
421,17	5,330
421,38	6,915
421,60	4,478
421,81	3,226
422,02	4,848
422,23	9,798
422,45	6,649
422,66	1,356
422,87	7,183
423,09	8,022
423,30	1,951
423,51	3,553
423,73	3,574
423,94	5,564
424,15	1,578
424,36	4,462
424,58	7,573
424,79	3,895
425,00	3,792
425,22	6,158
425,43	3,554
425,64	5,326
425,85	7,781
426,07	2,621
426,28	4,941
426,49	3,954
426,71	3,291
426,92	5,848
427,13	3,636
427,34	4,889
427,56	4,527
427,77	4,047
427,98	1,957
428,19	1,205
428,41	3,014
428,62	2,216
428,83	2,197
429,04	3,001
429,26	2,076
429,47	3,278
429,68	0,907
429,89	0,970
430,11	2,926
430,32	2,165
430,53	1,437
430,74	2,248
430,96	1,719
431,17	1,131
431,38	1,504
431,59	3,394
431,81	1,646
432,02	1,833
432,23	1,485
432,44	1,861
432,66	1,624
432,87	1,778
433,08	1,943
433,29	1,163
433,51	2,171
433,72	1,178
433,93	1,433
434,14	1,520
434,35	1,618
434,57	0,213
434,78	1,595
434,99	1,650
435,20	1,533
435,42	1,428
435,63	1,440
435,84	1,407
436,05	0,520
436,26	1,659
436,48	1,126
436,69	1,152
436,90	0,654
437,11	1,485
437,32	1,094
437,54	1,267
437,75	0,756
437,96	1,042
438,17	1,825
438,38	1,177
438,60	1,243
438,81	1,698
439,02	1,401
439,23	0,769
439,44	1,277
439,66	1,196
439,87	1,032
440,08	1,474
440,29	1,085
440,50	1,449
440,72	1,488
440,93	0,668
441,14	1,334
441,35	1,188
441,56	1,106
441,77	1,591
441,99	1,599
442,20	0,852
442,41	1,222
442,62	1,179
442,83	1,043
443,04	1,303
443,26	1,229
443,47	1,491
443,68	1,293
443,89	1,564
444,10	1,044
444,31	1,295
444,53	1,403
444,74	1,339
444,95	1,182
445,16	1,306
445,37	1,226
445,58	1,438
445,80	1,286
446,01	1,469
446,22	1,263
446,43	1,311
446,64	1,499
446,85	1,884
447,06	2,384
447,28	2,868
447,49	4,297
447,70	6,324
447,91	9,087
448,12	12,251
448,33	16,665
448,54	22,175
448,76	27,633
448,97	33,418
449,18	37,150
449,39	41,421
449,60	44,909
449,81	49,309
450,02	53,141
450,23	59,294
450,45	68,168
450,66	75,276
450,87	83,273
451,08	89,159
451,29	93,881
451,50	98,150
451,71	97,260
451,92	98,794
452,13	99,020
452,35	98,654
452,56	97,898
452,77	100,078
452,98	100,348
453,19	100,040
453,40	100,228
453,61	100,874
453,82	99,935
454,03	101,327
454,25	99,764
454,46	100,274
454,67	101,861
454,88	102,681
455,09	100,527
455,30	100,252
455,51	100,713
455,72	101,712
455,93	101,342
456,14	101,018
456,35	100,290
456,56	100,447
456,78	100,044
456,99	100,538
457,20	99,508
457,41	100,338
457,62	98,933
457,83	97,744
458,04	99,678
458,25	98,057
458,46	99,955
458,67	98,769
458,88	99,505
459,09	98,908
459,30	98,068
459,51	99,501
459,73	97,997
459,94	98,841
460,15	97,417
460,36	99,361
460,57	98,175
460,78	98,296
460,99	98,238
461,20	97,466
461,41	97,687
461,62	98,599
461,83	97,697
462,04	97,794
462,25	97,067
462,46	96,911
462,67	97,123
462,88	96,788
463,09	96,856
463,30	95,694
463,51	95,941
463,72	96,048
463,93	97,747
464,15	97,073
464,36	97,213
464,57	97,528
464,78	97,666
464,99	98,088
465,20	97,608
465,41	98,415
465,62	98,206
465,83	98,634
466,04	97,818
466,25	99,399
466,46	98,465
466,67	98,552
466,88	98,625
467,09	98,898
467,30	99,106
467,51	99,851
467,72	99,087
467,93	99,412
468,14	99,764
468,35	99,298
468,56	99,888
468,77	99,381
468,98	100,097
469,19	101,048
469,40	100,979
469,61	101,056
469,82	100,666
470,03	99,973
470,24	102,160
470,45	101,485
470,66	101,278
470,87	101,598
471,08	101,810
471,29	100,774
471,50	101,296
471,71	99,662
471,92	99,589
472,13	100,451
472,34	100,792
472,55	100,165
472,76	99,596
472,97	100,647
473,18	100,679
473,39	99,003
473,60	99,975
473,81	99,617
474,01	98,492
474,22	99,339
474,43	98,485
474,64	99,749
474,85	99,611
475,06	98,399
475,27	98,439
475,48	98,476
475,69	97,840
475,90	98,296
476,11	99,185
476,32	100,263
476,53	99,872
476,74	99,606
476,95	99,817
477,16	99,942
477,37	99,604
477,58	100,386
477,79	100,178
478,00	100,502
478,21	99,923
478,41	100,005
478,62	102,120
478,83	100,643
479,04	99,433
479,25	100,078
479,46	99,623
479,67	98,845
479,88	99,032
480,09	99,534
480,30	98,948
480,51	99,453
480,72	99,557
480,93	100,231
481,14	100,180
481,34	101,361
481,55	100,625
481,76	100,377
481,97	99,925
482,18	101,317
482,39	100,092
482,60	100,858
482,81	101,427
483,02	100,718
483,23	99,913
483,44	100,756
483,65	100,301
483,85	99,996
484,06	99,630
484,27	99,404
484,48	100,231
484,69	100,740
484,90	99,957
485,11	100,509
485,32	100,176
485,53	100,154
485,73	100,157
485,94	100,480
486,15	100,068
486,36	99,829
486,57	99,162
486,78	99,151
486,99	99,510
487,20	100,837
487,41	100,402
487,61	99,561
487,82	99,350
488,03	100,609
488,24	100,564
488,45	100,505
488,66	100,219
488,87	100,843
489,08	101,059
489,28	100,338
489,49	99,269
489,70	99,924
489,91	99,414
490,12	100,794
490,33	100,324
490,54	99,800
490,74	99,847
490,95	99,351
491,16	99,664
491,37	100,055
491,58	98,729
491,79	97,923
492,00	99,175
492,20	99,603
492,41	99,235
492,62	99,160
492,83	100,345
493,04	98,534
493,25	98,819
493,45	99,393
493,66	96,922
493,87	98,438
494,08	98,543
494,29	97,672
494,50	98,374
494,70	97,562
494,91	97,745
495,12	98,106
495,33	97,957
495,54	96,670
495,75	98,071
495,95	97,336
496,16	96,090
496,37	96,163
496,58	94,015
496,79	92,110
496,99	90,004
497,20	86,048
497,41	80,026
497,62	73,890
497,83	66,079
498,04	57,391
498,24	48,607
498,45	39,198
498,66	30,442
498,87	22,783
499,08	16,619
499,28	11,615
499,49	7,880
499,70	5,564
499,91	3,566
500,12	2,545
500,32	1,851
500,53	1,316
500,74	1,129
500,95	0,732
501,15	0,798
501,36	0,773
501,57	0,566
501,78	0,686
501,99	0,613
502,19	0,633
502,40	0,575
502,61	0,347
502,82	0,679
503,02	0,497
503,23	0,622
503,44	0,607
503,65	0,660
503,86	0,471
504,06	0,474
504,27	0,875
504,48	0,522
504,69	0,627
504,89	0,462
505,10	0,622
505,31	0,413
505,52	0,643
505,72	0,505
505,93	0,758
506,14	0,423
506,35	0,570
506,55	0,302
506,76	0,593
506,97	0,596
507,18	0,461
507,38	0,435
507,59	0,510
507,80	0,506
508,01	0,442
508,21	0,605
508,42	0,560
508,63	0,525
508,84	0,645
509,04	0,400
509,25	0,462
509,46	0,380
509,67	0,431
509,87	0,389
510,08	0,579
510,29	0,361
510,49	0,381
510,70	0,661
510,91	0,453
511,12	0,722
511,32	0,489
511,53	0,632
511,74	0,545
511,94	0,487
512,15	0,465
512,36	0,455
512,57	0,587
512,77	0,442
512,98	0,456
513,19	0,425
513,39	0,648
513,60	0,469
513,81	0,534
514,01	0,522
514,22	0,497
514,43	0,508
514,64	0,493
514,84	0,703
515,05	0,463
515,26	0,568
515,46	0,629
515,67	0,553
515,88	0,435
516,08	0,714
516,29	0,351
516,50	0,381
516,70	0,504
516,91	0,843
517,12	0,634
517,32	0,575
517,53	0,519
517,74	0,530
517,95	0,664
518,15	0,455
518,36	0,556
518,57	0,600
518,77	0,450
518,98	0,666
519,19	0,562
519,39	0,653
519,60	0,433
519,80	0,575
520,01	0,459
520,22	0,561
520,42	0,671
520,63	0,549
520,84	0,801
521,04	0,651
521,25	0,726
521,46	0,460
521,66	0,595
521,87	0,756
522,08	0,699
522,28	0,500
522,49	0,555
522,70	0,589
522,90	0,684
523,11	0,527
523,31	0,608
523,52	0,538
523,73	0,803
523,93	0,881
524,14	0,636
524,35	0,760
524,55	0,523
524,76	0,547
524,97	0,703
525,17	0,744
525,38	0,607
525,58	0,602
525,79	0,801
526,00	0,644
526,20	0,872
526,41	0,608
526,61	0,593
526,82	0,737
527,03	0,793
527,23	0,605
527,44	0,682
527,64	0,696
527,85	0,780
528,06	0,715
528,26	0,756
528,47	0,438
528,68	0,707
528,88	0,851
529,09	0,489
529,29	0,596
529,50	0,850
529,70	0,871
529,91	0,595
530,12	0,696
530,32	0,630
530,53	0,654
530,73	0,698
530,94	0,738
531,15	0,636
531,35	0,709
531,56	0,817
531,76	0,799
531,97	0,766
532,17	0,483
532,38	0,801
532,59	0,679
532,79	0,681
533,00	0,819
533,20	0,707
533,41	0,778
533,61	0,693
533,82	0,849
534,03	0,934
534,23	0,936
534,44	0,706
534,64	0,736
534,85	0,703
535,05	0,820
535,26	0,543
535,46	0,697
535,67	0,782
535,88	0,765
536,08	0,795
536,29	0,790
536,49	0,791
536,70	0,739
536,90	0,790
537,11	0,819
537,31	0,855
537,52	0,784
537,72	1,053
537,93	0,758
538,13	0,829
538,34	0,972
538,55	0,822
538,75	0,696
538,96	0,945
539,16	0,988
539,37	0,797
539,57	0,887
539,78	0,931
539,98	0,675
540,19	0,997
540,39	0,753
540,60	0,772
540,80	0,957
541,01	0,911
541,21	0,888
541,42	0,801
541,62	0,881
541,83	0,899
542,03	0,712
542,24	1,030
542,44	0,624
542,65	0,724
542,85	0,744
543,06	0,948
543,26	0,831
543,47	0,710
543,67	0,944
543,88	0,734
544,08	1,014
544,29	1,018
544,49	0,835
544,70	0,809
544,90	0,957
545,11	1,152
545,31	1,023
545,52	0,961
545,72	1,114
545,93	1,021
546,13	1,175
546,34	1,221
546,54	1,090
546,75	1,206
546,95	1,053
547,15	1,301
547,36	1,545
547,56	1,762
547,77	2,004
547,97	2,713
548,18	3,590
548,38	4,438
548,59	6,192
548,79	7,830
549,00	10,839
549,20	14,153
549,41	17,465
549,61	22,363
549,81	26,690
550,02	31,873
550,22	37,024
550,43	41,126
550,63	45,823
550,84	51,748
551,04	56,224
551,25	62,683
551,45	68,949
551,65	76,160
551,86	82,695
552,06	87,849
552,27	91,916
552,47	94,336
552,68	96,253
552,88	96,948
553,08	98,074
553,29	98,354
553,49	98,035
553,70	97,648
553,90	98,485
554,11	100,121
554,31	99,200
554,51	100,500
554,72	100,863
554,92	99,600
555,13	100,454
555,33	101,021
555,53	101,005
555,74	101,185
555,94	101,219
556,15	101,236
556,35	100,760
556,56	101,347
556,76	101,819
556,96	101,954
557,17	100,822
557,37	100,931
557,58	101,748
557,78	101,329
557,98	101,151
558,19	101,409
558,39	99,404
558,59	101,110
558,80	99,913
559,00	101,397
559,21	100,641
559,41	100,109
559,61	100,809
559,82	101,208
560,02	100,810
560,23	100,412
560,43	100,161
560,63	100,551
560,84	100,249
561,04	100,544
561,24	100,542
561,45	101,282
561,65	100,646
561,85	101,325
562,06	101,109
562,26	100,730
562,47	101,170
562,67	100,674
562,87	101,335
563,08	101,328
563,28	101,240
563,48	101,091
563,69	100,194
563,89	99,929
564,09	100,777
564,30	100,468
564,50	100,829
564,70	100,245
564,91	100,231
565,11	100,621
565,31	101,163
565,52	99,150
565,72	101,195
565,92	100,352
566,13	99,974
566,33	98,903
566,53	99,759
566,74	100,320
566,94	100,179
567,14	99,788
567,35	98,794
567,55	99,907
567,75	99,133
567,96	99,571
568,16	99,922
568,36	100,070
568,57	100,720
568,77	100,720
568,97	100,171
569,18	100,089
569,38	99,517
569,58	99,819
569,79	100,472
569,99	100,037
570,19	100,383
570,39	99,413
570,60	99,599
570,80	99,450
571,00	98,892
571,21	100,059
571,41	99,068
571,61	99,456
571,82	99,641
572,02	99,533
572,22	100,063
572,42	100,908
572,63	99,806
572,83	101,670
573,03	100,764
573,24	101,461
573,44	100,891
573,64	101,277
573,84	100,209
574,05	100,545
574,25	100,968
574,45	101,038
574,66	100,328
574,86	101,826
575,06	101,306
575,26	101,137
575,47	100,697
575,67	100,652
575,87	100,687
576,07	99,855
576,28	101,930
576,48	100,604
576,68	101,212
576,88	100,471
577,09	99,683
577,29	100,691
577,49	100,903
577,69	100,545
577,90	101,846
578,10	100,615
578,30	100,807
578,50	99,689
578,71	100,243
578,91	99,913
579,11	99,946
579,31	100,694
579,52	100,127
579,72	99,844
579,92	99,138
580,12	100,565
580,33	101,257
580,53	100,577
580,73	100,084
580,93	99,326
581,13	100,098
581,34	101,752
581,54	100,432
581,74	100,868
581,94	100,323
582,15	100,679
582,35	101,160
582,55	100,872
582,75	101,677
582,95	101,043
583,16	101,242
583,36	100,853
583,56	100,682
583,76	101,029
583,96	101,907
584,17	100,811
584,37	102,017
584,57	101,300
584,77	100,358
584,97	101,087
585,18	101,147
585,38	100,431
585,58	100,716
585,78	100,439
585,98	100,494
586,19	99,898
586,39	99,715
586,59	100,882
586,79	100,870
586,99	100,113
587,20	99,960
587,40	100,091
587,60	100,973
587,80	99,458
588,00	100,280
588,20	100,630
588,41	99,807
588,61	99,717
588,81	100,279
589,01	100,791
589,21	99,914
589,41	100,303
589,62	100,426
589,82	99,979
590,02	99,302
590,22	99,152
590,42	98,636
590,62	99,261
590,83	100,159
591,03	99,466
591,23	99,074
591,43	98,951
591,63	98,905
591,83	97,677
592,03	98,491
592,24	98,705
592,44	97,982
592,64	98,578
592,84	99,621
593,04	98,493
593,24	98,571
593,44	97,636
593,65	98,460
593,85	98,889
594,05	98,023
594,25	99,164
594,45	98,441
594,65	97,493
594,85	97,599
595,06	98,793
595,26	98,345
595,46	98,570
595,66	97,974
595,86	99,118
596,06	98,670
596,26	98,305
596,46	99,079
596,66	99,544
596,87	99,676
597,07	98,481
597,27	98,863
597,47	99,663
597,67	98,915
597,87	99,044
598,07	99,032
598,27	98,257
598,47	99,225
598,67	98,719
598,88	99,027
599,08	99,326
599,28	99,397
599,48	98,574
599,68	99,095
599,88	99,316
600,08	98,519
600,28	100,480
600,48	99,993
600,68	99,468
600,88	99,907
601,09	101,104
601,29	99,743
601,49	100,575
601,69	100,493
601,89	100,011
602,09	99,557
602,29	99,337
602,49	99,099
602,69	100,216
602,89	100,154
603,09	99,182
603,29	98,399
603,49	98,926
603,69	98,731
603,90	99,400
604,10	98,707
604,30	98,488
604,50	98,403
604,70	98,343
604,90	97,214
605,10	96,414
605,30	95,905
605,50	94,425
605,70	93,911
605,90	90,286
606,10	85,790
606,30	82,978
606,50	76,496
606,70	69,689
606,90	62,761
607,10	54,797
607,30	46,747
607,50	38,337
607,70	30,861
607,90	23,621
608,10	17,794
608,30	12,947
608,50	9,490
608,70	6,996
608,90	4,883
609,11	3,969
609,31	2,597
609,51	2,316
609,71	1,932
609,91	1,319
610,11	1,130
610,31	0,997
610,51	1,009
610,71	0,998
610,91	0,559
611,11	0,888
611,31	0,655
611,51	0,543
611,71	0,684
611,91	0,572
612,11	0,540
612,31	0,699
612,51	0,504
612,71	0,553
612,91	0,480
613,11	0,704
613,31	0,512
613,51	0,668
613,71	0,565
613,91	0,567
614,11	0,649
614,31	0,774
614,50	0,532
614,70	0,608
614,90	0,789
615,10	0,569
615,30	0,456
615,50	0,543
615,70	0,653
615,90	0,479
616,10	0,481
616,30	0,608
616,50	0,449
616,70	0,402
616,90	0,845
617,10	0,520
617,30	0,512
617,50	0,703
617,70	0,442
617,90	0,631
618,10	0,599
618,30	0,640
618,50	0,594
618,70	0,733
618,90	0,454
619,10	0,616
619,30	0,591
619,49	0,794
619,69	0,486
619,89	0,325
620,09	0,446
620,29	0,240
620,49	0,563
620,69	0,447
620,89	0,541
621,09	0,426
621,29	0,334
621,49	0,555
621,69	0,542
621,89	0,505
622,09	0,386
622,29	0,433
622,48	0,379
622,68	0,709
622,88	0,423
623,08	0,522
623,28	0,562
623,48	0,359
623,68	0,451
623,88	0,452
624,08	0,409
624,28	0,428
624,48	0,625
624,67	0,457
624,87	0,408
625,07	0,552
625,27	0,465
625,47	0,425
625,67	0,364
625,87	0,444
626,07	0,545
626,27	0,441
626,47	0,450
626,66	0,234
626,86	0,489
627,06	0,435
627,26	0,319
627,46	0,230
627,66	0,647
627,86	0,260
628,06	0,364
628,25	0,321
628,45	0,422
628,65	0,386
628,85	0,453
629,05	0,295
629,25	0,460
629,45	0,374
629,65	0,299
629,84	0,354
630,04	0,340
630,24	0,449
630,44	0,430
630,64	0,549
630,84	0,403
631,04	0,393
631,23	0,359
631,43	0,474
631,63	0,332
631,83	0,471
632,03	0,448
632,23	0,464
632,42	0,320
632,62	0,401
632,82	0,498
633,02	0,312
633,22	0,359
633,42	0,505
633,62	0,501
633,81	0,465
634,01	0,490
634,21	0,422
634,41	0,774
634,61	0,613
634,80	0,569
635,00	0,465
635,20	0,527
635,40	0,617
635,60	0,305
635,80	0,586
635,99	0,764
636,19	0,592
636,39	0,465
636,59	0,587
636,79	0,719
636,98	0,426
637,18	0,758
637,38	0,518
637,58	0,528
637,78	0,346
637,97	0,555
638,17	0,605
638,37	0,346
638,57	0,296
638,77	0,617
638,96	0,411
639,16	0,503
639,36	0,659
639,56	0,849
639,76	0,419
639,95	0,487
640,15	0,807
640,35	0,690
640,55	0,667
640,75	0,595
640,94	0,771
641,14	0,764
641,34	0,602
641,54	0,545
641,73	1,109
641,93	0,731
642,13	0,732
642,33	0,543
642,53	0,761
642,72	0,698
642,92	0,917
643,12	0,586
643,32	0,622
643,51	0,533
643,71	0,537
643,91	0,656
644,11	0,822
644,30	0,550
644,50	0,879
644,70	0,664
644,90	0,466
645,09	0,704
645,29	0,833
645,49	0,675
645,69	1,078
645,88	0,801
646,08	1,003
646,28	1,003
646,48	1,073
646,67	0,974
646,87	1,616
647,07	1,606
647,26	1,559
647,46	1,934
647,66	2,844
647,86	3,057
648,05	3,640
648,25	5,480
648,45	5,890
648,65	7,197
648,84	9,486
649,04	11,770
649,24	14,613
649,43	17,814
649,63	21,094
649,83	24,259
650,03	29,276
650,22	32,568
650,42	36,888
650,62	40,220
650,81	46,724
651,01	51,183
651,21	55,294
651,40	59,821
651,60	66,576
651,80	72,506
652,00	78,003
652,19	81,359
652,39	86,787
652,59	89,636
652,78	91,310
652,98	92,506
653,18	94,845
653,37	95,246
653,57	94,769
653,77	95,963
653,96	94,148
654,16	95,565
654,36	97,421
654,55	97,862
654,75	97,153
654,95	96,934
655,14	96,813
655,34	97,982
655,54	97,799
655,73	96,970
655,93	99,469
656,13	98,513
656,32	98,244
656,52	100,138
656,72	99,948
656,91	98,797
657,11	97,447
657,31	97,845
657,50	98,876
657,70	98,065
657,90	98,500
658,09	99,278
658,29	96,267
658,49	97,669
658,68	96,763
658,88	99,213
659,07	97,611
659,27	98,124
659,47	98,375
659,66	98,091
659,86	98,291
660,06	97,676
660,25	97,594
660,45	97,505
660,64	97,959
660,84	97,800
661,04	96,436
661,23	97,432
661,43	96,399
661,63	96,529
661,82	97,235
662,02	96,170
662,21	97,664
662,41	97,115
662,61	96,378
662,80	99,539
663,00	97,062
663,19	98,677
663,39	98,139
663,59	98,967
663,78	96,552
663,98	96,655
664,17	97,349
664,37	96,608
664,57	97,202
664,76	98,224
664,96	94,958
665,15	98,528
665,35	97,447
665,55	95,774
665,74	97,375
665,94	97,053
666,13	97,635
666,33	96,492
666,53	96,367
666,72	95,046
666,92	97,822
667,11	96,738
667,31	95,946
667,50	94,528
667,70	95,812
667,90	95,416
668,09	96,487
668,29	96,380
668,48	94,532
668,68	96,695
668,87	96,022
669,07	97,465
669,26	96,380
669,46	95,529
669,66	96,098
669,85	96,160
670,05	95,613
670,24	97,410
670,44	96,405
670,63	94,814
670,83	95,184
671,02	94,888
671,22	94,268
671,42	94,477
671,61	95,523
671,81	95,775
672,00	93,419
672,20	95,925
672,39	93,529
672,59	95,456
672,78	96,129
672,98	94,339
673,17	94,251
673,37	95,094
673,56	94,729
673,76	94,499
673,95	95,575
674,15	94,605
674,34	96,095
674,54	95,702
674,73	95,357
674,93	94,786
675,13	94,188
675,32	94,462
675,52	95,302
675,71	94,718
675,91	94,310
676,10	94,338
676,30	95,446
676,49	94,042
676,69	93,622
676,88	94,254
677,08	93,025
677,27	93,715
677,47	92,672
677,66	93,738
677,86	93,702
678,05	94,524
678,24	93,373
678,44	95,276
678,63	93,898
678,83	95,022
679,02	94,615
679,22	93,824
679,41	94,675
679,61	93,979
679,80	95,435
680,00	94,045
680,19	94,076
680,39	92,870
680,58	94,175
680,78	93,258
680,97	94,304
681,17	93,430
681,36	94,346
681,56	93,290
681,75	93,057
681,94	93,197
682,14	93,178
682,33	91,742
682,53	92,668
682,72	92,620
682,92	92,598
683,11	92,973
683,31	92,806
683,50	93,712
683,69	92,985
683,89	93,397
684,08	93,619
684,28	93,690
684,47	93,393
684,67	93,434
684,86	93,150
685,06	92,510
685,25	93,084
685,44	94,109
685,64	93,406
685,83	94,606
686,03	94,094
686,22	94,222
686,42	93,286
686,61	93,683
686,80	94,557
687,00	93,995
687,19	93,742
687,39	94,824
687,58	93,596
687,77	94,175
687,97	94,688
688,16	94,237
688,36	94,243
688,55	94,786
688,74	93,996
688,94	94,693
689,13	93,637
689,33	93,681
689,52	94,443
689,71	94,144
689,91	94,162
690,10	94,902
690,30	94,580
690,49	94,655
690,68	94,518
690,88	94,893
691,07	94,370
691,27	95,311
691,46	94,790
691,65	95,103
691,85	94,923
692,04	95,811
692,23	95,873
692,43	95,514
692,62	95,826
692,82	96,436
693,01	95,643
693,20	95,183
693,40	97,444
693,59	97,115
693,78	97,302
693,98	97,182
694,17	98,165
694,36	97,814
694,56	99,808
694,75	100,839
694,94	101,017
695,14	101,049
695,33	101,517
695,53	101,736
695,72	100,833
695,91	101,682
696,11	102,294
696,30	103,494
696,49	103,719
696,69	103,694
696,88	104,685
697,07	105,454
697,27	106,467
697,46	106,711
697,65	106,424
697,85	107,684
698,04	107,007
698,23	109,014
698,43	106,713
698,62	108,764
698,81	110,457
699,01	109,205
699,20	109,169
699,39	109,443
699,58	108,218
699,78	108,509
699,97	110,560
700,16	110,076
700,36	111,491
700,55	110,378
700,74	110,771
700,94	110,439
701,13	108,869
701,32	110,095
701,52	108,131
701,71	109,125
701,90	108,003
702,09	110,204
702,29	109,528
702,48	107,967
702,67	109,356
702,87	109,397
703,06	106,714
703,25	106,636
703,44	106,887
703,64	107,534
703,83	103,237
704,02	105,681
704,22	104,916
704,41	99,930
704,60	99,422
704,79	98,133
704,99	97,643
705,18	95,417
705,37	93,215
705,56	90,161
705,76	85,509
705,95	82,560
706,14	78,682
706,33	74,555
706,53	65,974
706,72	63,718
706,91	56,928
707,11	47,460
707,30	42,030
707,49	36,600
707,68	29,811
707,88	25,250
708,07	20,283
708,26	16,909
708,45	11,711
708,64	9,727
708,84	8,815
709,03	7,147
709,22	5,440
709,41	4,961
709,61	2,869
709,80	4,026
709,99	3,993
710,18	1,842
710,38	4,660
710,57	3,377
710,76	3,568
710,95	2,297
711,14	2,454
711,34	2,404
711,53	0,404
711,72	3,333
711,91	2,707
712,11	2,760
712,30	2,447
712,49	2,330
712,68	1,893
712,87	4,064
713,07	3,775
713,26	2,945
713,45	2,267
713,64	2,539
713,83	3,822
714,03	2,062
714,22	1,743
714,41	2,055
714,60	1,870
714,79	2,704
714,99	3,442
715,18	1,881
715,37	2,615
715,56	4,286
715,75	4,920
715,94	2,747
716,14	1,395
716,33	2,486
716,52	1,612
716,71	3,415
716,90	-0,527
717,10	5,166
717,29	2,747
717,48	3,401
717,67	2,823
717,86	1,201
718,05	2,938
718,24	4,396
718,44	4,032
718,63	4,435
718,82	3,957
719,01	3,135
719,20	2,945
719,39	3,834
719,59	4,750
719,78	0,758
719,97	3,944
720,16	3,011
720,35	4,694
720,54	2,151
720,73	2,977
720,93	4,109
721,12	3,026
721,31	6,706
721,50	4,048
721,69	4,331
721,88	2,705
722,07	3,791
722,27	0,156
722,46	0,165
722,65	2,658
722,84	3,710
723,03	4,072
723,22	8,780
723,41	5,000
723,60	3,535
723,79	6,255
723,99	4,951
724,18	3,163
724,37	-0,355
724,56	4,446
724,75	-0,179
724,94	5,160
725,13	6,184
725,32	5,140
725,51	1,523
725,71	5,681
725,90	3,175
726,09	5,038
726,28	6,780
726,47	8,180
726,66	2,240
726,85	2,726
727,04	3,030
727,23	8,203
727,42	2,092
727,61	2,599
727,81	4,009
728,00	5,517
728,19	5,503
728,38	5,876
728,57	6,237
728,76	8,119
728,95	6,339
729,14	6,109
729,33	4,430
729,52	9,016
729,71	2,794
729,90	3,376
730,09	9,112
730,28	3,901
730,48	5,569
730,67	2,824
730,86	7,958
731,05	2,086
731,24	3,534
731,43	7,253
731,62	6,173
731,81	11,213
732,00	9,215
732,19	6,140
732,38	7,030
732,57	2,261
732,76	-0,299
732,95	7,831
733,14	12,211
733,33	0,139
733,52	2,846
733,71	3,059
733,90	4,011
734,09	5,741
734,28	9,318
734,47	2,059
734,66	4,208
734,85	5,642
735,04	9,326
735,23	5,817
735,42	6,241
735,61	13,435
735,81	2,983
736,00	6,767
736,19	4,798
736,38	8,120
736,57	11,709
736,76	1,915
736,95	2,552
737,14	6,595
737,33	3,583
737,52	2,888
737,71	12,652
737,90	4,952
738,09	-2,069
738,28	-2,273
738,47	-2,251
738,66	10,678
738,85	2,205
739,04	-2,899
739,22	2,573
739,41	7,155
739,60	6,284
739,79	8,348
739,98	9,416
740,17	9,291
740,36	7,008
740,55	6,557
740,74	3,532
740,93	7,926
741,12	8,651
741,31	0,204
741,50	11,498
741,69	2,218
741,88	7,881
742,07	10,777
742,26	2,103
742,45	5,435
742,64	8,776
742,83	9,011
743,02	4,016
743,21	5,869
743,40	9,195
743,59	9,823
743,78	-0,844
743,97	15,180
744,16	6,897
744,34	2,066
744,53	0,862
744,72	3,609
744,91	11,704
745,10	8,506
745,29	3,991
745,48	5,459
745,67	6,000
745,86	10,373
746,05	11,857
746,24	5,172
746,43	9,524
746,62	10,256
746,81	4,739
747,00	10,417
747,18	13,182
747,37	-1,364
747,56	18,993
747,75	7,417
747,94	7,828
748,13	2,103
748,32	13,659
748,51	15,457
748,70	12,470
748,89	7,527
749,08	6,404
749,26	1,600
749,45	3,513
749,64	-0,775
749,83	6,634
750,02	-2,145
750,21	2,604
750,40	3,694
750,59	8,777
750,78	10,843
750,96	9,227
751,15	9,651
751,34	14,988
751,53	20,556
751,72	15,550
751,91	13,386
752,10	11,831
752,29	-1,449
752,47	8,046
752,66	9,467
752,85	19,841
753,04	-2,432
753,23	11,821
753,42	1,746
753,61	10,942
753,80	-0,601
753,98	18,125
754,17	8,499
754,36	11,765
754,55	14,658
754,74	17,838
754,93	15,161
755,12	9,538
755,30	-2,214
755,49	18,182
755,68	15,616
755,87	5,802
756,06	11,239
756,25	0,000
756,43	13,669
756,62	6,498
756,81	3,529
757,00	23,077
757,19	14,110
757,38	7,166
757,56	16,554
757,75	-3,817
757,94	-0,431
758,13	18,471
758,32	11,742
758,51	21,935
758,69	12,179
758,88	15,082
759,07	21,708
759,26	9,864
759,45	18,571
759,63	-1,186
759,82	12,774
760,01	14,583
760,20	14,599
760,39	-3,448
760,57	1,288
760,76	8,779
760,95	-9,195
761,14	-4,615
761,33	11,719
761,51	24,074
761,70	48,966
761,89	20,930
762,08	15,517
762,27	3,846
762,45	-2,358
762,64	21,681
762,83	42,379
763,02	8,997
763,21	13,380
763,39	1,357
763,58	17,551
763,77	31,383
763,96	18,129
764,14	9,959
764,33	42,857
764,52	16,964
764,71	18,227
764,89	15,878
765,08	21,723
765,27	-0,495
765,46	14,545
765,65	20,812
765,83	14,286
766,02	29,304
766,21	11,814
766,40	28,837
766,58	6,335
766,77	-1,695
766,96	19,487
767,15	3,382
767,33	-1,923
767,52	-1,422
767,71	24,444
767,90	24,583
768,08	11,588
768,27	10,233
768,46	21,905
768,64	19,903
768,83	31,892
769,02	5,714
769,21	9,375
769,39	14,094
769,58	18,500
769,77	28,261
769,96	23,179
770,14	19,847
770,33	7,487
770,52	25,000
770,70	11,386
770,89	17,347
771,08	12,500
771,27	-1,031
771,45	28,902
771,64	30,263
771,83	32,258
772,01	0,000
772,20	32,828
772,39	19,745
772,57	33,333
772,76	4,138
772,95	13,706
773,14	16,279
773,32	26,374
773,51	20,000
773,70	20,530
773,88	30,653
774,07	48,954
774,26	20,732
774,44	26,633
774,63	18,354
774,82	27,108
775,00	24,454
775,19	22,414
775,38	18,667
775,56	31,098
775,75	7,784
775,94	44,030
776,12	0,000
776,31	9,581
776,50	7,273
776,68	19,753
776,87	0,699
777,06	17,808
777,24	2,459
777,43	13,821
777,62	5,926
777,80	34,239
777,99	31,847
778,18	37,580
778,36	19,084
778,55	25,185
778,74	-3,788
778,92	28,959
779,11	13,548
779,29	23,529
779,48	6,612
779,67	22,302
779,85	75,200
780,04	53,521
780,23	17,483
780,41	18,824
780,60	17,544
780,79	7,639
780,97	27,857
781,16	9,600
781,34	43,939
781,53	45,513
781,72	40,741
781,90	40,385
782,09	-26,230
782,28	60,976
782,46	8,943
782,65	-4,895
782,83	12,977
783,02	39,200
783,21	26,357
783,39	26,282
783,58	59,333
783,76	-1,351
783,95	42,384
784,14	3,158
784,32	-15,596
784,51	31,461
784,69	33,758
784,88	16,129
785,06	29,787
785,25	11,278
785,44	39,865
785,62	47,143
785,81	41,045
785,99	7,483
786,18	21,311
786,37	22,069
786,55	2,985
786,74	62,112
786,92	18,605
787,11	24,800
787,29	25,882
787,48	26,000
787,67	-10,204
787,85	-10,938
788,04	22,603
788,22	2,778
788,41	39,474
788,59	63,946
788,78	28,472
788,96	10,476
789,15	57,377
789,34	9,756
789,52	7,463
789,71	38,095
789,89	14,912
790,08	10,784
790,26	44,444
790,45	64,234
790,63	20,395
790,82	2,419
791,00	11,905
791,19	26,429
791,38	42,466
791,56	19,737
791,75	29,730
791,93	14,706
792,12	8,333
792,30	17,105
792,49	35,514
792,67	34,286
792,86	28,378
793,04	-6,349
793,23	62,500
793,41	32,258
793,60	48,101
793,78	48,322
793,97	27,586
794,15	41,830
794,34	60,204
794,52	16,279
794,71	46,296
794,89	30,000
795,08	50,000
795,26	4,000
795,45	35,106
795,63	23,270
795,82	27,731
796,00	3,077
796,19	61,039
796,37	24,576
796,56	9,259
796,74	28,906
796,93	5,882
797,11	34,167
797,30	61,832
797,48	46,154
797,67	69,355
797,85	26,087
798,04	15,315
798,22	25,180
798,41	87,288
798,59	1,429
798,77	14,530
798,96	23,387
799,14	28,704
799,33	56,637
799,51	11,881
799,70	21,978
799,88	53,211
800,07	30,935
800,25	64,122
800,44	17,822
800,62	44,604
800,80	27,273
800,99	-1,282
801,17	26,207
801,36	21,875
801,54	51,938
801,73	36,364
801,91	40,449
802,10	10,588
802,28	9,449
802,46	24,194
802,65	15,232
802,83	29,752
803,02	71,429
803,20	42,373
803,39	-10,092
803,57	39,437
803,75	15,714
803,94	52,703
804,12	17,391
804,31	43,269
804,49	34,194
804,67	-2,703
804,86	13,665
805,04	27,907
805,23	39,416
805,41	40,196
805,59	16,867
805,78	45,714
805,96	50,000
806,15	74,400
806,33	-16,788
806,51	55,769
806,70	5,814
806,88	1,818
807,07	48,361
807,25	0,870
807,43	12,222
807,62	46,094
807,80	34,146
807,99	30,216
808,17	25,694
808,35	24,528
808,54	31,844
808,72	30,128
808,90	45,528
809,09	16,058
809,27	12,621
809,46	11,215
809,64	23,121
809,82	22,069
810,01	43,548
810,19	-3,636
810,37	39,205
810,56	32,450
810,74	23,270
810,92	16,901
811,11	3,067
811,29	18,634
811,48	5,217
811,66	17,259
811,84	21,186
812,03	41,216
812,21	40,000
812,39	12,903
812,58	35,088
812,76	42,336
812,94	42,282
813,13	29,268
813,31	19,577
813,49	17,333
813,68	33,607
813,86	27,564
814,04	26,126
814,23	11,538
814,41	8,904
814,59	21,569
814,78	13,423
814,96	20,112
815,14	22,613
815,33	14,876
815,51	-11,024
815,69	7,634
815,87	8,387
816,06	46,766
816,24	26,797
816,42	18,452
816,61	13,580
816,79	33,526
816,97	27,564
817,16	0,595
817,34	36,471
817,52	20,561
817,70	31,088
817,89	15,311
818,07	38,667
818,25	9,494
818,44	3,743
818,62	10,891
818,80	7,692
818,98	8,718
819,17	-7,627
819,35	18,792
819,53	46,154
819,72	37,838
819,90	25,778
820,08	34,158
820,26	24,658
820,45	18,280
820,63	38,596
820,81	27,982
820,99	29,694
821,18	31,325
821,36	28,125
821,54	10,448
821,73	14,754
821,91	20,423
822,09	21,302
822,27	7,004
822,46	25,616
822,64	-1,579
822,82	15,736
823,00	7,330
823,19	30,476
823,37	42,735
823,55	19,409
823,73	10,674
823,91	6,952
824,10	19,271
824,28	9,091
824,46	-6,579
824,64	29,520
824,83	21,327
825,01	22,941
825,19	14,410
825,37	-4,902
825,56	35,115
825,74	29,870
825,92	24,514
826,10	16,740
826,28	13,653
826,47	24,125
826,65	31,655
826,83	10,965
827,01	4,331
827,19	13,953
827,38	13,483
827,56	26,000
827,74	5,213
827,92	27,805
828,10	9,375
828,29	7,011
828,47	5,839
828,65	6,641
828,83	10,549
829,01	-2,703
829,20	20,000
829,38	12,705
829,56	14,478
829,74	10,000
829,92	2,429
830,10	33,476
830,29	15,709
830,47	21,269
830,65	-1,255
830,83	18,027
831,01	2,691
831,20	-3,285
831,38	11,075
831,56	-2,807
831,74	17,966
831,92	6,227
832,10	31,013
832,29	7,067
832,47	13,830
832,65	13,443
832,83	0,633
833,01	9,668
833,19	10,511
833,37	17,021
833,56	12,798
833,74	8,197
833,92	14,189
834,10	16,265
834,28	0,348
834,46	7,803
834,64	25,600
834,83	5,666
835,01	14,621
835,19	11,348
835,37	11,017
835,55	13,881
835,73	4,520
835,91	18,879
836,09	10,197
836,28	8,232
836,46	5,015
836,64	12,073
836,82	14,560
837,00	-5,112
837,18	11,667
837,36	14,956
837,54	8,743
837,72	5,316
837,91	5,099
838,09	10,303
838,27	8,549
838,45	17,534
838,63	10,704
838,81	14,286
838,99	15,385
839,17	-3,106
839,35	14,447
839,53	0,000
839,72	21,703
839,90	8,889
840,08	5,412
840,26	7,874
840,44	6,107
840,62	-4,852
840,80	22,637
840,98	20,582
841,16	2,174
841,34	11,329
841,52	16,087
841,70	0,496
841,89	7,745
842,07	7,356
842,25	11,740
842,43	9,976
842,61	13,712
842,79	7,937
842,97	2,517
843,15	5,428
843,33	8,642
843,51	5,435
843,69	9,375
843,87	14,919
844,05	3,672
844,23	15,593
844,41	13,718
844,59	12,656
844,77	1,237
844,95	11,039
845,13	9,474
845,31	4,519
845,50	4,348
845,68	2,784
845,86	6,707
846,04	13,181
846,22	14,386
846,40	11,570
846,58	7,968
846,76	3,448
846,94	2,982
847,12	12,115
847,30	12,383
847,48	7,468
847,66	-0,823
847,84	10,954
848,02	1,838
848,20	19,209
848,38	4,821
848,56	-0,180
848,74	7,286
848,92	8,763
849,10	12,676
849,28	7,717
849,46	3,882
849,64	10,078
849,82	11,502
850,00	4,890
850,18	13,154
850,36	9,106
850,54	11,821
850,72	9,502
850,90	8,554
851,08	5,827
851,26	9,547
851,44	10,016
851,62	9,419
851,80	5,572
851,98	11,161
852,16	1,196
852,34	10,704
852,52	11,538
852,70	6,967
852,87	2,766
853,05	5,444
853,23	1,475
853,41	9,014
853,59	6,926
853,77	7,703
853,95	6,490
854,13	8,807
854,31	0,404
854,49	1,125
854,67	7,314
854,85	7,951
855,03	13,038
855,21	8,598
855,39	12,874
855,57	10,364
855,75	3,187
855,93	1,685
856,11	3,891
856,28	5,992
856,46	1,974
856,64	2,987
856,82	5,658
857,00	8,376
857,18	8,874
857,36	3,109
857,54	11,571
857,72	5,786
857,90	3,461
858,08	3,646
858,26	5,826
858,44	6,691
858,61	11,186
858,79	2,861
858,97	6,198
859,15	8,715
859,33	5,731
859,51	6,243
859,69	7,841
859,87	7,981
860,05	-2,706
860,23	3,946
860,40	2,623
860,58	1,332
860,76	2,283
860,94	0,427
861,12	7,756
861,30	8,142
861,48	5,998
861,66	4,593
861,84	3,463
862,01	2,002
862,19	7,114
862,37	-2,275
862,55	4,150
862,73	-0,207
862,91	10,561
863,09	4,209
863,27	3,096
863,44	7,049
863,62	6,033
863,80	5,171
863,98	5,249
864,16	3,232
864,34	4,092
864,52	8,613
864,69	5,723
864,87	4,388
865,05	6,204
865,23	6,869
865,41	-2,282
865,59	12,935
865,76	5,877
865,94	8,564
866,12	7,391
866,30	5,453
866,48	9,212
866,66	7,826
866,83	10,711
867,01	9,620
867,19	9,233
867,37	10,259
867,55	11,224
867,73	10,290
867,90	13,415
868,08	17,028
868,26	10,494
868,44	4,264
868,62	15,898
868,79	10,050
868,97	14,163
869,15	11,503
869,33	13,514
869,51	13,365
869,69	12,973
869,86	11,474
870,04	13,810
870,22	14,676
870,40	12,327
870,57	14,921
870,75	16,591
870,93	11,477
871,11	11,665
871,29	12,995
871,46	12,615
871,64	18,141
871,82	15,083
872,00	15,964
872,18	14,741
872,35	12,666
872,53	17,063
872,71	14,296
872,89	13,529
873,06	16,159
873,24	19,645
873,42	18,007
873,60	18,746
873,77	20,444
873,95	17,884
874,13	22,065
874,31	24,385
874,49	25,862
874,66	23,756
874,84	21,688
875,02	26,963
875,20	23,478
875,37	23,495
875,55	24,512
875,73	22,329
875,91	24,938
876,08	22,753
876,26	26,033
876,44	26,379
876,61	25,045
876,79	23,585
876,97	24,811
877,15	30,210
877,32	26,131
877,50	29,023
877,68	29,459
877,86	31,491
878,03	30,423
878,21	29,909
878,39	28,842
878,56	31,966
878,74	33,370
878,92	32,143
879,10	35,626
879,27	35,036
879,45	31,214
879,63	28,882
879,80	28,410
879,98	29,526
880,16	25,592
880,34	24,548
880,51	26,706
880,69	21,905
880,87	22,432
881,04	20,749
881,22	19,286
881,40	18,981
881,57	17,143
881,75	18,409
881,93	16,628
882,10	15,203
882,28	15,014
882,46	15,844
882,63	16,754
882,81	16,079
882,99	15,518
883,16	16,992
883,34	16,689
883,52	15,809
883,69	15,813
883,87	19,372
884,05	16,219
884,22	17,874
884,40	18,487
884,58	17,289
884,75	17,844
884,93	18,927
885,11	21,079
885,28	20,931
885,46	20,577
885,64	19,027
885,81	18,085
885,99	20,607
886,17	22,770
886,34	22,660
886,52	24,756
886,70	22,750
886,87	23,516
887,05	23,498
887,22	23,176
887,40	23,949
887,58	22,754
887,75	23,472
887,93	22,731
888,11	23,550
888,28	23,016
888,46	22,328
888,63	19,493
888,81	20,343
888,99	20,942
889,16	19,189
889,34	19,829
889,51	18,439
889,69	18,717
889,87	15,525
890,04	15,674
890,22	14,344
890,39	12,974
890,57	13,596
890,75	12,236
890,92	10,776
891,10	10,986
891,27	12,178
891,45	9,395
891,63	10,275
891,80	8,863
891,98	6,984
892,15	8,650
892,33	5,852
892,51	6,511
892,68	7,541
892,86	6,590
893,03	6,605
893,21	6,199
893,38	6,559
893,56	7,415
893,74	7,858
893,91	4,848
894,09	6,733
894,26	5,417
894,44	5,965
894,61	5,711
894,79	6,161
894,96	3,910
895,14	7,242
895,32	5,569
895,49	5,461
895,67	8,475
895,84	7,722
896,02	7,189
896,19	7,296
896,37	8,584
896,54	9,219
896,72	7,829
896,89	9,268
897,07	6,955
897,25	8,558
897,42	9,088
897,60	9,549
897,77	10,249
897,95	10,286
898,12	9,365
898,30	12,620
898,47	10,591
898,65	11,720
898,82	12,200
899,00	13,979
899,17	13,147
899,35	12,715
899,52	15,545
899,70	14,090
899,87	14,485
900,05	16,145
900,22	17,218
900,40	15,143
900,57	14,286
900,75	16,780
900,92	16,667
901,10	16,813
901,27	18,114
901,45	17,423
901,62	18,035
901,80	18,477
901,97	19,762
902,15	17,093
902,32	18,292
902,50	18,163
902,67	19,803
902,85	19,891
903,02	18,503
903,20	18,030
903,37	17,415
903,54	19,165
903,72	17,494
903,89	17,793
904,07	17,488
904,24	16,770
904,42	15,706
904,59	16,514
904,77	16,070
904,94	15,233
905,12	15,297
905,29	14,650
905,47	14,300
905,64	13,412
905,81	13,078
905,99	13,073
906,16	12,618
906,34	11,456
906,51	11,209
906,69	12,056
906,86	12,170
907,03	10,753
907,21	10,839
907,38	9,553
907,56	10,653
907,73	11,187
907,91	10,573
908,08	10,528
908,25	10,509
908,43	12,116
908,60	11,187
908,78	11,791
908,95	11,208
909,13	10,895
909,30	11,905
909,47	13,284
909,65	12,689
909,82	12,087
910,00	13,569
910,17	13,986
910,34	14,992
910,52	14,295
910,69	14,289
910,87	15,361
911,04	14,444
911,21	17,132
911,39	18,402
911,56	19,643
911,73	18,878
911,91	20,382
912,08	21,717
912,26	23,206
912,43	22,759
912,60	25,973
912,78	26,153
912,95	25,634
913,13	26,315
913,30	27,382
913,47	30,006
913,65	28,826
913,82	30,777
913,99	32,134
914,17	33,320
914,34	33,827
914,51	36,590
914,69	36,677
914,86	37,824
915,03	39,724
915,21	39,716
915,38	41,935
915,56	42,956
915,73	42,322
915,90	44,645
916,08	42,993
916,25	44,980
916,42	47,933
916,60	47,012
916,77	46,298
916,94	49,150
917,12	48,281
917,29	47,179
917,46	46,855
917,64	47,730
917,81	45,841
917,98	47,477
918,16	47,386
918,33	47,850
918,50	46,851
918,67	45,964
918,85	45,890
919,02	44,690
919,19	44,762
919,37	44,408
919,54	42,472
919,71	41,327
919,89	41,760
920,06	41,211
920,23	40,507
920,41	40,610
920,58	39,867
920,75	40,262
920,92	38,617
921,10	38,728
921,27	39,506
921,44	38,796
921,62	39,447
921,79	40,099
921,96	38,508
922,13	40,215
922,31	40,060
922,48	40,059
922,65	41,055
922,82	39,234
923,00	40,818
923,17	41,535
923,34	42,285
923,52	41,542
923,69	41,550
923,86	42,427
924,03	42,904
924,21	45,205
924,38	44,593
924,55	46,254
924,72	45,978
924,90	46,073
925,07	48,003
925,24	48,202
925,41	48,231
925,59	50,318
925,76	49,560
925,93	50,951
926,10	51,024
926,28	51,226
926,45	51,985
926,62	53,368
926,79	52,520
926,96	53,242
927,14	53,818
927,31	52,415
927,48	52,357
927,65	53,902
927,83	52,903
928,00	53,414
928,17	52,363
928,34	52,567
928,51	52,058
928,69	52,203
928,86	51,586
929,03	51,917
929,20	51,644
929,37	49,750
929,55	51,146
929,72	49,009
929,89	49,842
930,06	48,692
930,23	48,627
930,41	47,959
930,58	46,846
930,75	47,094
930,92	46,621
931,09	45,457
931,27	45,456
931,44	45,374
931,61	44,739
931,78	45,445
931,95	44,015
932,12	43,282
932,30	44,239
932,47	45,752
932,64	42,333
932,81	44,099
932,98	43,619
933,16	44,222
933,33	44,130
933,50	43,223
933,67	45,503
933,84	45,065
934,01	43,380
934,18	44,576
934,36	45,972
934,53	45,701
934,70	47,231
934,87	47,209
935,04	47,224
935,21	47,471
935,38	47,365
935,56	49,001
935,73	48,926
935,90	49,443
936,07	51,223
936,24	52,178
936,41	50,464
936,58	51,873
936,76	52,967
936,93	53,618
937,10	53,980
937,27	52,520
937,44	55,249
937,61	56,242
937,78	53,664
937,95	56,530
938,13	58,210
938,30	58,135
938,47	57,240
938,64	57,718
938,81	57,331
938,98	58,634
939,15	58,481
939,32	58,661
939,49	59,383
939,66	57,722
939,84	58,280
940,01	58,399
940,18	56,224
940,35	57,544
940,52	54,097
940,69	56,933
940,86	53,990
941,03	54,573
941,20	53,309
941,37	53,130
941,54	53,187
941,71	50,085
941,89	50,566
942,06	48,510
942,23	49,274
942,40	47,188
942,57	47,782
942,74	44,643
942,91	44,598
943,08	44,116
943,25	44,804
943,42	41,722
943,59	41,984
943,76	40,516
943,93	39,120
944,10	39,620
944,27	39,524
944,44	40,058
944,61	37,421
944,79	36,865
944,96	35,499
945,13	36,766
945,30	36,575
945,47	36,375
945,64	36,236
945,81	35,753
945,98	37,047
946,15	35,684
946,32	34,527
946,49	35,325
946,66	36,018
946,83	36,241
947,00	35,687
947,17	35,355
947,34	37,161
947,51	36,947
947,68	37,492
947,85	38,824
948,02	38,400
948,19	38,671
948,36	38,790
948,53	37,902
948,70	38,877
948,87	39,548
949,04	41,035
949,21	41,946
949,38	42,325
949,55	40,675
949,72	44,007
949,89	42,911
950,06	43,169
950,23	44,489
950,40	44,237
950,57	44,887
950,74	46,025
950,91	46,440
951,08	47,125
951,25	46,679
951,42	47,919
951,59	47,772
951,76	47,722
951,93	48,125
952,10	48,622
952,27	48,323
952,44	48,402
952,61	47,953
952,77	47,969
952,94	47,428
953,11	46,562
953,28	46,817
953,45	48,876
953,62	46,962
953,79	47,442
953,96	48,371
954,13	46,117
954,30	44,102
954,47	43,839
954,64	43,206
954,81	42,337
954,98	41,972
955,15	38,574
955,32	40,257
955,49	40,243
955,65	40,927
955,82	38,303
955,99	37,620
956,16	35,416
956,33	34,376
956,50	34,398
956,67	32,686
956,84	30,536
957,01	31,473
957,18	32,045
957,35	32,913
957,52	26,970
957,68	27,337
957,85	26,568
958,02	24,571
958,19	27,179
958,36	24,577
958,53	25,468
958,70	25,186
958,87	26,796
959,04	27,070
959,21	27,503
959,37	24,277
959,54	21,886
959,71	24,117
959,88	23,758
960,05	21,707
960,22	21,935
960,39	23,167
960,56	25,342
960,72	23,348
960,89	25,022
961,06	24,934
961,23	24,716
961,40	25,639
961,57	17,782
961,74	23,386
961,90	25,968
962,07	21,769
962,24	27,673
962,41	18,475
962,58	30,992
962,75	23,314
962,92	24,659
963,08	22,877
963,25	27,962
963,42	25,123
963,59	22,075
963,76	26,607
963,93	17,670
964,10	26,031
964,26	21,762
964,43	28,415
964,60	30,621
964,77	28,943
964,94	35,692
965,10	31,536
965,27	27,534
965,44	32,500
965,61	25,869
965,78	35,677
965,95	32,247
966,11	34,864
966,28	34,725
966,45	30,286
966,62	32,051
966,79	39,024
966,95	35,129
967,12	40,191
967,29	39,019
967,46	38,913
967,63	33,333
967,79	44,837
967,96	36,220
968,13	44,514
968,30	37,158
968,47	37,731
968,63	52,071
968,80	49,310
968,97	51,714
969,14	39,528
969,31	55,449
969,47	67,192
969,64	65,347
969,81	53,333
969,98	48,246
970,14	50,370
970,31	57,348
970,48	53,025
970,65	60,915
970,81	53,401
970,98	55,805
971,15	70,046
971,32	49,153
971,48	62,868
971,65	65,546
971,82	56,633
971,99	54,229
972,15	70,000
972,32	59,259
972,49	39,056
972,66	56,195
972,82	69,802
972,99	71,915
973,16	73,711
973,33	57,619
973,49	74,444
973,66	82,353
973,83	69,388
974,00	77,869
974,16	56,604
974,33	88,415
974,50	86,111
974,67	59,474
974,83	51,977
975,00	69,565
975,17	117,007
975,33	55,797
975,50	75,758
975,67	83,929
975,84	81,560
976,00	78,462
976,17	36,765
976,34	64,539
976,50	57,391
976,67	71,552
976,84	138,462
977,00	71,429
977,17	91,339
977,34	104,301
977,50	63,830
977,67	65,789
977,84	52,727
978,01	89,655
978,17	100,000
978,34	73,958
978,51	124,242
978,67	116,484
978,84	53,125
979,01	123,077
979,17	139,394
979,34	87,500
979,51	96,154
979,67	116,250
979,84	129,762
980,01	129,508
980,17	129,412
980,34	136,232
980,51	118,182
980,67	89,333
980,84	84,483
981,01	105,128
981,17	110,000
981,34	612,500
981,50	63,235
981,67	181,034
981,84	32,759
982,00	119,565
982,17	236,364
982,34	100,000
982,50	326,316
982,67	81,481
982,84	30,952
983,00	148,000
983,17	233,333
983,33	127,419
983,50	63,043
983,67	119,565
983,83	350,000
984,00	190,625
984,17	145,000
984,33	104,054
984,50	58,333
984,66	185,714
984,83	68,605
985,00	181,967
985,16	156,410
985,33	362,500
985,49	241,379
985,66	121,212
985,83	94,737
985,99	84,685
986,16	272,000
986,32	169,565
986,49	400,000
986,66	16,279
986,82	128,070
986,99	164,286
987,15	51,724
987,32	101,852
987,49	19,444
987,65	0,000
987,82	-158,824
987,98	341,176
988,15	203,571
988,31	88,000
988,48	-8,333
988,65	355,556
988,81	215,217
988,98	258,333
989,14	140,816
989,31	180,000
989,47	112,195
989,64	50,000
989,80	240,000
989,97	116,176
990,14	17,391
990,30	107,500
990,47	65,854
990,63	373,913
990,80	160,606
990,96	350,000
991,13	22,222
991,29	96,078
991,46	96,078
991,62	55,882
991,79	85,965
991,95	170,000
992,12	106,977
992,29	196,000
992,45	-238,462
992,62	-150,000
992,78	-55,556
992,95	116,667
993,11	146,667
993,28	64,198
993,44	456,522
993,61	2400,000
993,77	100,000
993,94	123,256
994,10	180,952
994,27	268,000
994,43	255,882
994,60	-15,152
994,76	236,842
994,93	268,182
995,09	-5,405
995,26	90,123
995,42	127,119
995,59	400,000
995,75	287,500
995,92	472,727
996,08	150,000
996,25	44,444
996,41	179,167
996,58	205,405
996,74	660,000
996,91	222,222
997,07	180,769
997,23	193,617
997,40	1733,333
997,56	140,000
997,73	0,000
997,89	137,037
998,06	-115,686
998,22	2400,000
998,39	486,957
998,55	-279,167
998,72	300,000
998,88	1933,333
999,05	69,231
999,21	195,652
999,37	-3600,000
999,54	-1700,000
999,70	276,923
999,87	-225,000
1000,03	131,250
1000,20	-600,000
1000,36	5800,000
1000,52	383,333
1000,69	122,727
1000,85	98,276
1001,02	92,308
1001,18	143,182
1001,35	-55,556
1001,51	-200,000
1001,67	-5,333
1001,84	800,000
1002,00	187,500
1002,17	40,909
1002,33	58,824
1002,50	-144,444
1002,66	3600,000
1002,82	231,429
1002,99	-134,615
1003,15	130,435
1003,32	161,290
1003,48	-600,000
1003,64	60,000
1003,81	-78,571
1003,97	336,364
1004,14	1233,333
1004,30	-757,143
1004,46	1025,000
1004,63	363,158
1004,79	-100,000
1004,95	-11,765
1005,12	-128,571
1005,28	282,759
1005,45	111,538
1005,61	-1000,000
1005,77	121,053
1005,94	190,323
1006,10	-4300,000
1006,26	92,857
1006,43	622,222
1006,59	-100,000
1006,76	-0,000
1006,92	240,000
1007,08	330,000
1007,25	-52,778
1007,41	-66,667
1007,57	-250,000
1007,74	-252,174
1007,90	-1100,000
1008,06	160,000
1008,23	177,778
1008,39	1150,000
1008,55	-42,857
1008,72	468,750
1008,88	104,000
1009,04	228,000
1009,21	-176,471
1009,37	-212,500
1009,53	-63,158
1009,70	-346,154
1009,86	115,909
1010,02	323,077
1010,19	0,000
1010,35	281,250
1010,51	600,000
1010,68	625,000
1010,84	-800,000
1011,00	100,000
1011,17	-740,000
1011,33	358,824
1011,49	168,750
1011,66	352,174
1011,82	-16,981
1011,98	-38,636
1012,14	159,091
1012,31	100,000
1012,47	1033,333
1012,63	500,000
1012,80	252,000
1012,96	100,000
1013,12	67,442
1013,29	171,053
1013,45	64,444
1013,61	11,111
1013,77	94,444
1013,94	90,625
1014,10	21,212
1014,26	3400,000
1014,43	-121,212
1014,59	-737,500
1014,75	850,000
1014,91	1300,000
1015,08	240,000
1015,24	-566,667
1015,40	-252,941
1015,56	233,333
1015,73	202,222
1015,89	85,714
1016,05	1020,000
1016,21	-355,556
1016,38	1080,000
1016,54	-138,462
1016,70	18,519
1016,86	103,030
1017,03	287,179
1017,19	169,565
1017,35	-238,462
1017,51	131,429
1017,68	254,545
1017,84	7100,000
1018,00	671,429
1018,16	52,083
1018,33	-771,429
1018,49	87,805
1018,65	67,647
1018,81	125,000
1018,97	-1125,000
1019,14	290,000
1019,30	215,625
1019,46	300,000
1019,62	200,000
1019,79	50,000
1019,95	160,417
1020,11	-200,000
1020,27	625,000
1020,43	-628,571
1020,60	-336,842
1020,76	-116,667
1020,92	435,714
1021,08	2600,000
1021,24	170,000
1021,41	-55,882
1021,57	354,545
1021,73	-1025,000
1021,89	-307,143
1022,05	575,000
1022,21	158,974
1022,38	-360,000
1022,54	1150,000
1022,70	-13,636
1022,86	1100,000
1023,02	-205,882
1023,19	-200,000
1023,35	151,613
1023,51	164,286
1023,67	204,167
1023,83	2066,667
1023,99	188,889
1024,16	138,095
1024,32	-92,000
1024,48	268,182
1024,64	433,333
1024,80	-8,333
1024,96	55,172
1025,12	-314,286
1025,29	192,857
1025,45	91,667
1025,61	-2233,333
1025,77	-103,226
1025,93	380,000
1026,09	185,366
1026,26	342,105
1026,42	-68,750
1026,58	-178,261
1026,74	200,000
1026,90	266,667
1027,06	-89,744
1027,22	4,348
1027,38	119,565
1027,55	566,667
1027,71	193,333
1027,87	-100,000
1028,03	-75,000
1028,19	-64,706
1028,35	-342,857
1028,51	136,000
1028,67	64,706
1028,83	131,111
1029,00	362,500
1029,16	-10,811
1029,32	96,429
1029,48	-157,143
1029,64	-200,000
1029,80	190,909
1029,96	700,000
1030,12	331,579
1030,28	-400,000
1030,44	1520,000
1030,61	268,182
1030,77	-1416,667
1030,93	-118,750
1031,09	200,000
1031,25	0,000
1031,41	150,000
1031,57	-950,000
1031,73	-1150,000
1031,89	-100,000
1032,05	-100,000
1032,21	9,091
1032,37	107,143
1032,53	44,828
1032,69	184,615
1032,86	-316,667
1033,02	-211,111
1033,18	416,667
1033,34	-1900,000
1033,50	218,750
1033,66	-208,000
1033,82	133,333
1033,98	350,000
1034,14	-257,143
1034,30	-260,000
1034,46	176,471
1034,62	117,949
1034,78	-239,130
1034,94	193,548
1035,10	-438,462
1035,26	555,556
1035,42	-3,333
1035,58	358,333
1035,74	121,622
1035,90	181,250
1036,06	84,314
1036,22	115,152
1036,38	-262,500
1036,54	-62,500
1036,70	174,194
1036,86	100,000
1037,02	-300,000
1037,18	-88,235
1037,34	188,889
1037,50	-740,000
1037,66	-600,000
1037,82	352,381
1037,98	162,500
1038,14	-1225,000
1038,30	227,586
1038,46	-285,714
1038,62	155,556
1038,78	-14,286
1038,94	340,000
1039,10	172,000
1039,26	-200,000
1039,42	219,565
1039,58	-1575,000
1039,74	-550,000
1039,90	-258,333
1040,06	7,692
>>>>>End Processed Spectral Data<<<<<
