SpectraSuite Data File
++++++++++++++++++++++++++++++++++++
Date: Tue Jan 31 19:11:15 EET 2017
User: optolab
Dark Spectrum Present: Yes
Reference Spectrum Present: Yes
Number of Sampled Component Spectra: 1
Spectrometers: USB4C02475
Integration Time (usec): 100000 (USB4C02475)
Spectra Averaged: 1 (USB4C02475)
Boxcar Smoothing: 0 (USB4C02475)
Correct for Electrical Dark: No (USB4C02475)
Strobe/Lamp Enabled: No (USB4C02475)
Correct for Detector Non-linearity: No (USB4C02475)
Correct for Stray Light: No (USB4C02475)
Number of Pixels in Processed Spectrum: 3648
>>>>>Begin Processed Spectral Data<<<<<
344,91	207,692
345,13	207,692
345,35	207,692
345,57	0,000
345,79	816,667
346,00	580,000
346,22	-152,778
346,44	61,538
346,66	1100,000
346,87	600,000
347,09	-30,556
347,31	-733,333
347,53	-333,333
347,74	-430,769
347,96	114,286
348,18	1166,667
348,40	50,000
348,61	97,143
348,83	134,146
349,05	105,357
349,27	357,895
349,48	140,385
349,70	235,294
349,92	219,512
350,14	511,111
350,35	126,829
350,57	71,429
350,79	335,294
351,01	284,615
351,22	125,000
351,44	-466,667
351,66	415,385
351,87	107,692
352,09	203,030
352,31	568,750
352,53	202,222
352,74	200,000
352,96	179,070
353,18	59,259
353,40	78,261
353,61	126,667
353,83	366,667
354,05	93,939
354,26	217,857
354,48	-1525,000
354,70	29,268
354,92	60,606
355,13	211,765
355,35	0,000
355,57	200,000
355,78	114,706
356,00	85,294
356,22	277,778
356,44	-446,154
356,65	168,182
356,87	228,571
357,09	246,667
357,30	142,857
357,52	148,214
357,74	-3150,000
357,95	1440,000
358,17	100,000
358,39	211,765
358,60	780,000
358,82	311,765
359,04	-143,750
359,26	92,187
359,47	100,000
359,69	-59,459
359,91	196,154
360,12	253,846
360,34	93,204
360,56	165,517
360,77	942,857
360,99	109,615
361,21	166,667
361,42	109,375
361,64	630,769
361,86	202,083
362,07	65,385
362,29	101,471
362,51	173,077
362,72	83,784
362,94	314,286
363,16	460,000
363,37	9,677
363,59	313,793
363,81	-338,889
364,02	24,706
364,24	391,304
364,46	178,378
364,67	240,000
364,89	575,000
365,11	3250,000
365,32	130,120
365,54	521,429
365,76	81,034
365,97	192,857
366,19	1325,000
366,41	307,692
366,62	192,105
366,84	307,895
367,05	104,615
367,27	-111,111
367,49	226,829
367,70	662,500
367,92	80,645
368,14	2600,000
368,35	102,817
368,57	102,564
368,79	105,882
369,00	0,000
369,22	541,667
369,43	163,636
369,65	95,522
369,87	45,070
370,08	871,429
370,30	317,647
370,51	170,370
370,73	94,231
370,95	242,857
371,16	1083,333
371,38	184,091
371,60	173,077
371,81	205,405
372,03	278,947
372,24	618,182
372,46	57,317
372,68	67,188
372,89	185,714
373,11	152,381
373,32	206,667
373,54	134,000
373,76	117,021
373,97	91,398
374,19	179,730
374,40	422,222
374,62	-566,667
374,84	356,000
375,05	208,108
375,27	120,755
375,48	141,860
375,70	54,545
375,92	116,667
376,13	64,444
376,35	2800,000
376,56	112,000
376,78	77,083
376,99	98,701
377,21	-4000,000
377,43	156,250
377,64	186,842
377,86	195,652
378,07	110,000
378,29	-90,323
378,51	225,641
378,72	126,667
378,94	95,588
379,15	294,286
379,37	151,786
379,58	176,786
379,80	123,077
380,01	550,000
380,23	205,263
380,45	115,385
380,66	261,111
380,88	-1850,000
381,09	102,857
381,31	108,696
381,52	241,667
381,74	119,403
381,95	200,000
382,17	110,000
382,39	331,818
382,60	515,385
382,82	320,000
383,03	175,000
383,25	107,692
383,46	192,683
383,68	107,143
383,89	480,000
384,11	172,727
384,32	-187,500
384,54	128,889
384,76	5100,000
384,97	64,198
385,19	81,250
385,40	135,417
385,62	433,333
385,83	148,649
386,05	155,814
386,26	105,405
386,48	212,000
386,69	62,264
386,91	305,882
387,12	300,000
387,34	82,353
387,55	143,182
387,77	138,095
387,98	-428,571
388,20	135,484
388,41	215,385
388,63	181,395
388,84	75,385
389,06	146,154
389,27	160,714
389,49	193,750
389,70	34,524
389,92	146,875
390,13	-178,261
390,35	144,000
390,56	103,030
390,78	135,484
390,99	2000,000
391,21	139,286
391,42	95,082
391,64	77,778
391,85	103,333
392,07	162,000
392,28	77,500
392,50	159,649
392,71	107,407
392,93	97,297
393,14	-105,263
393,36	287,500
393,57	149,020
393,79	112,121
394,00	105,455
394,22	70,455
394,43	157,500
394,65	1625,000
394,86	140,909
395,08	146,575
395,29	134,884
395,50	137,500
395,72	94,444
395,93	93,750
396,15	142,254
396,36	167,925
396,58	255,556
396,79	141,818
397,01	118,072
397,22	138,889
397,44	-560,000
397,65	44,737
397,87	141,026
398,08	104,000
398,29	218,750
398,51	87,500
398,72	50,000
398,94	118,919
399,15	146,939
399,37	50,000
399,58	290,323
399,80	-15,625
400,01	126,087
400,22	122,449
400,44	466,667
400,65	620,000
400,87	63,934
401,08	89,474
401,30	78,000
401,51	139,394
401,72	79,070
401,94	83,871
402,15	113,559
402,37	196,970
402,58	140,000
402,80	73,214
403,01	130,851
403,22	63,333
403,44	53,750
403,65	-154,545
403,87	94,872
404,08	7,692
404,30	0,000
404,51	98,214
404,72	73,171
404,94	141,429
405,15	102,899
405,37	54,167
405,58	72,727
405,79	53,165
406,01	77,570
406,22	4,878
406,44	84,694
406,65	39,726
406,86	40,404
407,08	105,556
407,29	53,933
407,51	65,306
407,72	114,815
407,93	71,812
408,15	60,811
408,36	28,704
408,58	51,220
408,79	89,247
409,00	80,682
409,22	57,143
409,43	30,337
409,64	16,667
409,86	26,950
410,07	20,370
410,29	94,382
410,50	51,370
410,71	-10,465
410,93	58,824
411,14	40,625
411,35	72,414
411,57	43,204
411,78	18,009
412,00	54,802
412,21	17,341
412,42	26,471
412,64	8,796
412,85	18,653
413,06	22,439
413,28	21,714
413,49	34,091
413,70	50,542
413,92	15,730
414,13	24,710
414,34	10,046
414,56	22,581
414,77	19,697
414,98	22,090
415,20	22,879
415,41	17,868
415,63	9,451
415,84	11,043
416,05	21,117
416,27	14,010
416,48	12,000
416,69	11,594
416,91	20,528
417,12	15,103
417,33	14,727
417,55	6,167
417,76	15,385
417,97	13,121
418,19	14,286
418,40	6,715
418,61	19,554
418,83	12,545
419,04	10,244
419,25	12,418
419,46	6,604
419,68	13,267
419,89	5,638
420,10	4,899
420,32	6,717
420,53	5,646
420,74	13,090
420,96	7,904
421,17	4,867
421,38	9,769
421,60	5,224
421,81	6,667
422,02	3,838
422,23	9,030
422,45	3,368
422,66	5,932
422,87	6,699
423,09	4,595
423,30	2,927
423,51	5,149
423,73	4,106
423,94	4,335
424,15	1,709
424,36	2,975
424,58	4,272
424,79	4,565
425,00	5,134
425,22	6,610
425,43	2,998
425,64	3,043
425,85	7,233
426,07	2,077
426,28	6,654
426,49	3,182
426,71	3,154
426,92	2,765
427,13	3,767
427,34	4,606
427,56	3,222
427,77	4,903
427,98	1,487
428,19	1,497
428,41	2,469
428,62	1,671
428,83	2,231
429,04	1,901
429,26	3,066
429,47	3,341
429,68	1,451
429,89	2,159
430,11	3,891
430,32	2,446
430,53	1,796
430,74	2,303
430,96	1,094
431,17	1,311
431,38	1,775
431,59	2,936
431,81	1,391
432,02	2,039
432,23	2,174
432,44	2,878
432,66	2,035
432,87	1,530
433,08	2,123
433,29	0,930
433,51	1,402
433,72	0,475
433,93	1,523
434,14	0,760
434,35	2,130
434,57	1,146
434,78	1,970
434,99	1,190
435,20	1,058
435,42	1,767
435,63	1,526
435,84	1,545
436,05	0,759
436,26	1,605
436,48	1,663
436,69	1,140
436,90	1,210
437,11	1,869
437,32	0,714
437,54	0,889
437,75	1,067
437,96	0,875
438,17	1,974
438,38	1,802
438,60	1,243
438,81	1,254
439,02	1,202
439,23	1,322
439,44	1,487
439,66	1,429
439,87	1,068
440,08	1,362
440,29	1,232
440,50	1,565
440,72	1,065
440,93	1,033
441,14	1,365
441,35	1,401
441,56	1,279
441,77	1,697
441,99	1,394
442,20	1,260
442,41	1,286
442,62	1,457
442,83	1,355
443,04	1,991
443,26	2,175
443,47	2,747
443,68	3,430
443,89	4,678
444,10	5,992
444,31	8,480
444,53	10,550
444,74	14,042
444,95	17,499
445,16	21,840
445,37	25,340
445,58	29,696
445,80	32,990
446,01	36,239
446,22	39,731
446,43	42,821
446,64	43,764
446,85	45,260
447,06	47,278
447,28	48,899
447,49	49,428
447,70	51,181
447,91	55,020
448,12	58,153
448,33	64,171
448,54	71,304
448,76	78,548
448,97	84,706
449,18	89,771
449,39	93,320
449,60	94,540
449,81	96,283
450,02	95,747
450,23	96,215
450,45	97,284
450,66	98,016
450,87	97,047
451,08	97,963
451,29	99,296
451,50	101,706
451,71	99,994
451,92	99,600
452,13	100,583
452,35	99,689
452,56	99,435
452,77	99,215
452,98	101,334
453,19	101,224
453,40	100,598
453,61	99,852
453,82	99,830
454,03	101,560
454,25	98,715
454,46	98,632
454,67	100,634
454,88	100,573
455,09	99,184
455,30	99,901
455,51	99,505
455,72	99,442
455,93	97,744
456,14	98,455
456,35	97,773
456,56	97,478
456,78	98,301
456,99	97,666
457,20	97,028
457,41	98,057
457,62	97,565
457,83	96,482
458,04	99,087
458,25	97,229
458,46	98,800
458,67	98,680
458,88	99,276
459,09	98,432
459,30	98,169
459,51	99,123
459,73	97,159
459,94	97,343
460,15	95,795
460,36	95,843
460,57	96,317
460,78	94,703
460,99	95,302
461,20	95,292
461,41	94,335
461,62	95,824
461,83	95,283
462,04	96,827
462,25	95,858
462,46	97,928
462,67	98,268
462,88	98,031
463,09	99,254
463,30	98,108
463,51	98,505
463,72	98,764
463,93	99,593
464,15	99,315
464,36	99,013
464,57	99,075
464,78	99,716
464,99	98,564
465,20	99,000
465,41	99,297
465,62	99,011
465,83	98,660
466,04	98,916
466,25	99,564
466,46	99,160
466,67	98,977
466,88	98,725
467,09	99,710
467,30	99,362
467,51	99,881
467,72	99,693
467,93	99,847
468,14	99,977
468,35	100,296
468,56	99,978
468,77	99,724
468,98	100,210
469,19	100,628
469,40	100,567
469,61	101,492
469,82	100,572
470,03	100,574
470,24	101,718
470,45	100,943
470,66	100,336
470,87	99,594
471,08	100,987
471,29	99,541
471,50	100,146
471,71	99,438
471,92	99,028
472,13	98,430
472,34	98,772
472,55	99,003
472,76	97,411
472,97	97,789
473,18	98,454
473,39	97,847
473,60	98,937
473,81	99,143
474,01	98,829
474,22	99,563
474,43	99,214
474,64	100,196
474,85	100,533
475,06	100,317
475,27	101,312
475,48	100,735
475,69	99,219
475,90	99,597
476,11	100,467
476,32	101,628
476,53	100,044
476,74	99,874
476,95	99,638
477,16	99,839
477,37	100,059
477,58	99,552
477,79	99,686
478,00	99,978
478,21	100,180
478,41	100,491
478,62	101,806
478,83	99,896
479,04	101,904
479,25	101,866
479,46	101,798
479,67	101,673
479,88	101,381
480,09	102,089
480,30	101,106
480,51	101,931
480,72	101,617
480,93	102,379
481,14	102,420
481,34	101,155
481,55	101,663
481,76	101,717
481,97	100,309
482,18	102,064
482,39	100,176
482,60	99,580
482,81	100,436
483,02	99,565
483,23	99,961
483,44	99,825
483,65	100,236
483,85	100,004
484,06	98,926
484,27	99,531
484,48	98,991
484,69	99,892
484,90	99,991
485,11	99,465
485,32	98,942
485,53	99,485
485,73	98,909
485,94	98,427
486,15	98,357
486,36	99,727
486,57	98,871
486,78	99,620
486,99	98,966
487,20	99,858
487,41	99,849
487,61	98,102
487,82	98,802
488,03	100,079
488,24	99,120
488,45	99,762
488,66	99,651
488,87	99,923
489,08	99,306
489,28	98,732
489,49	98,914
489,70	98,425
489,91	97,342
490,12	99,745
490,33	98,584
490,54	98,585
490,74	97,332
490,95	96,508
491,16	97,438
491,37	97,223
491,58	96,391
491,79	96,339
492,00	95,723
492,20	95,750
492,41	94,988
492,62	93,320
492,83	91,686
493,04	88,286
493,25	86,604
493,45	82,787
493,66	77,329
493,87	73,165
494,08	66,783
494,29	60,037
494,50	53,031
494,70	46,245
494,91	39,302
495,12	33,302
495,33	26,284
495,54	20,641
495,75	15,839
495,95	11,579
496,16	8,589
496,37	6,072
496,58	4,203
496,79	2,931
496,99	2,158
497,20	1,546
497,41	1,276
497,62	0,892
497,83	0,726
498,04	0,708
498,24	0,610
498,45	0,565
498,66	0,424
498,87	0,672
499,08	0,733
499,28	0,419
499,49	0,631
499,70	0,526
499,91	0,440
500,12	0,476
500,32	0,439
500,53	0,696
500,74	0,493
500,95	0,321
501,15	0,540
501,36	0,574
501,57	0,426
501,78	0,534
501,99	0,288
502,19	0,515
502,40	0,575
502,61	0,292
502,82	0,508
503,02	0,523
503,23	0,501
503,44	0,489
503,65	0,638
503,86	0,370
504,06	0,615
504,27	0,627
504,48	0,417
504,69	0,671
504,89	0,352
505,10	0,547
505,31	0,383
505,52	0,452
505,72	0,387
505,93	0,432
506,14	0,317
506,35	0,349
506,55	0,427
506,76	0,479
506,97	0,627
507,18	0,530
507,38	0,454
507,59	0,414
507,80	0,541
508,01	0,364
508,21	0,397
508,42	0,398
508,63	0,541
508,84	0,575
509,04	0,380
509,25	0,443
509,46	0,419
509,67	0,427
509,87	0,307
510,08	0,446
510,29	0,400
510,49	0,310
510,70	0,625
510,91	0,272
511,12	0,448
511,32	0,338
511,53	0,322
511,74	0,477
511,94	0,543
512,15	0,597
512,36	0,467
512,57	0,627
512,77	0,357
512,98	0,472
513,19	0,425
513,39	0,573
513,60	0,437
513,81	0,447
514,01	0,225
514,22	0,448
514,43	0,540
514,64	0,381
514,84	0,341
515,05	0,546
515,26	0,456
515,46	0,829
515,67	0,444
515,88	0,308
516,08	0,606
516,29	0,200
516,50	0,457
516,70	0,336
516,91	0,510
517,12	0,464
517,32	0,575
517,53	0,548
517,74	0,434
517,95	0,652
518,15	0,431
518,36	0,484
518,57	0,379
518,77	0,414
518,98	0,558
519,19	0,614
519,39	0,593
519,60	0,556
519,80	0,401
520,01	0,495
520,22	0,517
520,42	0,619
520,63	0,501
520,84	0,570
521,04	0,612
521,25	0,506
521,46	0,542
521,66	0,523
521,87	0,418
522,08	0,667
522,28	0,363
522,49	0,448
522,70	0,597
522,90	0,752
523,11	0,499
523,31	0,786
523,52	0,518
523,73	0,751
523,93	0,603
524,14	0,721
524,35	0,601
524,55	0,591
524,76	0,575
524,97	0,567
525,17	0,656
525,38	0,659
525,58	0,574
525,79	0,681
526,00	0,604
526,20	0,760
526,41	0,596
526,61	0,649
526,82	0,745
527,03	0,741
527,23	0,657
527,44	0,747
527,64	0,679
527,85	0,728
528,06	0,683
528,26	0,671
528,47	0,523
528,68	0,784
528,88	0,727
529,09	0,598
529,29	0,616
529,50	0,640
529,70	0,807
529,91	0,735
530,12	0,683
530,32	0,561
530,53	0,778
530,73	0,499
530,94	0,615
531,15	0,536
531,35	0,713
531,56	0,809
531,76	0,578
531,97	0,790
532,17	0,430
532,38	0,921
532,59	0,966
532,79	0,677
533,00	0,667
533,20	0,695
533,41	0,938
533,61	0,559
533,82	0,905
534,03	0,769
534,23	0,948
534,44	0,866
534,64	0,700
534,85	0,650
535,05	0,546
535,26	0,848
535,46	0,798
535,67	0,686
535,88	0,793
536,08	0,659
536,29	0,585
536,49	0,868
536,70	0,932
536,90	0,794
537,11	0,912
537,31	0,987
537,52	0,800
537,72	0,803
537,93	0,597
538,13	0,825
538,34	0,767
538,55	1,004
538,75	0,644
538,96	0,848
539,16	0,812
539,37	0,987
539,57	0,839
539,78	0,999
539,98	0,827
540,19	0,827
540,39	0,972
540,60	0,925
540,80	0,941
541,01	0,931
541,21	0,985
541,42	0,885
541,62	1,093
541,83	1,050
542,03	1,000
542,24	1,338
542,44	1,063
542,65	1,305
542,85	1,767
543,06	2,433
543,26	2,907
543,47	3,514
543,67	4,912
543,88	5,651
544,08	7,949
544,29	9,759
544,49	12,165
544,70	14,843
544,90	17,934
545,11	21,163
545,31	24,673
545,52	27,892
545,72	30,608
545,93	33,973
546,13	36,825
546,34	39,301
546,54	41,735
546,75	43,997
546,95	45,854
547,15	49,007
547,36	51,511
547,56	55,335
547,77	57,881
547,97	63,162
548,18	67,865
548,38	72,522
548,59	77,754
548,79	82,149
549,00	87,177
549,20	90,630
549,41	93,134
549,61	94,860
549,81	96,089
550,02	97,295
550,22	98,475
550,43	98,649
550,63	98,570
550,84	99,601
551,04	99,133
551,25	99,864
551,45	100,108
551,65	100,613
551,86	100,658
552,06	100,704
552,27	100,912
552,47	100,542
552,68	100,385
552,88	100,580
553,08	101,302
553,29	101,374
553,49	100,085
553,70	100,533
553,90	100,595
554,11	101,462
554,31	100,811
554,51	101,469
554,72	100,979
554,92	100,315
555,13	101,791
555,33	100,693
555,53	100,579
555,74	101,427
555,94	102,044
556,15	101,643
556,35	100,173
556,56	102,280
556,76	101,780
556,96	102,370
557,17	100,375
557,37	100,679
557,58	101,771
557,78	101,036
557,98	100,802
558,19	100,661
558,39	101,021
558,59	101,417
558,80	100,633
559,00	101,810
559,21	100,865
559,41	101,203
559,61	100,801
559,82	99,958
560,02	101,052
560,23	100,556
560,43	99,746
560,63	100,208
560,84	100,249
561,04	100,691
561,24	100,015
561,45	101,294
561,65	100,518
561,85	101,460
562,06	100,806
562,26	101,446
562,47	100,916
562,67	100,206
562,87	101,215
563,08	100,161
563,28	100,397
563,48	100,149
563,69	99,955
563,89	99,560
564,09	100,567
564,30	99,513
564,50	99,640
564,70	99,606
564,91	99,120
565,11	99,063
565,31	99,929
565,52	98,799
565,72	99,574
565,92	98,417
566,13	99,383
566,33	97,998
566,53	98,852
566,74	100,019
566,94	99,309
567,14	99,458
567,35	98,983
567,55	99,323
567,75	99,251
567,96	98,229
568,16	98,515
568,36	98,744
568,57	99,130
568,77	99,993
568,97	99,803
569,18	100,331
569,38	99,402
569,58	100,170
569,79	100,275
569,99	100,534
570,19	101,198
570,39	100,413
570,60	100,647
570,80	101,015
571,00	100,482
571,21	100,668
571,41	101,459
571,61	101,332
571,82	100,596
572,02	99,843
572,22	100,977
572,42	101,805
572,63	101,219
572,83	101,448
573,03	101,707
573,24	101,961
573,44	101,128
573,64	102,584
573,84	101,256
574,05	100,786
574,25	100,803
574,45	101,405
574,66	101,024
574,86	101,895
575,06	101,430
575,26	101,513
575,47	101,025
575,67	101,951
575,87	100,899
576,07	100,453
576,28	102,077
576,48	100,521
576,68	101,692
576,88	101,156
577,09	101,217
577,29	101,354
577,49	101,349
577,69	100,791
577,90	100,190
578,10	100,505
578,30	100,800
578,50	100,431
578,71	99,887
578,91	99,899
579,11	100,483
579,31	100,503
579,52	99,986
579,72	99,812
579,92	99,272
580,12	100,524
580,33	100,332
580,53	100,675
580,73	100,646
580,93	98,890
581,13	100,135
581,34	100,270
581,54	100,102
581,74	99,953
581,94	100,167
582,15	99,967
582,35	100,678
582,55	100,014
582,75	100,788
582,95	100,047
583,16	100,648
583,36	101,585
583,56	101,309
583,76	101,061
583,96	101,017
584,17	102,187
584,37	102,738
584,57	101,180
584,77	100,528
584,97	101,500
585,18	101,719
585,38	101,279
585,58	100,022
585,78	100,929
585,98	100,679
586,19	99,630
586,39	100,885
586,59	100,719
586,79	100,965
586,99	100,189
587,20	100,310
587,40	100,772
587,60	99,794
587,80	100,029
588,00	100,349
588,20	99,611
588,41	98,978
588,61	99,280
588,81	99,649
589,01	99,630
589,21	98,988
589,41	99,436
589,62	99,076
589,82	98,063
590,02	98,021
590,22	98,121
590,42	97,866
590,62	97,830
590,83	98,028
591,03	98,007
591,23	97,789
591,43	98,926
591,63	99,490
591,83	97,967
592,03	97,883
592,24	98,937
592,44	97,875
592,64	99,122
592,84	99,440
593,04	98,237
593,24	98,433
593,44	97,852
593,65	99,007
593,85	98,896
594,05	98,472
594,25	99,438
594,45	98,037
594,65	98,704
594,85	97,830
595,06	99,080
595,26	98,338
595,46	99,099
595,66	98,141
595,86	98,472
596,06	98,544
596,26	97,999
596,46	98,754
596,66	99,447
596,87	98,251
597,07	98,392
597,27	98,906
597,47	98,889
597,67	98,280
597,87	99,073
598,07	98,143
598,27	98,055
598,47	99,064
598,67	97,579
598,88	98,682
599,08	98,101
599,28	97,521
599,48	97,014
599,68	97,042
599,88	95,180
600,08	95,000
600,28	94,494
600,48	93,976
600,68	91,701
600,88	90,680
601,09	88,294
601,29	85,676
601,49	81,987
601,69	78,323
601,89	73,408
602,09	68,723
602,29	62,982
602,49	57,485
602,69	51,870
602,89	45,257
603,09	38,198
603,29	32,417
603,49	26,328
603,69	21,056
603,90	16,560
604,10	12,895
604,30	9,407
604,50	6,900
604,70	5,281
604,90	4,109
605,10	2,971
605,30	2,232
605,50	1,750
605,70	1,589
605,90	1,068
606,10	1,005
606,30	1,010
606,50	0,787
606,70	0,580
606,90	0,717
607,10	0,641
607,30	0,640
607,50	0,738
607,70	0,799
607,90	0,520
608,10	0,650
608,30	0,585
608,50	0,529
608,70	0,448
608,90	0,602
609,11	0,604
609,31	0,526
609,51	0,609
609,71	0,709
609,91	0,548
610,11	0,447
610,31	0,520
610,51	0,455
610,71	0,522
610,91	0,456
611,11	0,864
611,31	0,306
611,51	0,408
611,71	0,518
611,91	0,687
612,11	0,493
612,31	0,464
612,51	0,523
612,71	0,493
612,91	0,547
613,11	0,528
613,31	0,528
613,51	0,625
613,71	0,346
613,91	0,437
614,11	0,160
614,31	0,625
614,50	0,452
614,70	0,592
614,90	0,669
615,10	0,275
615,30	0,313
615,50	0,343
615,70	0,398
615,90	0,369
616,10	0,399
616,30	0,383
616,50	0,358
616,70	0,517
616,90	0,726
617,10	0,351
617,30	0,373
617,50	0,632
617,70	0,352
617,90	0,505
618,10	0,456
618,30	0,569
618,50	0,476
618,70	0,447
618,90	0,363
619,10	0,477
619,30	0,512
619,49	0,661
619,69	0,407
619,89	0,247
620,09	0,438
620,29	0,213
620,49	0,640
620,69	0,572
620,89	0,317
621,09	0,531
621,29	0,454
621,49	0,405
621,69	0,354
621,89	0,517
622,09	0,333
622,29	0,498
622,48	0,218
622,68	0,605
622,88	0,423
623,08	0,344
623,28	0,550
623,48	0,444
623,68	0,254
623,88	0,275
624,08	0,439
624,28	0,364
624,48	0,389
624,67	0,296
624,87	0,382
625,07	0,455
625,27	0,432
625,47	0,354
625,67	0,297
625,87	0,462
626,07	0,317
626,27	0,176
626,47	0,461
626,66	0,293
626,86	0,277
627,06	0,432
627,26	0,348
627,46	0,331
627,66	0,446
627,86	0,267
628,06	0,372
628,25	0,379
628,45	0,368
628,65	0,346
628,85	0,256
629,05	0,295
629,25	0,410
629,45	0,346
629,65	0,292
629,84	0,461
630,04	0,286
630,24	0,503
630,44	0,282
630,64	0,621
630,84	0,516
631,04	0,360
631,23	0,255
631,43	0,239
631,63	0,351
631,83	0,645
632,03	0,323
632,23	0,457
632,42	0,515
632,62	0,393
632,82	0,466
633,02	0,486
633,22	0,453
633,42	0,398
633,62	0,644
633,81	0,200
634,01	0,299
634,21	0,430
634,41	0,646
634,61	0,510
634,80	0,555
635,00	0,337
635,20	0,480
635,40	0,457
635,60	0,286
635,80	0,295
635,99	0,622
636,19	0,489
636,39	0,405
636,59	0,577
636,79	0,668
636,98	0,647
637,18	0,525
637,38	0,492
637,58	0,666
637,78	0,234
637,97	0,388
638,17	0,550
638,37	0,428
638,57	0,419
638,77	0,488
638,96	0,652
639,16	0,447
639,36	0,539
639,56	0,769
639,76	0,471
639,95	0,585
640,15	0,588
640,35	0,916
640,55	0,968
640,75	0,880
640,94	1,367
641,14	1,429
641,34	1,203
641,54	1,528
641,73	2,440
641,93	2,514
642,13	3,173
642,33	3,984
642,53	4,873
642,72	5,891
642,92	7,145
643,12	7,898
643,32	10,288
643,51	12,165
643,71	14,397
643,91	16,834
644,11	19,410
644,30	22,197
644,50	24,051
644,70	27,915
644,90	30,193
645,09	31,888
645,29	34,692
645,49	36,743
645,69	39,238
645,88	41,527
646,08	44,345
646,28	46,874
646,48	48,998
646,67	52,425
646,87	56,044
647,07	59,721
647,26	63,280
647,46	66,543
647,66	70,850
647,86	74,198
648,05	77,307
648,25	82,778
648,45	84,318
648,65	88,370
648,84	90,146
649,04	90,068
649,24	93,103
649,43	93,275
649,63	93,415
649,83	95,879
650,03	97,495
650,22	96,641
650,42	96,238
650,62	95,681
650,81	96,253
651,01	96,761
651,21	96,489
651,40	96,969
651,60	98,837
651,80	98,465
652,00	99,345
652,19	97,208
652,39	100,227
652,59	99,171
652,78	97,736
652,98	98,825
653,18	98,167
653,37	99,461
653,57	98,065
653,77	98,547
653,96	97,617
654,16	98,662
654,36	97,841
654,55	100,200
654,75	99,037
654,95	98,939
655,14	97,672
655,34	99,110
655,54	97,530
655,73	99,117
655,93	100,359
656,13	99,533
656,32	99,572
656,52	100,285
656,72	100,191
656,91	98,711
657,11	97,911
657,31	98,371
657,50	98,501
657,70	97,827
657,90	98,151
658,09	99,150
658,29	98,518
658,49	97,694
658,68	96,611
658,88	97,570
659,07	97,485
659,27	97,309
659,47	97,973
659,66	97,492
659,86	96,726
660,06	96,376
660,25	94,586
660,45	95,887
660,64	95,010
660,84	96,747
661,04	95,775
661,23	95,458
661,43	95,461
661,63	96,085
661,82	96,316
662,02	95,447
662,21	96,416
662,41	96,439
662,61	96,137
662,80	97,862
663,00	97,163
663,19	98,989
663,39	98,323
663,59	98,556
663,78	95,834
663,98	95,537
664,17	97,317
664,37	97,254
664,57	96,524
664,76	99,859
664,96	96,010
665,15	98,421
665,35	95,016
665,55	97,236
665,74	96,685
665,94	95,823
666,13	97,128
666,33	95,283
666,53	95,588
666,72	95,189
666,92	97,035
667,11	96,008
667,31	95,416
667,50	93,186
667,70	94,274
667,90	95,029
668,09	94,990
668,29	95,709
668,48	95,208
668,68	94,908
668,87	95,320
669,07	96,652
669,26	95,219
669,46	95,604
669,66	95,618
669,85	95,258
670,05	94,473
670,24	95,096
670,44	94,750
670,63	93,353
670,83	94,195
671,02	94,504
671,22	93,682
671,42	92,872
671,61	93,508
671,81	96,597
672,00	92,944
672,20	94,354
672,39	94,040
672,59	93,979
672,78	94,346
672,98	93,054
673,17	93,322
673,37	95,729
673,56	94,890
673,76	94,977
673,95	96,024
674,15	95,683
674,34	95,187
674,54	95,610
674,73	95,040
674,93	95,419
675,13	94,258
675,32	94,945
675,52	95,187
675,71	95,154
675,91	96,142
676,10	95,630
676,30	94,292
676,49	94,874
676,69	95,333
676,88	95,596
677,08	95,678
677,27	94,770
677,47	94,080
677,66	94,842
677,86	94,393
678,05	93,726
678,24	94,370
678,44	94,700
678,63	93,893
678,83	95,728
679,02	94,005
679,22	94,172
679,41	95,183
679,61	93,825
679,80	94,718
680,00	93,362
680,19	94,713
680,39	92,668
680,58	92,871
680,78	93,867
680,97	93,574
681,17	92,972
681,36	93,770
681,56	92,600
681,75	92,625
681,94	93,237
682,14	93,028
682,33	93,325
682,53	93,097
682,72	93,048
682,92	91,788
683,11	92,452
683,31	92,360
683,50	93,825
683,69	93,629
683,89	93,415
684,08	93,043
684,28	92,903
684,47	94,521
684,67	92,992
684,86	92,272
685,06	93,259
685,25	93,537
685,44	93,845
685,64	92,368
685,83	93,464
686,03	94,227
686,22	93,534
686,42	92,836
686,61	94,240
686,80	93,645
687,00	92,943
687,19	93,906
687,39	94,317
687,58	93,070
687,77	93,536
687,97	93,732
688,16	93,509
688,36	93,725
688,55	93,523
688,74	93,570
688,94	93,930
689,13	93,347
689,33	92,838
689,52	93,781
689,71	93,651
689,91	94,322
690,10	94,492
690,30	93,239
690,49	93,510
690,68	93,470
690,88	93,285
691,07	93,641
691,27	94,265
691,46	94,707
691,65	94,121
691,85	94,453
692,04	94,572
692,23	95,484
692,43	94,249
692,62	94,749
692,82	96,287
693,01	94,910
693,20	94,837
693,40	96,388
693,59	96,535
693,78	96,334
693,98	96,560
694,17	97,373
694,36	96,798
694,56	97,946
694,75	98,541
694,94	99,521
695,14	98,651
695,33	99,439
695,53	99,257
695,72	98,612
695,91	98,921
696,11	100,241
696,30	99,553
696,49	100,523
696,69	99,512
696,88	100,324
697,07	99,927
697,27	101,291
697,46	99,868
697,65	99,720
697,85	98,484
698,04	97,066
698,23	95,697
698,43	94,759
698,62	93,651
698,81	93,068
699,01	91,197
699,20	88,960
699,39	85,819
699,58	83,406
699,78	81,367
699,97	77,504
700,16	74,276
700,36	72,083
700,55	67,373
700,74	64,081
700,94	60,118
701,13	56,291
701,32	51,592
701,52	47,313
701,71	41,876
701,90	36,604
702,09	33,908
702,29	29,210
702,48	25,669
702,67	22,217
702,87	18,445
703,06	14,783
703,25	12,304
703,44	9,548
703,64	8,297
703,83	6,604
704,02	4,465
704,22	4,505
704,41	3,934
704,60	3,538
704,79	2,566
704,99	2,031
705,18	2,644
705,37	2,483
705,56	1,561
705,76	2,136
705,95	1,888
706,14	0,876
706,33	1,853
706,53	2,117
706,72	2,109
706,91	0,639
707,11	1,004
707,30	2,051
707,49	2,708
707,68	2,324
707,88	1,434
708,07	1,160
708,26	1,829
708,45	1,888
708,64	1,365
708,84	1,978
709,03	2,305
709,22	1,901
709,41	2,373
709,61	0,334
709,80	1,398
709,99	1,654
710,18	1,486
710,38	2,706
710,57	2,152
710,76	2,917
710,95	3,318
711,14	2,322
711,34	1,253
711,53	1,884
711,72	3,163
711,91	1,714
712,11	1,730
712,30	2,915
712,49	2,552
712,68	2,047
712,87	1,680
713,07	3,343
713,26	2,219
713,45	2,597
713,64	3,276
713,83	3,490
714,03	0,730
714,22	0,654
714,41	2,368
714,60	2,758
714,79	1,400
714,99	3,308
715,18	0,282
715,37	1,937
715,56	2,333
715,75	3,737
715,94	3,357
716,14	0,481
716,33	1,916
716,52	2,652
716,71	2,060
716,90	0,897
717,10	1,790
717,29	3,195
717,48	3,458
717,67	4,122
717,86	3,432
718,05	2,131
718,24	2,313
718,44	4,032
718,63	6,075
718,82	3,643
719,01	2,520
719,20	2,284
719,39	2,766
719,59	4,243
719,78	3,446
719,97	5,852
720,16	2,031
720,35	3,064
720,54	5,645
720,73	3,789
720,93	2,855
721,12	1,945
721,31	5,612
721,50	6,250
721,69	3,712
721,88	4,020
722,07	3,867
722,27	2,570
722,46	0,165
722,65	-0,076
722,84	3,394
723,03	0,235
723,22	4,065
723,41	4,677
723,60	1,768
723,79	3,753
723,99	4,058
724,18	5,448
724,37	2,039
724,56	3,836
724,75	0,536
724,94	7,829
725,13	5,389
725,32	6,132
725,51	2,240
725,71	5,320
725,90	4,669
726,09	6,084
726,28	5,461
726,47	5,790
726,66	3,603
726,85	4,479
727,04	4,399
727,23	7,227
727,42	2,689
727,61	0,520
727,81	5,200
728,00	5,316
728,19	4,550
728,38	3,098
728,57	8,280
728,76	7,091
728,95	3,497
729,14	7,288
729,33	3,876
729,52	7,992
729,71	0,931
729,90	0,582
730,09	6,509
730,28	5,556
730,48	6,416
730,67	6,235
730,86	6,690
731,05	-0,859
731,24	-2,356
731,43	8,680
731,62	5,679
731,81	7,551
732,00	6,600
732,19	4,887
732,38	5,212
732,57	6,407
732,76	-6,119
732,95	7,959
733,14	7,198
733,33	0,278
733,52	6,640
733,71	6,250
733,90	-1,245
734,09	5,073
734,28	7,087
734,47	3,382
734,66	-0,561
734,85	-0,423
735,04	11,334
735,23	4,848
735,42	9,929
735,61	5,679
735,81	8,381
736,00	4,361
736,19	4,798
736,38	4,812
736,57	5,063
736,76	8,395
736,95	3,509
737,14	11,656
737,33	0,467
737,52	3,495
737,71	12,195
737,90	5,591
738,09	4,483
738,28	7,468
738,47	8,039
738,66	5,763
738,85	0,472
739,04	10,467
739,22	9,777
739,41	1,222
739,60	0,718
739,79	4,440
739,98	13,936
740,17	4,054
740,36	10,985
740,55	9,290
740,74	6,506
740,93	4,047
741,12	6,574
741,31	0,818
741,50	13,937
741,69	-0,924
741,88	12,084
742,07	5,830
742,26	3,824
742,45	7,790
742,64	7,551
742,83	8,791
743,02	-1,004
743,21	2,257
743,40	6,897
743,59	9,627
743,78	0,844
743,97	5,313
744,16	11,638
744,34	8,884
744,53	5,603
744,72	12,951
744,91	5,339
745,10	1,839
745,29	5,634
745,48	2,620
745,67	12,222
745,86	9,959
746,05	16,107
746,24	5,172
746,43	9,751
746,62	12,426
746,81	10,664
747,00	11,250
747,18	7,955
747,37	2,273
747,56	9,153
747,75	-0,512
747,94	11,616
748,13	10,514
748,32	11,220
748,51	7,260
748,70	11,990
748,89	11,290
749,08	16,995
749,26	9,867
749,45	11,007
749,64	1,292
749,83	8,354
750,02	-4,826
750,21	9,375
750,40	8,179
750,59	3,723
750,78	13,012
750,96	30,673
751,15	9,651
751,34	13,514
751,53	8,889
751,72	2,949
751,91	8,661
752,10	14,930
752,29	-8,406
752,47	11,207
752,66	1,775
752,85	15,873
753,04	-0,541
753,23	8,626
753,42	12,718
753,61	-2,432
753,80	2,703
753,98	7,188
754,17	5,099
754,36	3,595
754,55	5,863
754,74	20,541
754,93	18,387
755,12	12,615
755,30	4,059
755,49	13,783
755,68	21,096
755,87	20,819
756,06	12,392
756,25	-0,990
756,43	13,309
756,62	-5,054
756,81	-5,490
757,00	20,604
757,19	15,644
757,38	14,984
757,56	4,392
757,75	-8,779
757,94	12,500
758,13	35,669
758,32	9,848
758,51	16,774
758,69	-2,885
758,88	20,656
759,07	37,011
759,26	3,741
759,45	24,286
759,63	-3,557
759,82	10,949
760,01	5,208
760,20	17,883
760,39	14,943
760,57	1,288
760,76	-0,382
760,95	11,494
761,14	3,846
761,33	16,016
761,51	17,037
761,70	19,655
761,89	18,992
762,08	9,483
762,27	10,577
762,45	-4,717
762,64	8,850
762,83	24,907
763,02	18,685
763,21	11,620
763,39	22,172
763,58	12,653
763,77	10,638
763,96	25,731
764,14	4,979
764,33	25,940
764,52	21,875
764,71	-3,941
764,89	22,973
765,08	15,730
765,27	12,376
765,46	9,545
765,65	4,061
765,83	23,333
766,02	27,473
766,21	22,785
766,40	26,047
766,58	11,765
766,77	1,695
766,96	9,744
767,15	8,213
767,33	7,692
767,52	2,844
767,71	12,778
767,90	22,500
768,08	23,176
768,27	21,860
768,46	21,905
768,64	14,563
768,83	29,730
769,02	9,048
769,21	7,292
769,39	0,671
769,58	27,000
769,77	29,891
769,96	11,258
770,14	7,634
770,33	17,112
770,52	6,410
770,70	-3,960
770,89	18,878
771,08	17,187
771,27	-7,216
771,45	29,480
771,64	25,658
771,83	33,871
772,01	-14,504
772,20	29,293
772,39	8,917
772,57	22,396
772,76	32,414
772,95	-3,046
773,14	47,093
773,32	9,890
773,51	22,791
773,70	-11,258
773,88	19,598
774,07	20,502
774,26	34,756
774,44	43,216
774,63	17,722
774,82	29,518
775,00	15,721
775,19	13,793
775,38	10,667
775,56	13,415
775,75	-2,994
775,94	31,343
776,12	23,333
776,31	49,102
776,50	21,212
776,68	7,407
776,87	-3,497
777,06	9,589
777,24	31,148
777,43	14,634
777,62	20,000
777,80	57,065
777,99	28,025
778,18	35,032
778,36	12,214
778,55	14,074
778,74	0,758
778,92	52,036
779,11	10,968
779,29	25,490
779,48	-9,091
779,67	35,252
779,85	29,600
780,04	29,577
780,23	-0,699
780,41	35,882
780,60	19,298
780,79	20,139
780,97	12,143
781,16	36,800
781,34	11,364
781,53	29,487
781,72	50,000
781,90	61,538
782,09	-7,377
782,28	43,089
782,46	8,943
782,65	29,371
782,83	20,611
783,02	-2,400
783,21	14,729
783,39	33,333
783,58	39,333
783,76	40,541
783,95	29,801
784,14	21,053
784,32	32,110
784,51	-13,483
784,69	22,293
784,88	38,065
785,06	44,681
785,25	72,180
785,44	21,622
785,62	32,857
785,81	26,119
785,99	4,762
786,18	45,082
786,37	28,966
786,55	-14,925
786,74	40,373
786,92	11,047
787,11	10,400
787,29	31,765
787,48	24,000
787,67	20,408
787,85	-6,250
788,04	19,178
788,22	20,370
788,41	44,079
788,59	29,252
788,78	46,528
788,96	59,048
789,15	56,557
789,34	9,756
789,52	27,612
789,71	-1,587
789,89	27,193
790,08	15,686
790,26	33,333
790,45	28,467
790,63	21,711
790,82	20,968
791,00	68,254
791,19	22,857
791,38	33,562
791,56	6,579
791,75	41,892
791,93	41,176
792,12	-7,576
792,30	53,289
792,49	-0,935
792,67	45,714
792,86	31,081
793,04	19,048
793,23	51,974
793,41	30,968
793,60	11,392
793,78	24,832
793,97	-2,586
794,15	58,170
794,34	26,531
794,52	18,605
794,71	65,432
794,89	25,714
795,08	56,410
795,26	47,000
795,45	23,404
795,63	13,208
795,82	31,092
796,00	7,692
796,19	28,571
796,37	-3,390
796,56	-25,926
796,74	31,250
796,93	10,084
797,11	40,833
797,30	58,015
797,48	16,084
797,67	25,000
797,85	50,725
798,04	11,712
798,22	17,266
798,41	83,051
798,59	15,714
798,77	30,769
798,96	20,968
799,14	69,444
799,33	28,319
799,51	22,772
799,70	69,231
799,88	18,349
800,07	24,460
800,25	27,481
800,44	1,980
800,62	29,496
800,80	40,909
800,99	19,231
801,17	53,793
801,36	44,792
801,54	28,682
801,73	24,242
801,91	23,596
802,10	-20,000
802,28	28,346
802,46	8,065
802,65	-5,960
802,83	19,835
803,02	28,571
803,20	69,492
803,39	26,606
803,57	23,944
803,75	27,857
803,94	42,568
804,12	37,267
804,31	65,385
804,49	41,935
804,67	-16,216
804,86	31,056
805,04	13,178
805,23	51,095
805,41	9,804
805,59	37,952
805,78	31,429
805,96	37,952
806,15	46,400
806,33	-5,839
806,51	41,026
806,70	-37,209
806,88	25,455
807,07	46,721
807,25	34,783
807,43	15,556
807,62	42,969
807,80	45,122
807,99	28,777
808,17	-13,194
808,35	17,925
808,54	30,168
808,72	28,846
808,90	35,772
809,09	20,438
809,27	28,155
809,46	16,822
809,64	35,260
809,82	30,345
810,01	21,505
810,19	5,455
810,37	43,182
810,56	52,980
810,74	30,189
810,92	23,239
811,11	13,497
811,29	30,435
811,48	33,913
811,66	15,736
811,84	-6,780
812,03	22,297
812,21	23,636
812,39	24,194
812,58	27,485
812,76	33,577
812,94	-0,671
813,13	-7,317
813,31	33,862
813,49	14,667
813,68	27,049
813,86	23,718
814,04	28,829
814,23	36,154
814,41	13,014
814,59	18,954
814,78	41,611
814,96	30,168
815,14	34,171
815,33	28,926
815,51	10,236
815,69	34,351
815,87	3,871
816,06	38,308
816,24	27,451
816,42	-3,571
816,61	20,370
816,79	8,671
816,97	15,385
817,16	-1,190
817,34	8,824
817,52	26,636
817,70	23,834
817,89	31,579
818,07	22,667
818,25	9,494
818,44	19,251
818,62	16,832
818,80	29,670
818,98	-10,769
819,17	16,102
819,35	20,134
819,53	32,821
819,72	38,919
819,90	30,222
820,08	34,158
820,26	20,091
820,45	30,108
820,63	12,281
820,81	20,642
820,99	31,004
821,18	34,940
821,36	23,125
821,54	18,408
821,73	27,322
821,91	-2,817
822,09	14,201
822,27	23,735
822,46	22,660
822,64	5,789
822,82	24,873
823,00	26,178
823,19	30,952
823,37	24,359
823,55	11,392
823,73	15,169
823,91	-1,604
824,10	5,208
824,28	-0,413
824,46	-36,842
824,64	22,878
824,83	16,588
825,01	-13,529
825,19	19,651
825,37	6,373
825,56	14,885
825,74	12,987
825,92	21,790
826,10	10,132
826,28	26,937
826,47	26,848
826,65	25,540
826,83	21,491
827,01	18,110
827,19	23,256
827,38	23,970
827,56	17,500
827,74	5,687
827,92	5,366
828,10	11,111
828,29	23,616
828,47	26,642
828,65	15,625
828,83	1,688
829,01	-5,856
829,20	11,538
829,38	4,098
829,56	10,774
829,74	12,308
829,92	9,717
830,10	15,451
830,29	11,494
830,47	21,269
830,65	2,510
830,83	32,313
831,01	19,731
831,20	-7,664
831,38	10,423
831,56	7,368
831,74	4,746
831,92	16,850
832,10	15,506
832,29	25,795
832,47	13,121
832,65	14,426
832,83	0,000
833,01	3,323
833,19	15,057
833,37	23,708
833,56	9,524
833,74	4,262
833,92	3,716
834,10	10,542
834,28	4,878
834,46	16,763
834,64	22,133
834,83	10,482
835,01	18,799
835,19	9,220
835,37	26,836
835,55	24,079
835,73	11,299
835,91	3,835
836,09	9,539
836,28	-3,049
836,46	9,440
836,64	15,223
836,82	11,264
837,00	-12,141
837,18	8,667
837,36	23,754
837,54	4,645
837,72	10,633
837,91	5,949
838,09	9,394
838,27	9,845
838,45	18,082
838,63	5,634
838,81	-2,432
838,99	10,345
839,17	9,006
839,35	11,964
839,53	9,439
839,72	11,538
839,90	19,778
840,08	10,824
840,26	6,562
840,44	3,053
840,62	8,086
840,80	18,462
840,98	12,752
841,16	-1,087
841,34	13,072
841,52	7,826
841,70	0,744
841,89	10,706
842,07	2,529
842,25	8,595
842,43	10,949
842,61	3,783
842,79	16,553
842,97	5,263
843,15	6,889
843,33	11,111
843,51	9,783
843,69	4,688
843,87	14,919
844,05	9,071
844,23	10,187
844,41	9,543
844,59	7,054
844,77	5,361
844,95	7,792
845,13	8,632
845,31	6,876
845,50	4,969
845,68	2,570
845,86	6,301
846,04	14,411
846,22	13,158
846,40	2,066
846,58	11,155
846,76	3,245
846,94	1,590
847,12	6,538
847,30	10,507
847,48	9,654
847,66	4,527
847,84	4,240
848,02	4,228
848,20	9,228
848,38	15,893
848,56	9,695
848,74	9,472
848,92	1,718
849,10	9,155
849,28	0,787
849,46	-2,403
849,64	10,853
849,82	10,703
850,00	7,083
850,18	7,132
850,36	3,146
850,54	7,827
850,72	4,984
850,90	14,152
851,08	8,504
851,26	0,971
851,44	8,239
851,62	11,146
851,80	6,175
851,98	11,161
852,16	3,288
852,34	9,437
852,52	2,367
852,70	9,579
852,87	0,146
853,05	9,599
853,23	-1,180
853,41	9,577
853,59	5,483
853,77	5,669
853,95	4,572
854,13	6,534
854,31	0,674
854,49	2,532
854,67	8,017
854,85	5,795
855,03	10,253
855,21	10,317
855,39	11,573
855,57	7,983
855,75	6,906
855,93	1,264
856,11	7,263
856,28	3,462
856,46	5,263
856,64	8,182
856,82	4,797
857,00	6,472
857,18	8,344
857,36	10,448
857,54	9,257
857,72	6,667
857,90	12,237
858,08	4,167
858,26	13,793
858,44	12,067
858,61	16,271
858,79	14,064
858,97	14,876
859,15	11,547
859,33	10,175
859,51	12,023
859,69	13,636
859,87	15,478
860,05	4,182
860,23	13,687
860,40	7,650
860,58	7,547
860,76	11,739
860,94	8,654
861,12	11,996
861,30	11,691
861,48	14,995
861,66	12,213
861,84	9,199
862,01	14,314
862,19	16,768
862,37	11,809
862,55	14,474
862,73	11,880
862,91	17,222
863,09	15,708
863,27	10,423
863,44	12,991
863,62	17,894
863,80	18,049
863,98	19,061
864,16	22,053
864,34	14,072
864,52	21,759
864,69	22,289
864,87	21,939
865,05	19,982
865,23	19,697
865,41	15,774
865,59	19,536
865,76	20,392
865,94	20,626
866,12	22,348
866,30	22,603
866,48	26,041
866,66	23,391
866,83	27,249
867,01	25,861
867,19	23,166
867,37	25,345
867,55	21,939
867,73	21,909
867,90	26,179
868,08	25,459
868,26	22,376
868,44	18,729
868,62	25,041
868,79	19,682
868,97	23,552
869,15	20,235
869,33	19,555
869,51	25,157
869,69	20,226
869,86	18,174
870,04	23,883
870,22	22,788
870,40	21,186
870,57	18,968
870,75	20,700
870,93	19,510
871,11	19,263
871,29	20,836
871,46	20,231
871,64	23,205
871,82	23,002
872,00	25,527
872,18	24,222
872,35	26,362
872,53	27,934
872,71	24,660
872,89	23,382
873,06	26,232
873,24	28,786
873,42	26,323
873,60	28,682
873,77	25,780
873,95	26,026
874,13	28,003
874,31	24,850
874,49	24,005
874,66	29,993
874,84	26,104
875,02	26,512
875,20	26,679
875,37	25,262
875,55	23,537
875,73	24,003
875,91	22,829
876,08	21,684
876,26	26,342
876,44	23,801
876,61	19,709
876,79	16,379
876,97	16,599
877,15	20,901
877,32	17,500
877,50	20,255
877,68	19,102
877,86	19,667
878,03	16,474
878,21	18,037
878,39	19,154
878,56	17,472
878,74	17,896
878,92	19,829
879,10	20,849
879,27	21,336
879,45	20,967
879,63	19,221
879,80	19,300
879,98	17,942
880,16	21,009
880,34	19,979
880,51	22,068
880,69	19,398
880,87	20,388
881,04	19,221
881,22	20,251
881,40	19,510
881,57	19,298
881,75	19,342
881,93	17,925
882,10	21,380
882,28	17,961
882,46	18,336
882,63	19,554
882,81	17,630
882,99	15,190
883,16	18,083
883,34	16,507
883,52	15,165
883,69	14,477
883,87	14,550
884,05	14,943
884,22	14,860
884,40	11,549
884,58	12,295
884,75	10,238
884,93	12,275
885,11	11,962
885,28	12,388
885,46	10,167
885,64	9,334
885,81	7,038
885,99	7,907
886,17	9,429
886,34	6,730
886,52	9,645
886,70	7,780
886,87	8,459
887,05	7,627
887,22	6,307
887,40	7,593
887,58	5,708
887,75	5,887
887,93	6,731
888,11	5,955
888,28	8,982
888,46	7,308
888,63	8,696
888,81	8,948
888,99	9,075
889,16	8,589
889,34	9,075
889,51	8,909
889,69	11,421
889,87	9,273
890,04	10,171
890,22	10,571
890,39	9,355
890,57	12,466
890,75	12,538
890,92	12,366
891,10	10,891
891,27	12,048
891,45	12,295
891,63	12,019
891,80	12,219
891,98	11,219
892,15	11,206
892,33	12,152
892,51	12,168
892,68	13,820
892,86	12,902
893,03	14,047
893,21	14,927
893,38	15,558
893,56	14,676
893,74	17,476
893,91	13,747
894,09	16,803
894,26	14,384
894,44	17,255
894,61	16,627
894,79	17,125
894,96	15,217
895,14	18,222
895,32	15,527
895,49	17,457
895,67	17,038
895,84	17,140
896,02	17,796
896,19	17,308
896,37	16,006
896,54	16,047
896,72	16,224
896,89	16,393
897,07	16,713
897,25	15,713
897,42	16,277
897,60	16,025
897,77	15,889
897,95	14,568
898,12	15,712
898,30	14,969
898,47	13,893
898,65	14,560
898,82	14,597
899,00	14,224
899,17	14,681
899,35	13,536
899,52	13,542
899,70	14,035
899,87	13,303
900,05	14,024
900,22	13,780
900,40	12,141
900,57	13,038
900,75	13,319
900,92	14,218
901,10	12,956
901,27	14,080
901,45	13,980
901,62	14,345
901,80	14,830
901,97	15,694
902,15	14,535
902,32	16,362
902,50	16,486
902,67	16,974
902,85	17,923
903,02	16,475
903,20	18,813
903,37	17,776
903,54	19,413
903,72	20,521
903,89	19,628
904,07	20,572
904,24	23,204
904,42	21,693
904,59	25,464
904,77	25,174
904,94	23,810
905,12	25,990
905,29	26,066
905,47	25,167
905,64	28,678
905,81	27,149
905,99	28,208
906,16	28,294
906,34	28,277
906,51	29,971
906,69	29,867
906,86	32,549
907,03	31,907
907,21	33,135
907,38	30,260
907,56	31,109
907,73	34,742
907,91	35,322
908,08	35,752
908,25	35,410
908,43	38,460
908,60	39,644
908,78	38,197
908,95	39,829
909,13	39,444
909,30	39,476
909,47	40,593
909,65	41,702
909,82	41,114
910,00	40,999
910,17	42,996
910,34	42,968
910,52	42,240
910,69	43,519
910,87	43,744
911,04	43,181
911,21	45,898
911,39	44,793
911,56	44,355
911,73	44,802
911,91	43,329
912,08	45,558
912,26	45,433
912,43	43,823
912,60	44,014
912,78	44,363
912,95	44,351
913,13	44,310
913,30	44,387
913,47	43,158
913,65	42,532
913,82	41,643
913,99	43,548
914,17	42,880
914,34	40,711
914,51	43,770
914,69	42,437
914,86	43,365
915,03	42,846
915,21	42,175
915,38	42,507
915,56	43,423
915,73	42,906
915,90	41,418
916,08	40,572
916,25	42,471
916,42	43,442
916,60	43,288
916,77	43,501
916,94	43,524
917,12	43,191
917,29	44,086
917,46	42,701
917,64	43,454
917,81	44,054
917,98	44,150
918,16	43,466
918,33	46,410
918,50	43,080
918,67	45,889
918,85	45,741
919,02	44,914
919,19	45,505
919,37	47,066
919,54	46,517
919,71	46,470
919,89	48,582
920,06	48,477
920,23	49,192
920,41	46,635
920,58	47,292
920,75	46,931
920,92	47,041
921,10	47,731
921,27	50,135
921,44	49,006
921,62	48,705
921,79	49,132
921,96	48,011
922,13	49,700
922,31	49,533
922,48	49,120
922,65	48,148
922,82	46,985
923,00	46,933
923,17	48,651
923,34	46,515
923,52	47,169
923,69	46,944
923,86	47,199
924,03	45,618
924,21	45,930
924,38	45,816
924,55	47,180
924,72	45,643
924,90	46,242
925,07	47,522
925,24	45,671
925,41	45,489
925,59	46,364
925,76	45,424
925,93	46,128
926,10	45,935
926,28	45,280
926,45	46,593
926,62	46,517
926,79	45,784
926,96	45,766
927,14	46,683
927,31	46,540
927,48	46,051
927,65	45,937
927,83	47,081
928,00	47,093
928,17	44,792
928,34	47,433
928,51	47,305
928,69	47,939
928,86	47,716
929,03	48,098
929,20	49,217
929,37	49,016
929,55	48,728
929,72	49,752
929,89	49,622
930,06	49,338
930,23	48,902
930,41	50,303
930,58	51,056
930,75	49,343
930,92	52,077
931,09	51,192
931,27	52,816
931,44	53,253
931,61	50,196
931,78	54,048
931,95	52,760
932,12	50,763
932,30	53,351
932,47	53,233
932,64	50,770
932,81	51,454
932,98	51,667
933,16	51,179
933,33	51,887
933,50	50,786
933,67	51,072
933,84	49,663
934,01	48,786
934,18	48,974
934,36	47,782
934,53	48,328
934,70	47,501
934,87	47,685
935,04	47,345
935,21	46,411
935,38	45,519
935,56	44,504
935,73	45,425
935,90	42,734
936,07	42,350
936,24	43,482
936,41	41,403
936,58	40,856
936,76	40,818
936,93	40,322
937,10	40,600
937,27	40,483
937,44	40,842
937,61	39,207
937,78	38,650
937,95	39,046
938,13	38,912
938,30	38,797
938,47	38,490
938,64	38,107
938,81	37,926
938,98	38,208
939,15	38,584
939,32	39,062
939,49	38,976
939,66	37,429
939,84	39,154
940,01	38,593
940,18	38,744
940,35	39,098
940,52	38,822
940,69	39,979
940,86	40,305
941,03	41,461
941,20	40,245
941,37	39,657
941,54	39,962
941,71	38,756
941,89	39,943
942,06	40,265
942,23	40,858
942,40	40,853
942,57	41,102
942,74	41,753
942,91	40,396
943,08	42,801
943,25	43,103
943,42	43,186
943,59	42,628
943,76	43,787
943,93	41,960
944,10	42,343
944,27	44,053
944,44	43,155
944,61	42,109
944,79	43,437
944,96	41,825
945,13	42,900
945,30	42,594
945,47	42,558
945,64	43,437
945,81	42,607
945,98	42,967
946,15	42,158
946,32	39,331
946,49	41,749
946,66	41,094
946,83	39,917
947,00	39,950
947,17	39,028
947,34	39,599
947,51	38,560
947,68	39,278
947,85	37,787
948,02	37,333
948,19	36,701
948,36	37,889
948,53	33,333
948,70	34,991
948,87	32,946
949,04	34,578
949,21	33,370
949,38	32,334
949,55	29,526
949,72	31,305
949,89	31,824
950,06	29,675
950,23	30,612
950,40	27,714
950,57	26,702
950,74	27,517
950,91	27,558
951,08	28,362
951,25	26,621
951,42	26,443
951,59	24,756
951,76	24,502
951,93	24,342
952,10	25,077
952,27	24,678
952,44	24,739
952,61	26,647
952,77	25,000
952,94	23,262
953,11	24,036
953,28	24,421
953,45	25,116
953,62	25,042
953,79	24,557
953,96	25,433
954,13	24,991
954,30	23,449
954,47	22,841
954,64	26,324
954,81	25,169
954,98	26,993
955,15	24,586
955,32	26,504
955,49	26,207
955,65	27,413
955,82	26,498
955,99	25,503
956,16	25,957
956,33	25,850
956,50	27,130
956,67	28,109
956,84	27,259
957,01	27,802
957,18	31,333
957,35	33,070
957,52	27,816
957,68	30,109
957,85	30,143
958,02	31,257
958,19	30,338
958,36	30,765
958,53	32,830
958,70	32,426
958,87	35,853
959,04	35,217
959,21	35,995
959,37	39,946
959,54	35,488
959,71	36,073
959,88	35,997
960,05	36,377
960,22	39,832
960,39	37,520
960,56	40,467
960,72	41,631
960,89	43,277
961,06	41,674
961,23	39,825
961,40	45,164
961,57	36,532
961,74	42,002
961,90	43,909
962,07	47,217
962,24	48,952
962,41	41,935
962,58	45,931
962,75	45,799
962,92	42,841
963,08	44,960
963,25	48,460
963,42	50,980
963,59	49,819
963,76	47,429
963,93	44,942
964,10	45,490
964,26	43,925
964,43	50,546
964,60	48,225
964,77	51,302
964,94	52,615
965,10	54,575
965,27	51,182
965,44	55,000
965,61	47,876
965,78	62,390
965,95	42,367
966,11	51,357
966,28	55,824
966,45	48,381
966,62	49,573
966,79	54,878
966,95	47,845
967,12	62,679
967,29	55,841
967,46	44,130
967,63	49,877
967,79	46,467
967,96	37,008
968,13	61,442
968,30	47,268
968,47	63,852
968,63	49,704
968,80	61,724
968,97	64,000
969,14	53,982
969,31	55,128
969,47	59,937
969,64	67,987
969,81	66,667
969,98	56,140
970,14	64,444
970,31	70,968
970,48	56,228
970,65	76,056
970,81	52,041
970,98	65,543
971,15	63,594
971,32	50,000
971,48	48,162
971,65	60,504
971,82	65,306
971,99	55,721
972,15	86,316
972,32	53,909
972,49	51,931
972,66	50,885
972,82	56,931
972,99	45,957
973,16	71,649
973,33	68,571
973,49	88,889
973,66	71,429
973,83	61,905
974,00	63,115
974,16	74,214
974,33	101,220
974,50	74,306
974,67	71,579
974,83	61,582
975,00	70,290
975,17	91,837
975,33	82,609
975,50	84,242
975,67	82,143
975,84	77,305
976,00	50,769
976,17	79,412
976,34	55,319
976,50	60,870
976,67	80,172
976,84	124,359
977,00	66,165
977,17	87,402
977,34	93,548
977,50	105,319
977,67	71,053
977,84	85,455
978,01	124,138
978,17	138,462
978,34	34,375
978,51	69,697
978,67	79,121
978,84	111,458
979,01	55,385
979,17	130,303
979,34	356,250
979,51	140,385
979,67	97,500
979,84	104,762
980,01	77,049
980,17	21,176
980,34	82,609
980,51	154,545
980,67	89,333
980,84	84,483
981,01	38,462
981,17	100,000
981,34	350,000
981,50	72,059
981,67	163,793
981,84	53,448
982,00	97,826
982,17	272,727
982,34	102,564
982,50	263,158
982,67	76,852
982,84	78,571
983,00	126,000
983,17	100,000
983,33	130,645
983,50	48,913
983,67	86,957
983,83	233,333
984,00	143,750
984,17	135,000
984,33	105,405
984,50	67,708
984,66	46,429
984,83	54,651
985,00	170,492
985,16	133,333
985,33	381,250
985,49	224,138
985,66	100,000
985,83	70,175
985,99	62,162
986,16	212,000
986,32	72,464
986,49	400,000
986,66	32,558
986,82	115,789
986,99	128,571
987,15	89,655
987,32	118,519
987,49	125,000
987,65	500,000
987,82	76,471
987,98	164,706
988,15	217,857
988,31	120,000
988,48	-50,000
988,65	318,519
988,81	132,609
988,98	275,000
989,14	73,469
989,31	190,000
989,47	43,902
989,64	38,571
989,80	246,667
989,97	152,941
990,14	47,826
990,30	110,000
990,47	102,439
990,63	300,000
990,80	200,000
990,96	366,667
991,13	27,778
991,29	147,059
991,46	78,431
991,62	114,706
991,79	101,754
991,95	205,000
992,12	113,953
992,29	204,000
992,45	-184,615
992,62	-360,000
992,78	-125,926
992,95	50,000
993,11	270,000
993,28	9,877
993,44	326,087
993,61	966,667
993,77	1060,000
993,94	162,791
994,10	300,000
994,27	-20,000
994,43	379,412
994,60	-6,061
994,76	347,368
994,93	145,455
995,09	-175,676
995,26	22,222
995,42	98,305
995,59	121,429
995,75	156,250
995,92	131,818
996,08	158,333
996,25	155,556
996,41	112,500
996,58	194,595
996,74	410,000
996,91	305,556
997,07	203,846
997,23	155,319
997,40	1633,333
997,56	113,333
997,73	0,000
997,89	207,407
998,06	-86,275
998,22	-800,000
998,39	278,261
998,55	-212,500
998,72	225,000
998,88	2600,000
999,05	-338,462
999,21	152,174
999,37	-2200,000
999,54	-2150,000
999,70	207,692
999,87	-68,750
1000,03	125,000
1000,20	16,667
1000,36	3100,000
1000,52	433,333
1000,69	115,909
1000,85	94,828
1001,02	98,462
1001,18	136,364
1001,35	-131,111
1001,51	-121,429
1001,67	-18,667
1001,84	900,000
1002,00	97,500
1002,17	227,273
1002,33	-88,235
1002,50	100,000
1002,66	4400,000
1002,82	265,714
1002,99	-53,846
1003,15	104,348
1003,32	161,290
1003,48	-660,000
1003,64	80,000
1003,81	-307,143
1003,97	77,273
1004,14	1233,333
1004,30	-714,286
1004,46	425,000
1004,63	310,526
1004,79	126,667
1004,95	73,529
1005,12	-671,429
1005,28	158,621
1005,45	173,077
1005,61	-933,333
1005,77	142,105
1005,94	177,419
1006,10	-2200,000
1006,26	60,714
1006,43	211,111
1006,59	11,111
1006,76	20,000
1006,92	960,000
1007,08	480,000
1007,25	-86,111
1007,41	-233,333
1007,57	-137,500
1007,74	-52,174
1007,90	-20,000
1008,06	168,571
1008,23	175,926
1008,39	4500,000
1008,55	-550,000
1008,72	368,750
1008,88	106,000
1009,04	264,000
1009,21	-76,471
1009,37	-137,500
1009,53	-357,895
1009,70	15,385
1009,86	152,273
1010,02	138,462
1010,19	0,000
1010,35	425,000
1010,51	377,778
1010,68	850,000
1010,84	-1800,000
1011,00	177,778
1011,17	-960,000
1011,33	264,706
1011,49	218,750
1011,66	143,478
1011,82	-130,189
1011,98	11,364
1012,14	125,758
1012,31	-1020,000
1012,47	666,667
1012,63	722,222
1012,80	168,000
1012,96	45,455
1013,12	65,116
1013,29	84,211
1013,45	35,556
1013,61	144,444
1013,77	55,556
1013,94	78,125
1014,10	-30,303
1014,26	2550,000
1014,43	-130,303
1014,59	-412,500
1014,75	-300,000
1014,91	1800,000
1015,08	166,667
1015,24	-433,333
1015,40	-200,000
1015,56	83,333
1015,73	213,333
1015,89	166,667
1016,05	700,000
1016,21	-122,222
1016,38	820,000
1016,54	-130,769
1016,70	7,407
1016,86	133,333
1017,03	69,231
1017,19	195,652
1017,35	-115,385
1017,51	222,857
1017,68	590,909
1017,84	5900,000
1018,00	514,286
1018,16	150,000
1018,33	-900,000
1018,49	165,854
1018,65	-73,529
1018,81	125,000
1018,97	-675,000
1019,14	-3,333
1019,30	209,375
1019,46	322,222
1019,62	340,000
1019,79	466,667
1019,95	97,917
1020,11	-614,286
1020,27	633,333
1020,43	-357,143
1020,60	-257,895
1020,76	-38,889
1020,92	428,571
1021,08	1200,000
1021,24	500,000
1021,41	-123,529
1021,57	381,818
1021,73	-425,000
1021,89	-164,286
1022,05	775,000
1022,21	156,410
1022,38	160,000
1022,54	800,000
1022,70	-109,091
1022,86	2300,000
1023,02	-188,235
1023,19	-622,222
1023,35	164,516
1023,51	139,286
1023,67	45,833
1023,83	1866,667
1023,99	188,889
1024,16	102,381
1024,32	-64,000
1024,48	313,636
1024,64	344,444
1024,80	-172,222
1024,96	106,897
1025,12	42,857
1025,29	146,429
1025,45	161,111
1025,61	-666,667
1025,77	-83,871
1025,93	120,000
1026,09	78,049
1026,26	-100,000
1026,42	-81,250
1026,58	-152,174
1026,74	212,500
1026,90	316,667
1027,06	-5,128
1027,22	-156,522
1027,38	145,652
1027,55	1233,333
1027,71	266,667
1027,87	-112,500
1028,03	-106,250
1028,19	-135,294
1028,35	-571,429
1028,51	340,000
1028,67	135,294
1028,83	68,889
1029,00	362,500
1029,16	89,189
1029,32	107,143
1029,48	28,571
1029,64	-346,154
1029,80	150,000
1029,96	800,000
1030,12	178,947
1030,28	-400,000
1030,44	820,000
1030,61	250,000
1030,77	-533,333
1030,93	-487,500
1031,09	1400,000
1031,25	0,000
1031,41	260,000
1031,57	-1475,000
1031,73	-1650,000
1031,89	-90,909
1032,05	-44,186
1032,21	-72,727
1032,37	155,357
1032,53	6,897
1032,69	130,769
1032,86	33,333
1033,02	100,000
1033,18	183,333
1033,34	-1900,000
1033,50	462,500
1033,66	-32,000
1033,82	566,667
1033,98	2300,000
1034,14	-150,000
1034,30	13,333
1034,46	126,471
1034,62	166,667
1034,78	-217,391
1034,94	116,129
1035,10	-161,538
1035,26	488,889
1035,42	-60,000
1035,58	400,000
1035,74	125,676
1035,90	443,750
1036,06	105,882
1036,22	148,485
1036,38	-218,750
1036,54	-356,250
1036,70	129,032
1036,86	-10,000
1037,02	-121,429
1037,18	-11,765
1037,34	488,889
1037,50	-380,000
1037,66	-900,000
1037,82	319,048
1037,98	287,500
1038,14	-1300,000
1038,30	120,690
1038,46	-442,857
1038,62	466,667
1038,78	-342,857
1038,94	440,000
1039,10	176,000
1039,26	-141,667
1039,42	136,957
1039,58	-1250,000
1039,74	-250,000
1039,90	-125,000
1040,06	-15,385
>>>>>End Processed Spectral Data<<<<<
