SpectraSuite Data File
++++++++++++++++++++++++++++++++++++
Date: Tue Jan 31 19:12:12 EET 2017
User: optolab
Dark Spectrum Present: Yes
Reference Spectrum Present: Yes
Number of Sampled Component Spectra: 1
Spectrometers: USB4C02475
Integration Time (usec): 100000 (USB4C02475)
Spectra Averaged: 1 (USB4C02475)
Boxcar Smoothing: 0 (USB4C02475)
Correct for Electrical Dark: No (USB4C02475)
Strobe/Lamp Enabled: No (USB4C02475)
Correct for Detector Non-linearity: No (USB4C02475)
Correct for Stray Light: No (USB4C02475)
Number of Pixels in Processed Spectrum: 3648
>>>>>Begin Processed Spectral Data<<<<<
344,91	161,538
345,13	161,538
345,35	161,538
345,57	0,000
345,79	783,333
346,00	30,000
346,22	-188,889
346,44	476,923
346,66	900,000
346,87	483,333
347,09	-11,111
347,31	-1500,000
347,53	266,667
347,74	-284,615
347,96	357,143
348,18	1866,667
348,40	-7,143
348,61	157,143
348,83	126,829
349,05	132,143
349,27	336,842
349,48	167,308
349,70	282,353
349,92	107,317
350,14	522,222
350,35	134,146
350,57	191,429
350,79	123,529
351,01	161,538
351,22	425,000
351,44	-300,000
351,66	130,769
351,87	151,282
352,09	184,848
352,31	312,500
352,53	195,556
352,74	304,762
352,96	90,698
353,18	140,741
353,40	102,174
353,61	193,333
353,83	583,333
354,05	27,273
354,26	332,143
354,48	-1525,000
354,70	219,512
354,92	124,242
355,13	141,176
355,35	0,000
355,57	69,444
355,78	138,235
356,00	61,765
356,22	900,000
356,44	-15,385
356,65	107,576
356,87	207,143
357,09	303,333
357,30	109,524
357,52	132,143
357,74	-3550,000
357,95	820,000
358,17	1133,333
358,39	170,588
358,60	260,000
358,82	223,529
359,04	-37,500
359,26	118,750
359,47	139,130
359,69	-70,270
359,91	26,923
360,12	330,769
360,34	84,466
360,56	293,103
360,77	814,286
360,99	57,692
361,21	337,500
361,42	175,000
361,64	369,231
361,86	222,917
362,07	151,923
362,29	102,941
362,51	169,231
362,72	82,432
362,94	352,381
363,16	270,000
363,37	51,613
363,59	193,103
363,81	-133,333
364,02	45,882
364,24	386,957
364,46	108,108
364,67	200,000
364,89	275,000
365,11	2450,000
365,32	151,807
365,54	542,857
365,76	68,966
365,97	364,286
366,19	525,000
366,41	384,615
366,62	147,368
366,84	215,789
367,05	70,769
367,27	-466,667
367,49	309,756
367,70	1037,500
367,92	93,548
368,14	2950,000
368,35	139,437
368,57	76,923
368,79	67,647
369,00	0,000
369,22	508,333
369,43	286,364
369,65	131,343
369,87	94,366
370,08	957,143
370,30	152,941
370,51	79,630
370,73	125,000
370,95	47,619
371,16	1016,667
371,38	134,091
371,60	230,769
371,81	210,811
372,03	563,158
372,24	718,182
372,46	60,976
372,68	145,313
372,89	217,143
373,11	152,381
373,32	126,667
373,54	120,000
373,76	121,277
373,97	58,065
374,19	155,405
374,40	277,778
374,62	-800,000
374,84	396,000
375,05	210,811
375,27	128,302
375,48	86,047
375,70	95,455
375,92	216,667
376,13	100,000
376,35	1733,333
376,56	66,667
376,78	91,667
376,99	111,688
377,21	-3700,000
377,43	125,000
377,64	165,789
377,86	239,130
378,07	80,000
378,29	-67,742
378,51	207,692
378,72	151,111
378,94	82,353
379,15	234,286
379,37	221,429
379,58	110,714
379,80	261,538
380,01	637,500
380,23	178,947
380,45	130,769
380,66	183,333
380,88	-1450,000
381,09	95,714
381,31	128,986
381,52	50,000
381,74	92,537
381,95	129,268
382,17	96,667
382,39	300,000
382,60	146,154
382,82	171,429
383,03	161,538
383,25	101,282
383,46	53,659
383,68	151,786
383,89	620,000
384,11	127,273
384,32	-587,500
384,54	188,889
384,76	6900,000
384,97	119,753
385,19	91,667
385,40	68,750
385,62	177,778
385,83	189,189
386,05	106,977
386,26	105,405
386,48	132,000
386,69	92,453
386,91	182,353
387,12	145,833
387,34	129,412
387,55	115,909
387,77	119,048
387,98	-714,286
388,20	180,645
388,41	266,667
388,63	216,279
388,84	118,462
389,06	125,641
389,27	228,571
389,49	181,250
389,70	71,429
389,92	120,313
390,13	-156,522
390,35	150,000
390,56	84,848
390,78	109,677
390,99	1066,667
391,21	141,071
391,42	131,148
391,64	129,630
391,85	28,333
392,07	72,000
392,28	75,000
392,50	138,596
392,71	162,963
392,93	140,541
393,14	-157,895
393,36	246,875
393,57	94,118
393,79	84,848
394,00	107,273
394,22	45,455
394,43	120,000
394,65	1525,000
394,86	100,000
395,08	86,301
395,29	111,628
395,50	406,250
395,72	111,111
395,93	135,417
396,15	147,887
396,36	124,528
396,58	114,815
396,79	107,273
397,01	78,313
397,22	183,333
397,44	-480,000
397,65	55,263
397,87	35,897
398,08	56,000
398,29	181,250
398,51	125,000
398,72	68,000
398,94	98,649
399,15	75,510
399,37	52,564
399,58	270,968
399,80	81,250
400,01	52,174
400,22	81,633
400,44	360,000
400,65	360,000
400,87	126,230
401,08	102,632
401,30	100,000
401,51	103,030
401,72	127,907
401,94	66,129
402,15	45,763
402,37	209,091
402,58	182,222
402,80	67,857
403,01	65,957
403,22	106,667
403,44	63,750
403,65	-181,818
403,87	187,179
404,08	70,769
404,30	-79,310
404,51	92,857
404,72	123,171
404,94	138,571
405,15	84,058
405,37	106,944
405,58	186,364
405,79	69,620
406,01	85,981
406,22	17,073
406,44	56,122
406,65	63,014
406,86	23,232
407,08	211,111
407,29	49,438
407,51	63,265
407,72	112,963
407,93	60,403
408,15	70,270
408,36	66,667
408,58	78,049
408,79	86,022
409,00	94,318
409,22	103,297
409,43	50,562
409,64	24,561
409,86	40,426
410,07	19,444
410,29	91,011
410,50	43,836
410,71	81,395
410,93	40,000
411,14	60,156
411,35	50,000
411,57	43,689
411,78	33,175
412,00	44,068
412,21	26,012
412,42	31,373
412,64	31,481
412,85	48,705
413,06	32,195
413,28	26,857
413,49	16,477
413,70	37,545
413,92	20,599
414,13	23,166
414,34	5,023
414,56	15,484
414,77	20,455
414,98	22,388
415,20	22,365
415,41	8,464
415,63	0,610
415,84	28,221
416,05	19,903
416,27	20,773
416,48	21,500
416,69	16,184
416,91	19,715
417,12	10,297
417,33	9,739
417,55	8,370
417,76	15,385
417,97	14,513
418,19	9,756
418,40	7,623
418,61	12,521
418,83	8,065
419,04	14,472
419,25	10,948
419,46	5,189
419,68	11,698
419,89	7,122
420,10	7,161
420,32	8,745
420,53	5,144
420,74	10,495
420,96	7,560
421,17	7,184
421,38	3,403
421,60	8,849
421,81	11,183
422,02	9,192
422,23	7,301
422,45	7,427
422,66	5,932
422,87	3,228
423,09	5,140
423,30	5,528
423,51	7,179
423,73	3,954
423,94	6,575
424,15	4,471
424,36	5,071
424,58	4,984
424,79	4,808
425,00	8,168
425,22	6,836
425,43	4,498
425,64	3,370
425,85	4,877
426,07	4,204
426,28	6,067
426,49	4,339
426,71	2,102
426,92	5,848
427,13	2,365
427,34	4,566
427,56	4,405
427,77	4,125
427,98	1,370
428,19	0,657
428,41	2,977
428,62	1,489
428,83	2,369
429,04	2,267
429,26	2,619
429,47	3,561
429,68	2,025
429,89	2,284
430,11	3,628
430,32	2,811
430,53	1,078
430,74	1,535
430,96	2,214
431,17	2,364
431,38	1,159
431,59	3,165
431,81	1,599
432,02	2,474
432,23	1,421
432,44	2,466
432,66	2,014
432,87	1,302
433,08	2,263
433,29	1,008
433,51	2,286
433,72	1,336
433,93	1,814
434,14	0,795
434,35	2,642
434,57	0,835
434,78	1,501
434,99	2,031
435,20	0,920
435,42	1,944
435,63	1,656
435,84	1,848
436,05	1,265
436,26	1,257
436,48	1,388
436,69	1,278
436,90	1,123
437,11	1,569
437,32	1,831
437,54	1,711
437,75	1,534
437,96	2,161
438,17	2,305
438,38	1,750
438,60	1,930
438,81	2,271
439,02	2,565
439,23	3,255
439,44	4,753
439,66	5,690
439,87	6,799
440,08	8,876
440,29	10,292
440,50	13,603
440,72	16,404
440,93	18,992
441,14	22,680
441,35	26,057
441,56	29,527
441,77	31,832
441,99	34,239
442,20	36,760
442,41	38,774
442,62	40,443
442,83	41,947
443,04	43,291
443,26	44,974
443,47	45,033
443,68	46,803
443,89	46,939
444,10	46,712
444,31	47,055
444,53	47,193
444,74	48,310
444,95	48,775
445,16	50,803
445,37	53,246
445,58	57,645
445,80	62,859
446,01	67,580
446,22	75,143
446,43	80,635
446,64	85,071
446,85	88,223
447,06	89,641
447,28	92,739
447,49	91,780
447,70	90,899
447,91	93,066
448,12	91,746
448,33	93,158
448,54	93,427
448,76	95,087
448,97	95,218
449,18	95,558
449,39	95,184
449,60	95,514
449,81	96,167
450,02	96,022
450,23	96,617
450,45	98,476
450,66	99,159
450,87	97,825
451,08	97,448
451,29	98,687
451,50	98,281
451,71	98,343
451,92	98,381
452,13	97,961
452,35	96,990
452,56	97,650
452,77	96,456
452,98	97,515
453,19	97,284
453,40	98,192
453,61	97,775
453,82	97,641
454,03	98,720
454,25	96,959
454,46	97,992
454,67	99,076
454,88	99,922
455,09	98,792
455,30	99,304
455,51	99,274
455,72	99,864
455,93	98,042
456,14	97,380
456,35	96,473
456,56	96,099
456,78	95,666
456,99	95,164
457,20	93,908
457,41	94,442
457,62	92,466
457,83	91,747
458,04	93,982
458,25	92,521
458,46	95,094
458,67	94,026
458,88	95,992
459,09	96,264
459,30	97,209
459,51	98,034
459,73	96,800
459,94	98,405
460,15	98,108
460,36	98,204
460,57	99,031
460,78	98,230
460,99	99,612
461,20	99,026
461,41	97,946
461,62	99,499
461,83	98,653
462,04	99,100
462,25	98,611
462,46	98,927
462,67	98,821
462,88	100,047
463,09	98,716
463,30	98,558
463,51	98,441
463,72	98,927
463,93	99,568
464,15	98,520
464,36	99,119
464,57	99,024
464,78	99,249
464,99	99,606
465,20	98,184
465,41	99,278
465,62	99,571
465,83	99,231
466,04	99,741
466,25	99,170
466,46	98,678
466,67	98,924
466,88	98,841
467,09	98,732
467,30	99,040
467,51	98,204
467,72	98,653
467,93	96,734
468,14	98,313
468,35	98,067
468,56	96,920
468,77	97,047
468,98	96,699
469,19	97,384
469,40	97,829
469,61	98,755
469,82	98,115
470,03	98,460
470,24	99,081
470,45	99,625
470,66	100,242
470,87	99,207
471,08	100,382
471,29	100,166
471,50	100,419
471,71	100,130
471,92	99,749
472,13	100,475
472,34	100,020
472,55	99,642
472,76	99,107
472,97	98,817
473,18	99,452
473,39	98,509
473,60	98,851
473,81	98,369
474,01	97,097
474,22	98,573
474,43	97,649
474,64	98,761
474,85	99,712
475,06	99,688
475,27	100,254
475,48	100,346
475,69	99,649
475,90	100,347
476,11	101,296
476,32	102,569
476,53	101,263
476,74	101,999
476,95	101,633
477,16	102,518
477,37	101,485
477,58	101,256
477,79	101,271
478,00	101,438
478,21	101,515
478,41	101,760
478,62	102,442
478,83	100,833
479,04	100,846
479,25	101,482
479,46	101,580
479,67	100,718
479,88	100,541
480,09	99,430
480,30	99,606
480,51	99,790
480,72	100,131
480,93	99,412
481,14	99,511
481,34	99,431
481,55	98,868
481,76	98,534
481,97	98,095
482,18	98,612
482,39	96,689
482,60	96,990
482,81	96,965
483,02	97,180
483,23	97,297
483,44	97,295
483,65	97,766
483,85	97,964
484,06	97,074
484,27	96,737
484,48	96,454
484,69	98,307
484,90	96,786
485,11	96,783
485,32	97,610
485,53	97,203
485,73	95,517
485,94	95,851
486,15	95,663
486,36	95,317
486,57	93,119
486,78	94,761
486,99	92,984
487,20	93,868
487,41	92,775
487,61	91,541
487,82	89,572
488,03	89,834
488,24	86,325
488,45	84,461
488,66	82,564
488,87	79,187
489,08	75,224
489,28	70,725
489,49	65,840
489,70	60,834
489,91	55,383
490,12	50,249
490,33	45,333
490,54	39,152
490,74	33,403
490,95	27,647
491,16	23,355
491,37	18,820
491,58	15,059
491,79	11,744
492,00	8,449
492,20	6,660
492,41	5,019
492,62	3,338
492,83	2,664
493,04	2,104
493,25	1,196
493,45	0,977
493,66	0,943
493,87	0,683
494,08	0,599
494,29	0,677
494,50	0,638
494,70	0,444
494,91	0,620
495,12	0,547
495,33	0,560
495,54	0,399
495,75	0,516
495,95	0,477
496,16	0,582
496,37	0,689
496,58	0,525
496,79	0,522
496,99	0,460
497,20	0,354
497,41	0,594
497,62	0,526
497,83	0,219
498,04	0,420
498,24	0,454
498,45	0,438
498,66	0,282
498,87	0,520
499,08	0,441
499,28	0,430
499,49	0,486
499,70	0,501
499,91	0,305
500,12	0,382
500,32	0,374
500,53	0,464
500,74	0,333
500,95	0,256
501,15	0,456
501,36	0,412
501,57	0,125
501,78	0,425
501,99	0,210
502,19	0,368
502,40	0,513
502,61	0,329
502,82	0,460
503,02	0,457
503,23	0,427
503,44	0,355
503,65	0,487
503,86	0,351
504,06	0,436
504,27	0,465
504,48	0,503
504,69	0,461
504,89	0,386
505,10	0,367
505,31	0,169
505,52	0,455
505,72	0,399
505,93	0,576
506,14	0,393
506,35	0,243
506,55	0,344
506,76	0,289
506,97	0,417
507,18	0,380
507,38	0,235
507,59	0,280
507,80	0,476
508,01	0,446
508,21	0,609
508,42	0,436
508,63	0,510
508,84	0,454
509,04	0,302
509,25	0,540
509,46	0,306
509,67	0,419
509,87	0,183
510,08	0,211
510,29	0,262
510,49	0,271
510,70	0,390
510,91	0,284
511,12	0,528
511,32	0,266
511,53	0,397
511,74	0,390
511,94	0,352
512,15	0,473
512,36	0,327
512,57	0,516
512,77	0,241
512,98	0,527
513,19	0,249
513,39	0,435
513,60	0,346
513,81	0,368
514,01	0,429
514,22	0,287
514,43	0,318
514,64	0,217
514,84	0,494
515,05	0,408
515,26	0,524
515,46	0,493
515,67	0,500
515,88	0,188
516,08	0,642
516,29	0,443
516,50	0,401
516,70	0,296
516,91	0,459
517,12	0,373
517,32	0,484
517,53	0,536
517,74	0,418
517,95	0,644
518,15	0,407
518,36	0,412
518,57	0,383
518,77	0,301
518,98	0,395
519,19	0,515
519,39	0,668
519,60	0,354
519,80	0,377
520,01	0,379
520,22	0,410
520,42	0,329
520,63	0,565
520,84	0,530
521,04	0,533
521,25	0,518
521,46	0,491
521,66	0,467
521,87	0,418
522,08	0,540
522,28	0,427
522,49	0,555
522,70	0,637
522,90	0,513
523,11	0,378
523,31	0,727
523,52	0,402
523,73	0,707
523,93	0,595
524,14	0,572
524,35	0,509
524,55	0,446
524,76	0,446
524,97	0,635
525,17	0,588
525,38	0,458
525,58	0,514
525,79	0,773
526,00	0,576
526,20	0,727
526,41	0,559
526,61	0,741
526,82	0,854
527,03	0,628
527,23	0,725
527,44	0,585
527,64	0,537
527,85	0,724
528,06	0,619
528,26	0,570
528,47	0,621
528,68	0,625
528,88	0,678
529,09	0,627
529,29	0,584
529,50	0,709
529,70	0,637
529,91	0,627
530,12	0,720
530,32	0,751
530,53	0,461
530,73	0,487
530,94	0,571
531,15	0,524
531,35	0,532
531,56	0,604
531,76	0,734
531,97	0,742
532,17	0,402
532,38	0,713
532,59	0,796
532,79	0,633
533,00	0,806
533,20	0,647
533,41	0,798
533,61	0,701
533,82	0,740
534,03	0,733
534,23	0,796
534,44	0,798
534,64	0,761
534,85	0,799
535,05	0,705
535,26	0,853
535,46	0,721
535,67	0,878
535,88	0,918
536,08	0,992
536,29	1,000
536,49	1,340
536,70	1,377
536,90	1,789
537,11	2,010
537,31	2,616
537,52	3,024
537,72	3,723
537,93	4,414
538,13	5,661
538,34	6,699
538,55	8,591
538,75	10,023
538,96	12,240
539,16	13,983
539,37	17,003
539,57	19,439
539,78	21,740
539,98	24,550
540,19	27,570
540,39	30,311
540,60	32,451
540,80	34,934
541,01	35,973
541,21	37,997
541,42	39,692
541,62	40,893
541,83	42,126
542,03	43,488
542,24	45,698
542,44	45,408
542,65	46,670
542,85	49,248
543,06	49,891
543,26	51,413
543,47	53,500
543,67	55,755
543,88	57,917
544,08	63,028
544,29	65,400
544,49	70,118
544,70	74,385
544,90	77,720
545,11	81,188
545,31	83,899
545,52	87,802
545,72	90,379
545,93	91,605
546,13	93,410
546,34	94,832
546,54	95,723
546,75	96,770
546,95	97,835
547,15	98,250
547,36	98,863
547,56	100,317
547,77	99,475
547,97	101,087
548,18	100,929
548,38	100,027
548,59	100,363
548,79	101,058
549,00	100,390
549,20	102,094
549,41	101,804
549,61	101,773
549,81	102,262
550,02	101,302
550,22	102,680
550,43	100,862
550,63	101,081
550,84	101,899
551,04	100,651
551,25	100,813
551,45	100,069
551,65	100,470
551,86	99,550
552,06	100,236
552,27	99,616
552,47	99,369
552,68	99,758
552,88	100,820
553,08	100,220
553,29	100,443
553,49	99,327
553,70	99,635
553,90	99,889
554,11	100,556
554,31	99,216
554,51	100,729
554,72	101,014
554,92	100,204
555,13	101,314
555,33	101,079
555,53	100,054
555,74	99,819
555,94	101,176
556,15	100,591
556,35	100,042
556,56	100,956
556,76	100,807
556,96	101,304
557,17	100,207
557,37	99,386
557,58	101,368
557,78	100,232
557,98	100,293
558,19	99,354
558,39	99,958
558,59	100,030
558,80	99,959
559,00	99,898
559,21	99,533
559,41	98,643
559,61	99,157
559,82	99,353
560,02	99,519
560,23	99,221
560,43	98,736
560,63	98,572
560,84	98,608
561,04	99,493
561,24	98,697
561,45	99,138
561,65	98,900
561,85	99,568
562,06	99,202
562,26	99,753
562,47	100,095
562,67	99,187
562,87	100,906
563,08	99,509
563,28	99,603
563,48	99,555
563,69	99,051
563,89	98,557
564,09	100,533
564,30	99,445
564,50	99,411
564,70	99,108
564,91	99,336
565,11	99,606
565,31	99,914
565,52	99,191
565,72	100,702
565,92	99,506
566,13	99,690
566,33	98,833
566,53	100,037
566,74	100,706
566,94	100,146
567,14	100,850
567,35	99,645
567,55	100,637
567,75	100,594
567,96	100,240
568,16	100,548
568,36	100,578
568,57	101,376
568,77	101,191
568,97	101,788
569,18	101,052
569,38	100,605
569,58	101,507
569,79	101,152
569,99	101,060
570,19	101,582
570,39	101,325
570,60	100,256
570,80	100,716
571,00	101,031
571,21	101,350
571,41	101,194
571,61	100,666
571,82	101,003
572,02	100,368
572,22	101,166
572,42	101,542
572,63	100,732
572,83	101,555
573,03	101,449
573,24	101,718
573,44	101,657
573,64	101,147
573,84	101,022
574,05	100,888
574,25	100,880
574,45	100,426
574,66	100,070
574,86	101,521
575,06	101,156
575,26	100,909
575,47	101,028
575,67	100,959
575,87	100,580
576,07	99,902
576,28	101,356
576,48	99,665
576,68	100,802
576,88	100,237
577,09	99,523
577,29	100,855
577,49	101,013
577,69	99,863
577,90	100,117
578,10	101,055
578,30	100,697
578,50	99,196
578,71	100,160
578,91	99,707
579,11	99,528
579,31	99,400
579,52	99,739
579,72	99,331
579,92	98,644
580,12	100,180
580,33	100,197
580,53	99,713
580,73	99,920
580,93	98,558
581,13	99,381
581,34	99,704
581,54	99,129
581,74	99,548
581,94	99,978
582,15	99,646
582,35	99,664
582,55	99,595
582,75	99,321
582,95	100,182
583,16	100,261
583,36	100,000
583,56	100,864
583,76	99,561
583,96	100,073
584,17	100,340
584,37	99,815
584,57	100,788
584,77	99,241
584,97	100,098
585,18	99,709
585,38	99,290
585,58	99,616
585,78	99,513
585,98	99,368
586,19	99,466
586,39	98,992
586,59	99,216
586,79	99,596
586,99	99,430
587,20	99,671
587,40	99,489
587,60	99,465
587,80	98,721
588,00	98,764
588,20	98,361
588,41	98,309
588,61	98,199
588,81	98,612
589,01	98,490
589,21	98,284
589,41	97,619
589,62	98,661
589,82	97,241
590,02	98,715
590,22	97,488
590,42	96,994
590,62	97,668
590,83	97,937
591,03	97,430
591,23	97,943
591,43	97,457
591,63	97,734
591,83	97,168
592,03	97,103
592,24	97,146
592,44	96,780
592,64	96,620
592,84	97,072
593,04	95,535
593,24	95,646
593,44	94,924
593,65	94,991
593,85	94,006
594,05	92,222
594,25	92,886
594,45	91,421
594,65	88,859
594,85	87,855
595,06	85,522
595,26	83,567
595,46	81,367
595,66	77,833
595,86	74,732
596,06	71,301
596,26	66,776
596,46	62,872
596,66	58,461
596,87	53,763
597,07	49,112
597,27	45,011
597,47	39,824
597,67	34,383
597,87	30,700
598,07	25,839
598,27	21,461
598,47	18,209
598,67	14,601
598,88	11,630
599,08	9,340
599,28	7,650
599,48	5,410
599,68	4,198
599,88	3,445
600,08	2,438
600,28	1,913
600,48	1,630
600,68	1,141
600,88	1,030
601,09	0,856
601,29	0,723
601,49	0,709
601,69	0,591
601,89	0,648
602,09	0,581
602,29	0,656
602,49	0,664
602,69	0,448
602,89	0,644
603,09	0,566
603,29	0,451
603,49	0,361
603,69	0,462
603,90	0,308
604,10	0,499
604,30	0,449
604,50	0,588
604,70	0,269
604,90	0,555
605,10	0,435
605,30	0,497
605,50	0,288
605,70	0,576
605,90	0,546
606,10	0,387
606,30	0,372
606,50	0,312
606,70	0,334
606,90	0,429
607,10	0,496
607,30	0,363
607,50	0,353
607,70	0,444
607,90	0,447
608,10	0,386
608,30	0,248
608,50	0,617
608,70	0,265
608,90	0,347
609,11	0,518
609,31	0,417
609,51	0,423
609,71	0,455
609,91	0,282
610,11	0,392
610,31	0,504
610,51	0,377
610,71	0,565
610,91	0,476
611,11	0,528
611,31	0,251
611,51	0,392
611,71	0,407
611,91	0,434
612,11	0,282
612,31	0,290
612,51	0,404
612,71	0,219
612,91	0,244
613,11	0,428
613,31	0,484
613,51	0,629
613,71	0,365
613,91	0,232
614,11	0,356
614,31	0,483
614,50	0,308
614,70	0,481
614,90	0,582
615,10	0,396
615,30	0,329
615,50	0,413
615,70	0,500
615,90	0,259
616,10	0,297
616,30	0,407
616,50	0,394
616,70	0,461
616,90	0,572
617,10	0,264
617,30	0,429
617,50	0,451
617,70	0,383
617,90	0,521
618,10	0,480
618,30	0,412
618,50	0,383
618,70	0,239
618,90	0,513
619,10	0,411
619,30	0,492
619,49	0,579
619,69	0,251
619,89	0,212
620,09	0,341
620,29	0,294
620,49	0,494
620,69	0,373
620,89	0,564
621,09	0,442
621,29	0,396
621,49	0,220
621,69	0,346
621,89	0,390
622,09	0,264
622,29	0,268
622,48	0,084
622,68	0,605
622,88	0,323
623,08	0,329
623,28	0,407
623,48	0,340
623,68	0,212
623,88	0,211
624,08	0,349
624,28	0,451
624,48	0,427
624,67	0,202
624,87	0,232
625,07	0,452
625,27	0,357
625,47	0,321
625,67	0,331
625,87	0,195
626,07	0,284
626,27	0,360
626,47	0,432
626,66	0,168
626,86	0,080
627,06	0,272
627,26	0,261
627,46	0,295
627,66	0,403
627,86	0,249
628,06	0,361
628,25	0,148
628,45	0,415
628,65	0,229
628,85	0,317
629,05	0,140
629,25	0,381
629,45	0,382
629,65	0,346
629,84	0,490
630,04	0,242
630,24	0,395
630,44	0,235
630,64	0,459
630,84	0,378
631,04	0,422
631,23	0,481
631,43	0,342
631,63	0,211
631,83	0,467
632,03	0,536
632,23	0,329
632,42	0,468
632,62	0,405
632,82	0,693
633,02	0,413
633,22	0,421
633,42	0,746
633,62	0,947
633,81	0,835
634,01	1,314
634,21	1,226
634,41	1,983
634,61	2,237
634,80	2,550
635,00	2,717
635,20	3,612
635,40	4,455
635,60	5,233
635,80	6,014
635,99	7,361
636,19	8,638
636,39	9,817
636,59	11,274
636,79	12,771
636,98	15,237
637,18	17,070
637,38	19,232
637,58	20,812
637,78	23,249
637,97	25,650
638,17	27,410
638,37	29,072
638,57	31,388
638,77	32,668
638,96	35,202
639,16	35,526
639,36	37,162
639,56	38,736
639,76	39,856
639,95	41,300
640,15	42,783
640,35	43,151
640,55	44,090
640,75	46,593
640,94	47,012
641,14	48,879
641,34	49,914
641,54	52,420
641,73	54,115
641,93	57,101
642,13	59,344
642,33	63,504
642,53	66,008
642,72	69,663
642,92	73,467
643,12	76,372
643,32	80,013
643,51	81,999
643,71	85,013
643,91	86,893
644,11	90,193
644,30	91,843
644,50	93,391
644,70	93,263
644,90	96,384
645,09	95,180
645,29	96,876
645,49	96,485
645,69	97,076
645,88	98,520
646,08	98,022
646,28	98,396
646,48	99,091
646,67	99,491
646,87	99,590
647,07	98,240
647,26	99,858
647,46	98,839
647,66	99,716
647,86	98,180
648,05	97,077
648,25	98,969
648,45	97,476
648,65	98,599
648,84	100,606
649,04	98,101
649,24	99,502
649,43	97,577
649,63	98,537
649,83	99,499
650,03	99,196
650,22	98,477
650,42	99,638
650,62	98,472
650,81	98,893
651,01	97,666
651,21	97,023
651,40	97,966
651,60	98,420
651,80	97,243
652,00	98,715
652,19	96,953
652,39	98,815
652,59	97,513
652,78	96,176
652,98	97,934
653,18	98,175
653,37	97,117
653,57	96,737
653,77	97,812
653,96	97,312
654,16	97,456
654,36	97,017
654,55	97,754
654,75	97,111
654,95	97,302
655,14	96,029
655,34	96,659
655,54	97,110
655,73	96,156
655,93	98,528
656,13	95,828
656,32	96,651
656,52	98,860
656,72	97,167
656,91	96,041
657,11	96,276
657,31	96,487
657,50	97,598
657,70	97,276
657,90	96,720
658,09	96,525
658,29	95,792
658,49	96,946
658,68	96,039
658,88	97,390
659,07	96,770
659,27	95,994
659,47	97,682
659,66	97,646
659,86	97,993
660,06	96,091
660,25	94,620
660,45	95,219
660,64	95,556
660,84	96,292
661,04	96,160
661,23	94,596
661,43	94,724
661,63	95,120
661,82	95,591
662,02	95,120
662,21	95,922
662,41	94,947
662,61	94,894
662,80	96,253
663,00	95,673
663,19	96,149
663,39	96,495
663,59	96,271
663,78	95,975
663,98	95,869
664,17	94,936
664,37	94,929
664,57	94,917
664,76	96,705
664,96	95,548
665,15	95,910
665,35	96,378
665,55	94,473
665,74	95,815
665,94	96,393
666,13	94,554
666,33	95,611
666,53	94,658
666,72	93,936
666,92	95,285
667,11	95,881
667,31	94,925
667,50	94,505
667,70	94,942
667,90	95,184
668,09	95,091
668,29	95,686
668,48	94,950
668,68	96,426
668,87	95,622
669,07	95,665
669,26	95,046
669,46	95,559
669,66	96,585
669,85	96,243
670,05	94,532
670,24	97,634
670,44	94,239
670,63	94,459
670,83	95,621
671,02	94,779
671,22	95,312
671,42	94,058
671,61	94,695
671,81	95,616
672,00	94,014
672,20	95,301
672,39	95,007
672,59	94,800
672,78	95,297
672,98	95,326
673,17	94,407
673,37	94,951
673,56	95,772
673,76	94,725
673,95	94,723
674,15	95,483
674,34	95,711
674,54	94,459
674,73	95,500
674,93	94,515
675,13	93,964
675,32	95,183
675,52	96,408
675,71	94,693
675,91	94,962
676,10	95,307
676,30	95,951
676,49	96,102
676,69	94,750
676,88	94,584
677,08	94,417
677,27	94,075
677,47	93,790
677,66	94,437
677,86	93,954
678,05	94,134
678,24	93,808
678,44	93,745
678,63	92,897
678,83	94,838
679,02	93,581
679,22	93,959
679,41	94,393
679,61	93,243
679,80	93,969
680,00	93,557
680,19	93,127
680,39	93,368
680,58	92,547
680,78	92,803
680,97	93,232
681,17	91,725
681,36	93,148
681,56	93,036
681,75	91,881
681,94	92,136
682,14	91,136
682,33	92,029
682,53	91,434
682,72	91,246
682,92	91,904
683,11	92,394
683,31	91,022
683,50	90,961
683,69	91,345
683,89	90,565
684,08	91,877
684,28	91,046
684,47	91,539
684,67	92,243
684,86	90,776
685,06	90,761
685,25	90,491
685,44	92,029
685,64	91,640
685,83	92,574
686,03	92,157
686,22	91,422
686,42	91,309
686,61	92,211
686,80	91,650
687,00	91,557
687,19	92,100
687,39	91,506
687,58	91,162
687,77	90,973
687,97	91,090
688,16	90,848
688,36	90,555
688,55	89,512
688,74	90,225
688,94	89,604
689,13	88,254
689,33	88,335
689,52	88,999
689,71	87,397
689,91	85,956
690,10	85,918
690,30	83,798
690,49	82,803
690,68	82,105
690,88	80,069
691,07	78,163
691,27	77,469
691,46	76,225
691,65	73,564
691,85	71,844
692,04	69,776
692,23	68,226
692,43	64,509
692,62	62,822
692,82	60,348
693,01	56,773
693,20	54,016
693,40	52,307
693,59	49,220
693,78	46,086
693,98	43,156
694,17	40,108
694,36	37,395
694,56	34,954
694,75	31,547
694,94	28,989
695,14	26,546
695,33	24,024
695,53	21,156
695,72	18,895
695,91	16,365
696,11	14,352
696,30	12,473
696,49	10,733
696,69	9,584
696,88	8,088
697,07	6,708
697,27	5,393
697,46	4,729
697,65	3,557
697,85	3,044
698,04	2,365
698,23	1,610
698,43	1,956
698,62	1,220
698,81	1,246
699,01	0,951
699,20	0,894
699,39	0,960
699,58	0,682
699,78	0,783
699,97	0,707
700,16	0,454
700,36	0,454
700,55	1,060
700,74	0,401
700,94	0,582
701,13	0,451
701,32	0,532
701,52	0,751
701,71	0,753
701,90	0,442
702,09	0,698
702,29	0,575
702,48	0,867
702,67	1,217
702,87	0,418
703,06	0,479
703,25	0,796
703,44	0,912
703,64	0,685
703,83	1,365
704,02	0,437
704,22	0,467
704,41	0,520
704,60	1,227
704,79	-0,121
704,99	0,930
705,18	0,737
705,37	1,152
705,56	0,475
705,76	1,111
705,95	1,420
706,14	1,095
706,33	1,093
706,53	1,059
706,72	1,484
706,91	0,804
707,11	0,703
707,30	0,846
707,49	2,300
707,68	1,995
707,88	-0,114
708,07	1,555
708,26	2,040
708,45	1,530
708,64	1,463
708,84	1,277
709,03	1,916
709,22	1,584
709,41	2,534
709,61	-0,696
709,80	1,705
709,99	0,799
710,18	1,129
710,38	3,428
710,57	1,285
710,76	1,862
710,95	1,627
711,14	2,554
711,34	1,388
711,53	0,841
711,72	1,429
711,91	1,165
712,11	1,803
712,30	2,951
712,49	2,515
712,68	1,313
712,87	0,156
713,07	2,753
713,26	1,977
713,45	1,401
713,64	1,556
713,83	2,243
714,03	0,387
714,22	0,392
714,41	1,743
714,60	1,964
714,79	1,304
714,99	3,308
715,18	1,035
715,37	1,501
715,56	2,952
715,75	2,412
715,94	0,865
716,14	-0,818
716,33	0,621
716,52	1,872
716,71	1,951
716,90	0,633
717,10	3,581
717,29	3,756
717,48	3,118
717,67	2,146
717,86	1,831
718,05	4,147
718,24	2,429
718,44	3,238
718,63	3,584
718,82	2,952
719,01	-0,123
719,20	0,721
719,39	3,394
719,59	2,533
719,78	0,000
719,97	5,025
720,16	0,630
720,35	4,954
720,54	4,234
720,73	3,112
720,93	2,019
721,12	2,161
721,31	4,665
721,50	5,611
721,69	2,475
721,88	2,851
722,07	3,715
722,27	-0,234
722,46	1,075
722,65	1,367
722,84	2,210
723,03	2,819
723,22	3,496
723,41	2,823
723,60	0,673
723,79	3,003
723,99	5,357
724,18	3,076
724,37	0,621
724,56	0,697
724,75	2,500
724,94	4,093
725,13	7,155
725,32	4,058
725,51	2,599
725,71	3,066
725,90	3,828
726,09	1,331
726,28	6,403
726,47	5,790
726,66	3,505
726,85	2,240
727,04	6,256
727,23	6,836
727,42	4,283
727,61	3,430
727,81	5,850
728,00	3,811
728,19	3,386
728,38	2,350
728,57	7,527
728,76	8,325
728,95	6,230
729,14	3,644
729,33	4,208
729,52	2,766
729,71	3,376
729,90	1,513
730,09	1,893
730,28	6,974
730,48	4,358
730,67	5,647
730,86	5,998
731,05	0,859
731,24	4,240
731,43	5,707
731,62	6,173
731,81	5,492
732,00	4,483
732,19	5,388
732,38	3,879
732,57	1,633
732,76	-3,134
732,95	8,344
733,14	8,226
733,33	5,694
733,52	1,355
733,71	2,527
733,90	3,043
734,09	3,738
734,28	6,168
734,47	-2,059
734,66	3,366
734,85	5,783
735,04	12,052
735,23	12,327
735,42	6,667
735,61	6,233
735,81	5,682
736,00	-1,955
736,19	2,849
736,38	4,511
736,57	1,741
736,76	0,736
736,95	5,263
737,14	11,810
737,33	4,361
737,52	2,584
737,71	9,146
737,90	3,994
738,09	7,931
738,28	-0,487
738,47	9,164
738,66	2,203
738,85	5,669
739,04	5,475
739,22	6,518
739,41	-2,269
739,60	1,975
739,79	15,453
739,98	12,241
740,17	8,277
740,36	-1,705
740,55	6,557
740,74	-0,558
740,93	7,420
741,12	9,862
741,31	1,840
741,50	6,446
741,69	2,588
741,88	12,259
742,07	2,650
742,26	7,075
742,45	-0,725
742,64	7,143
742,83	7,692
743,02	5,622
743,21	5,418
743,40	5,939
743,59	5,697
743,78	3,797
743,97	9,298
744,16	2,802
744,34	1,653
744,53	2,586
744,72	4,034
744,91	1,027
745,10	4,828
745,29	8,685
745,48	-1,310
745,67	7,778
745,86	10,166
746,05	6,488
746,24	6,034
746,43	7,483
746,62	9,073
746,81	4,739
747,00	8,542
747,18	-4,773
747,37	1,364
747,56	13,043
747,75	12,276
747,94	7,323
748,13	8,411
748,32	4,390
748,51	8,665
748,70	-0,480
748,89	11,828
749,08	16,995
749,26	0,000
749,45	2,108
749,64	10,078
749,83	11,548
750,02	4,558
750,21	1,302
750,40	1,319
750,59	3,723
750,78	7,229
750,96	19,701
751,15	-1,072
751,34	13,022
751,53	9,167
751,72	10,724
751,91	9,974
752,10	6,761
752,29	1,739
752,47	12,356
752,66	7,692
752,85	21,164
753,04	-4,865
753,23	21,086
753,42	17,955
753,61	15,198
753,80	-4,805
753,98	13,438
754,17	0,283
754,36	-2,614
754,55	6,515
754,74	15,946
754,93	0,000
755,12	17,846
755,30	-0,738
755,49	6,745
755,68	11,781
755,87	5,802
756,06	5,187
756,25	-3,630
756,43	13,669
756,62	-2,527
756,81	-1,176
757,00	17,857
757,19	21,166
757,38	13,029
757,56	12,162
757,75	4,198
757,94	-3,017
758,13	3,185
758,32	6,061
758,51	21,290
758,69	10,897
758,88	13,443
759,07	19,573
759,26	3,061
759,45	15,357
759,63	1,186
759,82	11,679
760,01	-6,250
760,20	5,474
760,39	16,858
760,57	-8,155
760,76	4,580
760,95	4,598
761,14	6,923
761,33	31,641
761,51	24,815
761,70	26,897
761,89	12,791
762,08	15,948
762,27	10,577
762,45	0,472
762,64	13,717
762,83	21,190
763,02	4,844
763,21	5,986
763,39	4,977
763,58	13,061
763,77	11,702
763,96	22,807
764,14	-7,054
764,33	28,571
764,52	5,804
764,71	19,212
764,89	8,108
765,08	32,210
765,27	18,317
765,46	3,636
765,65	7,614
765,83	20,952
766,02	3,297
766,21	13,080
766,40	41,860
766,58	12,670
766,77	-16,384
766,96	18,974
767,15	17,391
767,33	16,827
767,52	0,000
767,71	15,556
767,90	5,833
768,08	18,884
768,27	-6,047
768,46	16,190
768,64	21,359
768,83	29,730
769,02	9,524
769,21	0,000
769,39	-8,725
769,58	24,000
769,77	14,130
769,96	13,907
770,14	9,924
770,33	-10,160
770,52	1,923
770,70	11,881
770,89	8,673
771,08	22,917
771,27	-1,031
771,45	20,231
771,64	14,474
771,83	36,559
772,01	9,160
772,20	31,818
772,39	19,108
772,57	23,437
772,76	11,034
772,95	13,198
773,14	17,442
773,32	-1,648
773,51	35,814
773,70	0,000
773,88	40,704
774,07	27,615
774,26	25,610
774,44	23,618
774,63	51,266
774,82	42,169
775,00	22,707
775,19	-1,149
775,38	6,667
775,56	50,000
775,75	-2,395
775,94	-20,149
776,12	23,333
776,31	19,760
776,50	20,000
776,68	17,284
776,87	6,993
777,06	17,123
777,24	-27,869
777,43	4,878
777,62	20,741
777,80	3,804
777,99	18,471
778,18	14,650
778,36	12,977
778,55	40,741
778,74	12,121
778,92	47,964
779,11	46,452
779,29	32,680
779,48	26,446
779,67	33,094
779,85	13,600
780,04	46,479
780,23	23,077
780,41	26,471
780,60	-9,942
780,79	35,417
780,97	30,000
781,16	42,400
781,34	9,848
781,53	3,846
781,72	35,185
781,90	58,654
782,09	0,000
782,28	44,715
782,46	14,634
782,65	23,776
782,83	9,160
783,02	-8,000
783,21	58,915
783,39	41,667
783,58	57,333
783,76	2,703
783,95	14,570
784,14	-2,105
784,32	-0,917
784,51	15,730
784,69	27,389
784,88	23,226
785,06	34,752
785,25	9,023
785,44	8,784
785,62	8,571
785,81	9,701
785,99	7,483
786,18	43,443
786,37	24,138
786,55	20,896
786,74	81,988
786,92	27,907
787,11	4,000
787,29	1,176
787,48	20,000
787,67	-18,367
787,85	-21,875
788,04	33,562
788,22	22,222
788,41	37,500
788,59	27,891
788,78	45,833
788,96	37,143
789,15	36,885
789,34	31,707
789,52	34,328
789,71	7,937
789,89	20,175
790,08	16,667
790,26	43,651
790,45	36,496
790,63	19,737
790,82	19,355
791,00	46,032
791,19	20,000
791,38	15,753
791,56	6,579
791,75	78,378
791,93	-13,725
792,12	8,333
792,30	42,763
792,49	28,972
792,67	36,429
792,86	-27,027
793,04	-4,762
793,23	48,684
793,41	39,355
793,60	6,329
793,78	46,309
793,97	31,034
794,15	24,183
794,34	26,531
794,52	42,636
794,71	30,247
794,89	31,429
795,08	34,615
795,26	32,000
795,45	41,489
795,63	9,434
795,82	35,294
796,00	9,231
796,19	81,818
796,37	20,339
796,56	-27,778
796,74	68,750
796,93	17,647
797,11	11,667
797,30	62,595
797,48	55,245
797,67	32,258
797,85	34,783
798,04	26,126
798,22	14,388
798,41	90,678
798,59	40,714
798,77	31,624
798,96	41,129
799,14	56,481
799,33	42,478
799,51	29,703
799,70	-4,396
799,88	38,532
800,07	21,583
800,25	49,618
800,44	7,921
800,62	29,496
800,80	6,818
800,99	24,359
801,17	33,793
801,36	13,542
801,54	45,736
801,73	25,758
801,91	12,360
802,10	7,059
802,28	2,362
802,46	21,774
802,65	50,993
802,83	23,967
803,02	37,245
803,20	34,746
803,39	20,183
803,57	11,972
803,75	31,429
803,94	24,324
804,12	25,466
804,31	41,346
804,49	32,258
804,67	19,820
804,86	49,068
805,04	22,481
805,23	55,474
805,41	-8,824
805,59	43,373
805,78	13,571
805,96	43,373
806,15	52,000
806,33	-9,489
806,51	47,436
806,70	-9,302
806,88	14,545
807,07	24,590
807,25	34,783
807,43	-24,444
807,62	38,281
807,80	35,976
807,99	43,885
808,17	18,056
808,35	22,642
808,54	7,263
808,72	28,846
808,90	22,764
809,09	19,708
809,27	61,165
809,46	15,888
809,64	31,214
809,82	25,517
810,01	43,548
810,19	20,909
810,37	39,773
810,56	15,894
810,74	49,057
810,92	7,042
811,11	19,632
811,29	24,845
811,48	-9,565
811,66	18,274
811,84	6,780
812,03	0,000
812,21	27,273
812,39	41,129
812,58	11,696
812,76	32,117
812,94	26,846
813,13	9,146
813,31	31,746
813,49	18,667
813,68	-9,836
813,86	14,103
814,04	46,847
814,23	24,615
814,41	0,685
814,59	13,725
814,78	47,651
814,96	25,698
815,14	16,583
815,33	42,975
815,51	15,748
815,69	12,214
815,87	6,452
816,06	38,806
816,24	20,915
816,42	3,571
816,61	3,086
816,79	21,387
816,97	39,103
817,16	33,929
817,34	-2,941
817,52	37,850
817,70	20,725
817,89	33,971
818,07	40,667
818,25	44,937
818,44	39,037
818,62	34,158
818,80	7,143
818,98	7,692
819,17	26,695
819,35	29,530
819,53	21,026
819,72	20,541
819,90	22,222
820,08	20,297
820,26	16,895
820,45	14,516
820,63	33,333
820,81	19,725
820,99	27,511
821,18	4,819
821,36	21,250
821,54	13,930
821,73	14,208
821,91	7,746
822,09	31,361
822,27	29,183
822,46	5,911
822,64	-3,158
822,82	9,137
823,00	31,414
823,19	32,381
823,37	15,385
823,55	21,941
823,73	34,831
823,91	-8,021
824,10	27,604
824,28	21,901
824,46	-27,632
824,64	21,402
824,83	1,422
825,01	23,529
825,19	15,721
825,37	11,765
825,56	25,954
825,74	19,481
825,92	30,350
826,10	20,264
826,28	6,642
826,47	13,619
826,65	23,022
826,83	32,456
827,01	18,898
827,19	32,946
827,38	22,097
827,56	19,000
827,74	1,422
827,92	24,878
828,10	16,319
828,29	16,236
828,47	7,664
828,65	26,953
828,83	10,127
829,01	0,901
829,20	23,846
829,38	10,656
829,56	11,111
829,74	24,231
829,92	13,360
830,10	0,429
830,29	25,670
830,47	4,851
830,65	24,686
830,83	15,646
831,01	-10,314
831,20	-3,285
831,38	6,189
831,56	16,140
831,74	16,271
831,92	15,751
832,10	12,658
832,29	21,201
832,47	25,532
832,65	20,000
832,83	16,456
833,01	8,157
833,19	3,693
833,37	17,325
833,56	23,512
833,74	19,672
833,92	17,230
834,10	13,253
834,28	17,073
834,46	8,671
834,64	31,467
834,83	4,816
835,01	14,099
835,19	6,028
835,37	16,667
835,55	10,482
835,73	2,825
835,91	8,260
836,09	7,895
836,28	0,610
836,46	9,440
836,64	13,911
836,82	15,385
837,00	-9,585
837,18	13,667
837,36	25,513
837,54	7,923
837,72	9,873
837,91	10,198
838,09	-1,515
838,27	6,736
838,45	18,356
838,63	10,986
838,81	4,559
838,99	0,000
839,17	-9,317
839,35	16,704
839,53	15,051
839,72	19,780
839,90	13,333
840,08	11,765
840,26	-2,625
840,44	12,468
840,62	0,809
840,80	21,978
840,98	11,857
841,16	11,413
841,34	13,943
841,52	0,217
841,70	-4,963
841,89	9,567
842,07	16,322
842,25	15,094
842,43	5,839
842,61	10,875
842,79	0,000
842,97	5,721
843,15	-2,923
843,33	11,111
843,51	6,957
843,69	13,281
843,87	20,565
844,05	9,935
844,23	0,416
844,41	21,869
844,59	8,506
844,77	8,247
844,95	6,277
845,13	-1,895
845,31	8,644
845,50	8,489
845,68	14,561
845,86	5,691
846,04	15,641
846,22	12,807
846,40	2,893
846,58	13,944
846,76	13,387
846,94	14,712
847,12	11,538
847,30	9,568
847,48	13,297
847,66	9,259
847,84	5,300
848,02	7,904
848,20	13,559
848,38	12,500
848,56	5,925
848,74	9,654
848,92	10,137
849,10	17,782
849,28	14,961
849,46	9,242
849,64	17,054
849,82	22,204
850,00	11,130
850,18	14,739
850,36	17,219
850,54	21,406
850,72	14,174
850,90	15,552
851,08	12,441
851,26	10,518
851,44	15,832
851,62	18,995
851,80	14,910
851,98	11,916
852,16	14,948
852,34	17,183
852,52	17,456
852,70	18,287
852,87	11,936
853,05	13,897
853,23	17,404
853,41	24,225
853,59	20,346
853,77	16,134
853,95	22,124
854,13	23,295
854,31	17,790
854,49	16,596
854,67	28,692
854,85	17,520
855,03	26,962
855,21	24,603
855,39	20,676
855,57	24,230
855,75	20,717
855,93	14,607
856,11	20,493
856,28	20,373
856,46	17,763
856,64	17,662
856,82	23,739
857,00	27,157
857,18	20,132
857,36	16,791
857,54	27,040
857,72	22,767
857,90	24,227
858,08	17,708
858,26	21,403
858,44	23,417
858,61	24,633
858,79	20,858
858,97	23,450
859,15	22,222
859,33	18,830
859,51	20,925
859,69	23,750
859,87	25,877
860,05	10,209
860,23	20,838
860,40	14,426
860,58	13,984
860,76	16,196
860,94	17,094
861,12	16,443
861,30	20,355
861,48	18,407
861,66	17,641
861,84	19,372
862,01	19,419
862,19	17,175
862,37	12,893
862,55	13,968
862,73	13,533
862,91	21,598
863,09	13,244
863,27	13,209
863,44	16,213
863,62	18,303
863,80	17,854
863,98	18,692
864,16	19,677
864,34	20,559
864,52	24,841
864,69	18,675
864,87	19,286
865,05	25,730
865,23	23,737
865,41	19,841
865,59	29,260
865,76	27,427
865,94	26,519
866,12	26,000
866,30	28,848
866,48	28,609
866,66	25,739
866,83	27,678
867,01	31,862
867,19	30,338
867,37	28,017
867,55	27,806
867,73	22,822
867,90	26,423
868,08	31,052
868,26	24,458
868,44	23,829
868,62	27,842
868,79	25,209
868,97	25,117
869,15	23,929
869,33	23,370
869,51	25,079
869,69	20,951
869,86	21,106
870,04	22,502
870,22	22,271
870,40	20,493
870,57	22,222
870,75	21,613
870,93	17,904
871,11	16,731
871,29	15,086
871,46	17,769
871,64	18,292
871,82	16,742
872,00	19,880
872,18	17,185
872,35	19,514
872,53	17,135
872,71	15,368
872,89	18,824
873,06	16,522
873,24	17,667
873,42	18,213
873,60	20,226
873,77	17,602
873,95	17,189
874,13	19,366
874,31	19,070
874,49	17,175
874,66	19,708
874,84	18,392
875,02	19,691
875,20	18,581
875,37	17,147
875,55	17,165
875,73	17,503
875,91	14,826
876,08	15,148
876,26	16,471
876,44	15,887
876,61	14,008
876,79	9,529
876,97	12,638
877,15	15,315
877,32	12,917
877,50	16,038
877,68	12,313
877,86	12,894
878,03	9,610
878,21	11,587
878,39	10,635
878,56	10,899
878,74	12,555
878,92	11,940
879,10	10,586
879,27	13,869
879,45	11,298
879,63	11,887
879,80	9,676
879,98	12,608
880,16	12,461
880,34	10,521
880,51	11,940
880,69	10,025
880,87	11,845
881,04	12,371
881,22	10,993
881,40	14,368
881,57	11,579
881,75	15,120
881,93	13,015
882,10	13,369
882,28	12,722
882,46	11,566
882,63	13,526
882,81	12,459
882,99	11,252
883,16	14,039
883,34	12,540
883,52	12,408
883,69	12,339
883,87	14,034
884,05	12,665
884,22	12,013
884,40	14,145
884,58	11,708
884,75	13,707
884,93	14,034
885,11	15,433
885,28	14,994
885,46	14,681
885,64	14,001
885,81	11,948
885,99	13,259
886,17	14,280
886,34	14,297
886,52	16,087
886,70	15,560
886,87	14,397
887,05	14,908
887,22	13,374
887,40	16,355
887,58	13,459
887,75	14,830
887,93	12,846
888,11	13,408
888,28	16,766
888,46	14,800
888,63	14,891
888,81	15,851
888,99	15,951
889,16	15,826
889,34	15,005
889,51	17,162
889,69	16,179
889,87	16,579
890,04	15,744
890,22	15,194
890,39	15,466
890,57	17,774
890,75	16,493
890,92	18,046
891,10	17,451
891,27	17,421
891,45	18,380
891,63	18,158
891,80	18,931
891,98	17,006
892,15	19,069
892,33	17,621
892,51	19,406
892,68	17,390
892,86	20,328
893,03	19,473
893,21	20,873
893,38	20,714
893,56	21,750
893,74	21,814
893,91	22,001
894,09	22,232
894,26	21,762
894,44	23,311
894,61	22,338
894,79	23,922
894,96	22,067
895,14	24,080
895,32	23,954
895,49	25,634
895,67	24,604
895,84	24,510
896,02	26,046
896,19	26,160
896,37	26,147
896,54	28,090
896,72	27,728
896,89	26,579
897,07	27,033
897,25	28,735
897,42	29,248
897,60	27,844
897,77	28,037
897,95	27,662
898,12	28,970
898,30	30,210
898,47	28,776
898,65	30,234
898,82	31,562
899,00	32,193
899,17	34,402
899,35	30,649
899,52	35,630
899,70	33,974
899,87	34,722
900,05	33,881
900,22	33,963
900,40	35,521
900,57	34,785
900,75	38,149
900,92	36,098
901,10	37,297
901,27	37,924
901,45	39,463
901,62	40,489
901,80	40,497
901,97	42,272
902,15	42,119
902,32	39,825
902,50	42,724
902,67	42,283
902,85	43,978
903,02	42,263
903,20	43,359
903,37	43,395
903,54	42,605
903,72	43,400
903,89	44,710
904,07	43,831
904,24	45,969
904,42	44,940
904,59	46,378
904,77	46,393
904,94	44,627
905,12	47,500
905,29	44,023
905,47	45,073
905,64	44,667
905,81	44,442
905,99	42,154
906,16	43,994
906,34	42,403
906,51	42,763
906,69	42,729
906,86	45,751
907,03	42,356
907,21	41,645
907,38	42,680
907,56	40,175
907,73	41,421
907,91	41,408
908,08	38,931
908,25	40,060
908,43	41,230
908,60	41,914
908,78	42,669
908,95	42,366
909,13	38,924
909,30	39,615
909,47	39,267
909,65	40,370
909,82	40,629
910,00	39,874
910,17	39,841
910,34	40,527
910,52	39,011
910,69	40,365
910,87	41,095
911,04	40,610
911,21	42,402
911,39	41,507
911,56	43,398
911,73	43,214
911,91	44,415
912,08	45,150
912,26	43,943
912,43	44,310
912,60	46,214
912,78	44,992
912,95	45,525
913,13	44,967
913,30	46,727
913,47	45,838
913,65	45,815
913,82	46,864
913,99	46,609
914,17	48,165
914,34	46,152
914,51	47,633
914,69	49,285
914,86	47,219
915,03	48,649
915,21	47,152
915,38	48,272
915,56	49,371
915,73	47,877
915,90	47,377
916,08	47,912
916,25	48,784
916,42	48,847
916,60	48,520
916,77	48,641
916,94	47,314
917,12	48,929
917,29	48,852
917,46	48,028
917,64	48,619
917,81	48,799
917,98	47,028
918,16	47,197
918,33	46,846
918,50	45,514
918,67	47,695
918,85	45,368
919,02	45,980
919,19	45,598
919,37	46,263
919,54	46,348
919,71	44,793
919,89	45,180
920,06	46,055
920,23	45,850
920,41	44,308
920,58	44,458
920,75	45,003
920,92	45,833
921,10	45,552
921,27	46,226
921,44	44,602
921,62	45,095
921,79	46,139
921,96	46,621
922,13	46,627
922,31	46,675
922,48	45,357
922,65	46,419
922,82	46,036
923,00	47,440
923,17	45,920
923,34	46,012
923,52	46,010
923,69	44,981
923,86	45,730
924,03	43,976
924,21	45,550
924,38	46,885
924,55	45,715
924,72	45,125
924,90	45,768
925,07	46,489
925,24	45,604
925,41	45,788
925,59	46,397
925,76	44,976
925,93	45,661
926,10	43,985
926,28	44,253
926,45	44,046
926,62	43,559
926,79	43,892
926,96	43,013
927,14	44,165
927,31	42,407
927,48	41,736
927,65	43,733
927,83	42,636
928,00	41,169
928,17	39,335
928,34	40,917
928,51	41,013
928,69	41,384
928,86	40,720
929,03	39,658
929,20	39,728
929,37	40,597
929,55	40,398
929,72	38,591
929,89	38,642
930,06	38,377
930,23	38,972
930,41	39,407
930,58	38,135
930,75	38,566
930,92	39,197
931,09	38,379
931,27	38,297
931,44	38,702
931,61	38,875
931,78	38,116
931,95	38,542
932,12	37,812
932,30	37,912
932,47	39,240
932,64	36,244
932,81	37,551
932,98	39,360
933,16	38,392
933,33	37,841
933,50	36,933
933,67	37,534
933,84	38,490
934,01	37,692
934,18	38,096
934,36	38,718
934,53	38,388
934,70	38,911
934,87	38,559
935,04	37,498
935,21	38,770
935,38	38,375
935,56	38,053
935,73	38,732
935,90	38,661
936,07	38,249
936,24	39,425
936,41	37,469
936,58	37,791
936,76	37,814
936,93	37,239
937,10	37,203
937,27	36,511
937,44	37,343
937,61	38,095
937,78	37,089
937,95	37,210
938,13	37,526
938,30	37,202
938,47	36,701
938,64	34,215
938,81	34,485
938,98	35,081
939,15	35,331
939,32	34,477
939,49	35,055
939,66	33,542
939,84	33,471
940,01	33,025
940,18	33,159
940,35	32,521
940,52	31,478
940,69	32,183
940,86	31,094
941,03	29,939
941,20	29,754
941,37	29,631
941,54	29,432
941,71	29,644
941,89	27,656
942,06	28,583
942,23	27,679
942,40	27,220
942,57	27,304
942,74	26,537
942,91	27,012
943,08	28,435
943,25	27,111
943,42	27,090
943,59	26,515
943,76	26,505
943,93	25,831
944,10	26,626
944,27	27,160
944,44	26,603
944,61	26,619
944,79	27,452
944,96	25,976
945,13	27,434
945,30	26,222
945,47	26,665
945,64	27,581
945,81	28,688
945,98	28,001
946,15	26,927
946,32	28,681
946,49	28,620
946,66	28,020
946,83	28,606
947,00	29,070
947,17	28,999
947,34	29,178
947,51	30,041
947,68	29,809
947,85	29,205
948,02	30,195
948,19	30,790
948,36	31,946
948,53	28,786
948,70	31,682
948,87	31,247
949,04	33,206
949,21	32,948
949,38	33,311
949,55	32,925
949,72	32,670
949,89	33,947
950,06	35,567
950,23	34,611
950,40	34,529
950,57	34,708
950,74	36,205
950,91	36,132
951,08	38,321
951,25	37,814
951,42	38,121
951,59	37,121
951,76	38,172
951,93	40,011
952,10	39,020
952,27	40,441
952,44	40,125
952,61	40,386
952,77	41,219
952,94	43,218
953,11	42,674
953,28	44,662
953,45	45,373
953,62	44,914
953,79	44,679
953,96	45,738
954,13	44,909
954,30	46,576
954,47	45,182
954,64	46,760
954,81	46,882
954,98	48,633
955,15	45,075
955,32	47,915
955,49	48,560
955,65	51,223
955,82	52,296
955,99	52,887
956,16	48,922
956,33	50,204
956,50	52,315
956,67	51,734
956,84	52,284
957,01	51,297
957,18	53,154
957,35	54,942
957,52	47,224
957,68	50,815
957,85	51,540
958,02	53,371
958,19	50,763
958,36	53,765
958,53	52,022
958,70	53,342
958,87	52,342
959,04	54,468
959,21	54,499
959,37	53,531
959,54	55,152
959,71	55,571
959,88	53,420
960,05	53,668
960,22	54,684
960,39	56,318
960,56	54,465
960,72	56,567
960,89	59,216
961,06	55,771
961,23	53,974
961,40	56,752
961,57	48,415
961,74	54,537
961,90	57,979
962,07	53,678
962,24	57,128
962,41	52,981
962,58	60,201
962,75	53,964
962,92	49,432
963,08	57,758
963,25	50,237
963,42	55,392
963,59	50,905
963,76	51,799
963,93	50,960
964,10	52,835
964,26	46,595
964,43	56,831
964,60	49,556
964,77	52,680
964,94	59,846
965,10	58,824
965,27	55,236
965,44	50,500
965,61	53,861
965,78	61,687
965,95	54,717
966,11	61,587
966,28	60,000
966,45	55,429
966,62	48,291
966,79	57,520
966,95	43,750
967,12	49,282
967,29	53,972
967,46	48,261
967,63	61,235
967,79	56,250
967,96	58,793
968,13	73,668
968,30	50,546
968,47	59,103
968,63	62,426
968,80	66,207
968,97	62,286
969,14	51,327
969,31	46,154
969,47	76,025
969,64	67,327
969,81	76,842
969,98	46,199
970,14	54,074
970,31	57,706
970,48	49,466
970,65	53,169
970,81	59,864
970,98	45,693
971,15	87,558
971,32	36,441
971,48	45,588
971,65	70,588
971,82	66,837
971,99	59,204
972,15	63,158
972,32	50,206
972,49	44,206
972,66	44,690
972,82	17,822
972,99	59,574
973,16	75,773
973,33	34,762
973,49	78,333
973,66	81,513
973,83	62,585
974,00	54,918
974,16	52,201
974,33	56,707
974,50	65,278
974,67	65,263
974,83	42,938
975,00	68,841
975,17	74,830
975,33	55,797
975,50	75,152
975,67	93,750
975,84	70,922
976,00	69,231
976,17	77,941
976,34	44,681
976,50	62,609
976,67	73,276
976,84	100,000
977,00	69,925
977,17	60,630
977,34	55,914
977,50	60,638
977,67	68,421
977,84	50,909
978,01	54,023
978,17	125,641
978,34	51,042
978,51	106,061
978,67	101,099
978,84	73,958
979,01	20,000
979,17	84,848
979,34	331,250
979,51	13,462
979,67	128,750
979,84	116,667
980,01	91,803
980,17	111,765
980,34	42,029
980,51	156,818
980,67	77,333
980,84	156,897
981,01	0,000
981,17	62,000
981,34	812,500
981,50	47,059
981,67	144,828
981,84	101,724
982,00	67,391
982,17	318,182
982,34	71,795
982,50	142,105
982,67	94,444
982,84	126,190
983,00	144,000
983,17	91,667
983,33	111,290
983,50	48,913
983,67	121,739
983,83	1166,667
984,00	159,375
984,17	-5,000
984,33	89,189
984,50	43,750
984,66	228,571
984,83	39,535
985,00	237,705
985,16	94,872
985,33	318,750
985,49	217,241
985,66	30,303
985,83	85,965
985,99	45,045
986,16	164,000
986,32	100,000
986,49	500,000
986,66	23,256
986,82	126,316
986,99	97,619
987,15	131,034
987,32	46,296
987,49	213,889
987,65	530,000
987,82	-29,412
987,98	-11,765
988,15	71,429
988,31	60,000
988,48	-125,000
988,65	255,556
988,81	126,087
988,98	8,333
989,14	124,490
989,31	240,000
989,47	87,805
989,64	65,714
989,80	146,667
989,97	69,118
990,14	4,348
990,30	50,000
990,47	134,146
990,63	360,870
990,80	124,242
990,96	145,833
991,13	88,889
991,29	143,137
991,46	121,569
991,62	85,294
991,79	80,702
991,95	265,000
992,12	79,070
992,29	60,000
992,45	-230,769
992,62	-620,000
992,78	-129,630
992,95	227,778
993,11	156,667
993,28	53,086
993,44	417,391
993,61	666,667
993,77	580,000
993,94	90,698
994,10	385,714
994,27	268,000
994,43	161,765
994,60	-6,061
994,76	215,789
994,93	286,364
995,09	-27,027
995,26	58,025
995,42	54,237
995,59	14,286
995,75	218,750
995,92	268,182
996,08	166,667
996,25	344,444
996,41	197,917
996,58	289,189
996,74	130,000
996,91	200,000
997,07	246,154
997,23	100,000
997,40	1666,667
997,56	120,000
997,73	0,000
997,89	133,333
998,06	-21,569
998,22	3100,000
998,39	173,913
998,55	-137,500
998,72	210,000
998,88	3600,000
999,05	146,154
999,21	182,609
999,37	-2100,000
999,54	-2300,000
999,70	376,923
999,87	137,500
1000,03	37,500
1000,20	33,333
1000,36	4300,000
1000,52	266,667
1000,69	115,909
1000,85	106,897
1001,02	109,231
1001,18	131,818
1001,35	-95,556
1001,51	-164,286
1001,67	-12,000
1001,84	1200,000
1002,00	80,000
1002,17	154,545
1002,33	76,471
1002,50	33,333
1002,66	2300,000
1002,82	240,000
1002,99	-207,692
1003,15	252,174
1003,32	161,290
1003,48	-320,000
1003,64	107,500
1003,81	-85,714
1003,97	159,091
1004,14	2100,000
1004,30	-871,429
1004,46	650,000
1004,63	189,474
1004,79	-286,667
1004,95	88,235
1005,12	-471,429
1005,28	151,724
1005,45	103,846
1005,61	-1766,667
1005,77	131,579
1005,94	96,774
1006,10	-5000,000
1006,26	57,143
1006,43	500,000
1006,59	-77,778
1006,76	40,000
1006,92	300,000
1007,08	520,000
1007,25	-38,889
1007,41	-75,000
1007,57	-193,750
1007,74	-143,478
1007,90	-1120,000
1008,06	242,857
1008,23	161,111
1008,39	2300,000
1008,55	-328,571
1008,72	456,250
1008,88	56,000
1009,04	264,000
1009,21	-270,588
1009,37	-225,000
1009,53	-289,474
1009,70	-161,538
1009,86	122,727
1010,02	384,615
1010,19	0,000
1010,35	418,750
1010,51	500,000
1010,68	625,000
1010,84	-1100,000
1011,00	115,556
1011,17	-860,000
1011,33	329,412
1011,49	134,375
1011,66	313,043
1011,82	-41,509
1011,98	-25,000
1012,14	150,000
1012,31	-900,000
1012,47	1666,667
1012,63	488,889
1012,80	124,000
1012,96	-54,545
1013,12	74,419
1013,29	76,316
1013,45	84,444
1013,61	-266,667
1013,77	116,667
1013,94	146,875
1014,10	-103,030
1014,26	1300,000
1014,43	-51,515
1014,59	-725,000
1014,75	1100,000
1014,91	1066,667
1015,08	233,333
1015,24	-866,667
1015,40	-429,412
1015,56	366,667
1015,73	140,000
1015,89	242,857
1016,05	1440,000
1016,21	-66,667
1016,38	800,000
1016,54	23,077
1016,70	-51,852
1016,86	145,455
1017,03	107,692
1017,19	91,304
1017,35	-238,462
1017,51	280,000
1017,68	227,273
1017,84	2900,000
1018,00	1028,571
1018,16	166,667
1018,33	-528,571
1018,49	229,268
1018,65	23,529
1018,81	-145,000
1018,97	-350,000
1019,14	156,667
1019,30	246,875
1019,46	555,556
1019,62	433,333
1019,79	308,333
1019,95	137,500
1020,11	-471,429
1020,27	400,000
1020,43	-414,286
1020,60	-289,474
1020,76	-61,111
1020,92	457,143
1021,08	4200,000
1021,24	90,000
1021,41	14,706
1021,57	618,182
1021,73	-400,000
1021,89	92,857
1022,05	175,000
1022,21	171,795
1022,38	-220,000
1022,54	400,000
1022,70	-281,818
1022,86	2900,000
1023,02	-11,765
1023,19	-233,333
1023,35	190,323
1023,51	107,143
1023,67	241,667
1023,83	2200,000
1023,99	166,667
1024,16	150,000
1024,32	28,000
1024,48	122,727
1024,64	733,333
1024,80	-41,667
1024,96	120,690
1025,12	-121,429
1025,29	64,286
1025,45	158,333
1025,61	-466,667
1025,77	-183,871
1025,93	130,000
1026,09	92,683
1026,26	347,368
1026,42	-58,333
1026,58	-104,348
1026,74	191,667
1026,90	416,667
1027,06	-84,615
1027,22	-95,652
1027,38	152,174
1027,55	1066,667
1027,71	216,667
1027,87	-325,000
1028,03	-212,500
1028,19	-117,647
1028,35	-100,000
1028,51	204,000
1028,67	70,588
1028,83	142,222
1029,00	437,500
1029,16	102,703
1029,32	89,286
1029,48	128,571
1029,64	-315,385
1029,80	277,273
1029,96	800,000
1030,12	178,947
1030,28	-2000,000
1030,44	1140,000
1030,61	104,545
1030,77	-1033,333
1030,93	-325,000
1031,09	750,000
1031,25	0,000
1031,41	310,000
1031,57	-1450,000
1031,73	-1650,000
1031,89	-240,909
1032,05	-88,372
1032,21	-12,121
1032,37	80,357
1032,53	-20,690
1032,69	50,000
1032,86	-283,333
1033,02	-500,000
1033,18	291,667
1033,34	-1250,000
1033,50	218,750
1033,66	-136,000
1033,82	711,111
1033,98	2000,000
1034,14	-35,714
1034,30	-233,333
1034,46	200,000
1034,62	89,744
1034,78	-160,870
1034,94	254,839
1035,10	-515,385
1035,26	588,889
1035,42	-16,667
1035,58	225,000
1035,74	97,297
1035,90	331,250
1036,06	15,686
1036,22	75,758
1036,38	-356,250
1036,54	-131,250
1036,70	96,774
1036,86	115,000
1037,02	-64,286
1037,18	135,294
1037,34	288,889
1037,50	60,000
1037,66	-3500,000
1037,82	295,238
1037,98	612,500
1038,14	-1250,000
1038,30	155,172
1038,46	-657,143
1038,62	122,222
1038,78	-428,571
1038,94	270,000
1039,10	116,000
1039,26	-162,500
1039,42	180,435
1039,58	-1075,000
1039,74	-750,000
1039,90	-466,667
1040,06	-38,462
>>>>>End Processed Spectral Data<<<<<
