SpectraSuite Data File
++++++++++++++++++++++++++++++++++++
Date: Tue Jan 31 19:12:57 EET 2017
User: optolab
Dark Spectrum Present: Yes
Reference Spectrum Present: Yes
Number of Sampled Component Spectra: 1
Spectrometers: USB4C02475
Integration Time (usec): 100000 (USB4C02475)
Spectra Averaged: 1 (USB4C02475)
Boxcar Smoothing: 0 (USB4C02475)
Correct for Electrical Dark: No (USB4C02475)
Strobe/Lamp Enabled: No (USB4C02475)
Correct for Detector Non-linearity: No (USB4C02475)
Correct for Stray Light: No (USB4C02475)
Number of Pixels in Processed Spectrum: 3648
>>>>>Begin Processed Spectral Data<<<<<
344,91	169,231
345,13	169,231
345,35	169,231
345,57	0,000
345,79	516,667
346,00	350,000
346,22	-83,333
346,44	330,769
346,66	2050,000
346,87	350,000
347,09	-30,556
347,31	-1700,000
347,53	-700,000
347,74	-161,538
347,96	252,381
348,18	2766,667
348,40	-164,286
348,61	94,286
348,83	73,171
349,05	125,000
349,27	363,158
349,48	121,154
349,70	317,647
349,92	129,268
350,14	455,556
350,35	175,610
350,57	151,429
350,79	94,118
351,01	230,769
351,22	387,500
351,44	-316,667
351,66	30,769
351,87	138,462
352,09	178,788
352,31	643,750
352,53	80,000
352,74	147,619
352,96	160,465
353,18	177,778
353,40	108,696
353,61	75,000
353,83	516,667
354,05	221,212
354,26	321,429
354,48	-1425,000
354,70	58,537
354,92	66,667
355,13	144,118
355,35	0,000
355,57	36,111
355,78	182,353
356,00	182,353
356,22	277,778
356,44	-192,308
356,65	151,515
356,87	257,143
357,09	240,000
357,30	71,429
357,52	160,714
357,74	-3750,000
357,95	880,000
358,17	800,000
358,39	179,412
358,60	950,000
358,82	364,706
359,04	-112,500
359,26	160,937
359,47	252,174
359,69	-105,405
359,91	138,462
360,12	253,846
360,34	113,592
360,56	137,931
360,77	600,000
360,99	105,769
361,21	270,833
361,42	71,875
361,64	592,308
361,86	143,750
362,07	71,154
362,29	63,235
362,51	173,077
362,72	66,216
362,94	423,810
363,16	245,000
363,37	-56,452
363,59	193,103
363,81	-355,556
364,02	28,235
364,24	460,870
364,46	83,784
364,67	120,000
364,89	300,000
365,11	2900,000
365,32	98,795
365,54	607,143
365,76	105,172
365,97	457,143
366,19	400,000
366,41	169,231
366,62	255,263
366,84	250,000
367,05	89,231
367,27	-522,222
367,49	202,439
367,70	550,000
367,92	114,516
368,14	2000,000
368,35	149,296
368,57	102,564
368,79	129,412
369,00	0,000
369,22	591,667
369,43	50,000
369,65	100,000
369,87	125,352
370,08	685,714
370,30	82,353
370,51	66,667
370,73	78,846
370,95	257,143
371,16	850,000
371,38	122,727
371,60	123,077
371,81	127,027
372,03	257,895
372,24	454,545
372,46	112,195
372,68	107,813
372,89	100,000
373,11	138,095
373,32	173,333
373,54	114,000
373,76	136,170
373,97	59,140
374,19	187,838
374,40	394,444
374,62	133,333
374,84	188,000
375,05	118,919
375,27	122,642
375,48	93,023
375,70	120,455
375,92	187,500
376,13	97,778
376,35	1933,333
376,56	73,333
376,78	77,083
376,99	85,714
377,21	-5100,000
377,43	37,500
377,64	134,211
377,86	160,870
378,07	206,667
378,29	-19,355
378,51	125,641
378,72	133,333
378,94	88,235
379,15	194,286
379,37	142,857
379,58	128,571
379,80	146,154
380,01	1212,500
380,23	63,158
380,45	105,769
380,66	294,444
380,88	-350,000
381,09	98,571
381,31	92,754
381,52	119,444
381,74	135,821
381,95	158,537
382,17	130,000
382,39	236,364
382,60	538,462
382,82	280,000
383,03	151,923
383,25	53,846
383,46	68,293
383,68	101,786
383,89	810,000
384,11	50,000
384,32	-200,000
384,54	160,000
384,76	3400,000
384,97	66,667
385,19	110,417
385,40	83,333
385,62	477,778
385,83	172,973
386,05	102,326
386,26	116,216
386,48	244,000
386,69	198,113
386,91	255,882
387,12	237,500
387,34	150,980
387,55	186,364
387,77	257,143
387,98	-642,857
388,20	154,839
388,41	123,077
388,63	169,767
388,84	150,769
389,06	135,897
389,27	160,714
389,49	125,000
389,70	83,333
389,92	73,437
390,13	-391,304
390,35	100,000
390,56	177,273
390,78	258,065
390,99	2000,000
391,21	103,571
391,42	127,869
391,64	92,593
391,85	40,000
392,07	48,000
392,28	70,000
392,50	52,632
392,71	107,407
392,93	129,730
393,14	-168,421
393,36	240,625
393,57	101,961
393,79	65,152
394,00	145,455
394,22	11,364
394,43	125,000
394,65	1250,000
394,86	124,242
395,08	90,411
395,29	172,093
395,50	262,500
395,72	138,889
395,93	181,250
396,15	108,451
396,36	18,868
396,58	322,222
396,79	49,091
397,01	116,867
397,22	250,000
397,44	-880,000
397,65	93,421
397,87	74,359
398,08	78,000
398,29	181,250
398,51	175,000
398,72	91,000
398,94	106,757
399,15	122,449
399,37	75,641
399,58	180,645
399,80	28,125
400,01	72,464
400,22	102,041
400,44	326,667
400,65	380,000
400,87	85,246
401,08	52,632
401,30	66,000
401,51	77,273
401,72	146,512
401,94	148,387
402,15	93,220
402,37	157,576
402,58	297,778
402,80	92,857
403,01	107,447
403,22	81,667
403,44	93,750
403,65	-190,909
403,87	79,487
404,08	50,769
404,30	-37,931
404,51	57,143
404,72	130,488
404,94	107,143
405,15	126,087
405,37	154,167
405,58	34,091
405,79	51,899
406,01	59,813
406,22	70,732
406,44	64,286
406,65	102,740
406,86	29,293
407,08	238,889
407,29	38,202
407,51	96,939
407,72	61,111
407,93	69,128
408,15	48,649
408,36	17,593
408,58	47,154
408,79	94,624
409,00	60,227
409,22	87,912
409,43	78,652
409,64	7,018
409,86	44,681
410,07	55,556
410,29	70,787
410,50	50,685
410,71	29,070
410,93	52,353
411,14	53,125
411,35	30,172
411,57	39,320
411,78	29,858
412,00	32,768
412,21	37,572
412,42	31,373
412,64	29,167
412,85	21,762
413,06	41,951
413,28	13,714
413,49	29,545
413,70	36,823
413,92	26,592
414,13	16,988
414,34	8,676
414,56	19,355
414,77	17,803
414,98	16,716
415,20	19,280
415,41	15,674
415,63	0,915
415,84	17,178
416,05	22,330
416,27	13,527
416,48	17,500
416,69	15,942
416,91	24,187
417,12	11,670
417,33	7,126
417,55	2,863
417,76	7,490
417,97	15,706
418,19	16,725
418,40	13,793
418,61	7,204
418,83	5,735
419,04	7,480
419,25	12,092
419,46	10,849
419,68	12,696
419,89	8,012
420,10	6,658
420,32	7,098
420,53	7,277
420,74	6,840
420,96	10,309
421,17	3,129
421,38	10,977
421,60	7,143
421,81	7,742
422,02	6,667
422,23	8,838
422,45	4,231
422,66	5,847
422,87	9,524
423,09	7,399
423,30	5,528
423,51	4,931
423,73	4,943
423,94	6,647
424,15	3,748
424,36	4,801
424,58	5,307
424,79	3,713
425,00	6,826
425,22	9,096
425,43	6,052
425,64	5,109
425,85	6,904
426,07	4,006
426,28	5,626
426,49	4,243
426,71	3,336
426,92	4,261
427,13	4,117
427,34	4,808
427,56	4,160
427,77	4,397
427,98	2,348
428,19	1,242
428,41	3,268
428,62	1,635
428,83	2,437
429,04	4,101
429,26	3,162
429,47	4,003
429,68	1,874
429,89	1,533
430,11	3,335
430,32	2,839
430,53	1,382
430,74	3,372
430,96	2,370
431,17	2,493
431,38	2,170
431,59	3,899
431,81	2,596
432,02	2,039
432,23	2,368
432,44	2,748
432,66	3,206
432,87	2,563
433,08	2,483
433,29	2,267
433,51	2,939
433,72	1,652
433,93	2,593
434,14	3,473
434,35	4,193
434,57	3,798
434,78	6,959
434,99	7,188
435,20	9,214
435,42	10,808
435,63	13,432
435,84	15,805
436,05	16,922
436,26	20,639
436,48	23,517
436,69	25,075
436,90	27,882
437,11	31,804
437,32	32,299
437,54	35,144
437,75	37,076
437,96	39,173
438,17	40,909
438,38	40,887
438,60	43,823
438,81	43,592
439,02	43,256
439,23	44,316
439,44	45,411
439,66	45,420
439,87	46,365
440,08	46,590
440,29	46,898
440,50	44,993
440,72	46,919
440,93	46,649
441,14	46,194
441,35	47,346
441,56	47,281
441,77	47,351
441,99	49,062
442,20	50,208
442,41	51,445
442,62	54,107
442,83	57,910
443,04	61,832
443,26	65,848
443,47	69,993
443,68	75,046
443,89	77,088
444,10	78,779
444,31	80,588
444,53	81,820
444,74	82,372
444,95	82,555
445,16	84,483
445,37	85,740
445,58	87,545
445,80	88,386
446,01	88,824
446,22	91,864
446,43	92,342
446,64	91,610
446,85	92,859
447,06	93,969
447,28	95,316
447,49	93,514
447,70	94,316
447,91	94,109
448,12	92,969
448,33	94,260
448,54	94,175
448,76	94,874
448,97	94,188
449,18	94,764
449,39	95,440
449,60	94,359
449,81	95,776
450,02	94,751
450,23	96,021
450,45	96,473
450,66	97,143
450,87	95,965
451,08	96,655
451,29	96,658
451,50	98,490
451,71	96,756
451,92	97,904
452,13	96,769
452,35	96,362
452,56	95,599
452,77	94,107
452,98	94,518
453,19	93,945
453,40	93,444
453,61	92,055
453,82	91,239
454,03	91,101
454,25	89,951
454,46	90,793
454,67	91,876
454,88	93,427
455,09	93,063
455,30	93,687
455,51	95,287
455,72	96,018
455,93	94,607
456,14	95,873
456,35	96,883
456,56	97,369
456,78	98,532
456,99	97,629
457,20	98,511
457,41	98,304
457,62	97,123
457,83	96,405
458,04	98,997
458,25	96,959
458,46	99,027
458,67	97,797
458,88	99,811
459,09	99,292
459,30	98,730
459,51	100,468
459,73	99,178
459,94	99,723
460,15	98,899
460,36	98,693
460,57	99,139
460,78	98,433
460,99	99,129
461,20	98,989
461,41	98,818
461,62	99,228
461,83	99,835
462,04	99,269
462,25	98,518
462,46	98,375
462,67	99,119
462,88	100,119
463,09	98,577
463,30	97,416
463,51	98,388
463,72	97,674
463,93	97,796
464,15	97,180
464,36	96,717
464,57	96,563
464,78	96,160
464,99	95,908
465,20	95,601
465,41	95,468
465,62	95,045
465,83	95,934
466,04	96,479
466,25	97,190
466,46	96,631
466,67	97,097
466,88	97,124
467,09	98,055
467,30	97,618
467,51	98,558
467,72	98,715
467,93	98,480
468,14	98,831
468,35	97,871
468,56	96,871
468,77	97,511
468,98	96,374
469,19	97,497
469,40	96,793
469,61	97,356
469,82	96,870
470,03	96,182
470,24	97,425
470,45	96,768
470,66	96,923
470,87	98,188
471,08	98,748
471,29	97,950
471,50	98,755
471,71	99,021
471,92	99,181
472,13	100,379
472,34	100,044
472,55	100,205
472,76	99,653
472,97	100,868
473,18	100,237
473,39	99,334
473,60	99,595
473,81	99,942
474,01	99,549
474,22	98,669
474,43	99,501
474,64	99,796
474,85	99,773
475,06	100,227
475,27	99,781
475,48	99,877
475,69	98,703
475,90	98,630
476,11	99,711
476,32	99,161
476,53	97,078
476,74	98,507
476,95	97,060
477,16	97,620
477,37	97,066
477,58	96,571
477,79	95,923
478,00	95,792
478,21	96,444
478,41	95,383
478,62	97,345
478,83	95,276
479,04	95,428
479,25	95,834
479,46	96,031
479,67	95,872
479,88	95,421
480,09	95,478
480,30	95,536
480,51	95,563
480,72	95,263
480,93	94,821
481,14	95,236
481,34	93,597
481,55	93,197
481,76	92,342
481,97	90,849
482,18	90,324
482,39	87,619
482,60	85,289
482,81	85,172
483,02	82,421
483,23	79,184
483,44	76,687
483,65	73,581
483,85	69,176
484,06	66,226
484,27	61,737
484,48	58,565
484,69	54,709
484,90	50,211
485,11	45,806
485,32	41,029
485,53	36,694
485,73	32,316
485,94	27,438
486,15	23,908
486,36	20,015
486,57	16,126
486,78	13,266
486,99	10,780
487,20	8,239
487,41	6,560
487,61	4,627
487,82	3,499
488,03	2,880
488,24	2,016
488,45	1,757
488,66	1,457
488,87	1,009
489,08	0,864
489,28	0,861
489,49	0,822
489,70	0,694
489,91	0,574
490,12	0,399
490,33	0,504
490,54	0,601
490,74	0,626
490,95	0,396
491,16	0,289
491,37	0,446
491,58	0,393
491,79	0,432
492,00	0,292
492,20	0,450
492,41	0,502
492,62	0,340
492,83	0,491
493,04	0,425
493,25	0,293
493,45	0,313
493,66	0,364
493,87	0,479
494,08	0,262
494,29	0,521
494,50	0,412
494,70	0,336
494,91	0,401
495,12	0,294
495,33	0,367
495,54	0,293
495,75	0,299
495,95	0,514
496,16	0,457
496,37	0,542
496,58	0,481
496,79	0,261
496,99	0,401
497,20	0,321
497,41	0,474
497,62	0,192
497,83	0,380
498,04	0,493
498,24	0,418
498,45	0,226
498,66	0,446
498,87	0,563
499,08	0,317
499,28	0,284
499,49	0,279
499,70	0,395
499,91	0,291
500,12	0,375
500,32	0,298
500,53	0,337
500,74	0,289
500,95	0,173
501,15	0,357
501,36	0,434
501,57	0,198
501,78	0,381
501,99	0,103
502,19	0,445
502,40	0,236
502,61	0,244
502,82	0,530
503,02	0,269
503,23	0,416
503,44	0,196
503,65	0,332
503,86	0,422
504,06	0,373
504,27	0,623
504,48	0,313
504,69	0,405
504,89	0,280
505,10	0,330
505,31	0,214
505,52	0,365
505,72	0,270
505,93	0,402
506,14	0,140
506,35	0,361
506,55	0,344
506,76	0,213
506,97	0,436
507,18	0,346
507,38	0,215
507,59	0,345
507,80	0,403
508,01	0,318
508,21	0,416
508,42	0,332
508,63	0,455
508,84	0,435
509,04	0,349
509,25	0,305
509,46	0,298
509,67	0,266
509,87	0,295
510,08	0,415
510,29	0,238
510,49	0,326
510,70	0,306
510,91	0,158
511,12	0,317
511,32	0,409
511,53	0,302
511,74	0,481
511,94	0,368
512,15	0,374
512,36	0,379
512,57	0,568
512,77	0,245
512,98	0,400
513,19	0,285
513,39	0,517
513,60	0,433
513,81	0,281
514,01	0,373
514,22	0,266
514,43	0,345
514,64	0,148
514,84	0,309
515,05	0,352
515,26	0,468
515,46	0,489
515,67	0,448
515,88	0,152
516,08	0,499
516,29	0,279
516,50	0,349
516,70	0,400
516,91	0,720
517,12	0,313
517,32	0,409
517,53	0,455
517,74	0,390
517,95	0,445
518,15	0,431
518,36	0,484
518,57	0,379
518,77	0,358
518,98	0,399
519,19	0,416
519,39	0,513
519,60	0,330
519,80	0,262
520,01	0,347
520,22	0,386
520,42	0,405
520,63	0,340
520,84	0,367
521,04	0,458
521,25	0,435
521,46	0,322
521,66	0,311
521,87	0,526
522,08	0,635
522,28	0,472
522,49	0,448
522,70	0,549
522,90	0,418
523,11	0,398
523,31	0,516
523,52	0,490
523,73	0,547
523,93	0,571
524,14	0,350
524,35	0,454
524,55	0,310
524,76	0,362
524,97	0,663
525,17	0,704
525,38	0,386
525,58	0,462
525,79	0,681
526,00	0,685
526,20	0,663
526,41	0,644
526,61	0,476
526,82	0,603
527,03	0,523
527,23	0,661
527,44	0,500
527,64	0,492
527,85	0,515
528,06	0,723
528,26	0,638
528,47	0,487
528,68	0,877
528,88	0,907
529,09	0,724
529,29	0,811
529,50	0,962
529,70	1,097
529,91	1,298
530,12	1,379
530,32	1,873
530,53	1,962
530,73	2,467
530,94	3,048
531,15	3,367
531,35	4,449
531,56	5,532
531,76	6,478
531,97	7,605
532,17	8,398
532,38	10,516
532,59	12,220
532,79	14,271
533,00	15,743
533,20	17,774
533,41	20,137
533,61	21,787
533,82	24,037
534,03	26,301
534,23	27,947
534,44	29,645
534,64	31,567
534,85	34,071
535,05	35,810
535,26	37,164
535,46	38,409
535,67	39,440
535,88	41,319
536,08	42,068
536,29	42,715
536,49	44,404
536,70	44,730
536,90	46,002
537,11	47,115
537,31	47,518
537,52	47,851
537,72	48,294
537,93	48,439
538,13	49,089
538,34	50,169
538,55	51,542
538,75	52,533
538,96	53,769
539,16	54,808
539,37	57,905
539,57	60,336
539,78	62,561
539,98	65,956
540,19	70,025
540,39	73,896
540,60	76,340
540,80	80,195
541,01	82,227
541,21	84,972
541,42	87,278
541,62	89,029
541,83	90,547
542,03	93,266
542,24	95,432
542,44	95,125
542,65	96,777
542,85	97,317
543,06	98,649
543,26	99,036
543,47	99,941
543,67	100,335
543,88	98,975
544,08	101,147
544,29	100,080
544,49	101,019
544,70	100,142
544,90	100,246
545,11	98,782
545,31	99,540
545,52	99,585
545,72	99,470
545,93	99,376
546,13	99,078
546,34	99,589
546,54	99,288
546,75	99,097
546,95	99,173
547,15	99,969
547,36	98,883
547,56	100,431
547,77	99,150
547,97	100,366
548,18	99,723
548,38	99,426
548,59	100,066
548,79	99,317
549,00	99,532
549,20	100,180
549,41	100,230
549,61	100,351
549,81	100,867
550,02	100,354
550,22	100,389
550,43	100,000
550,63	100,349
550,84	100,435
551,04	99,499
551,25	99,845
551,45	99,020
551,65	99,821
551,86	99,230
552,06	99,760
552,27	98,684
552,47	99,257
552,68	99,638
552,88	98,507
553,08	98,910
553,29	98,948
553,49	98,246
553,70	97,506
553,90	97,695
554,11	97,915
554,31	97,280
554,51	97,907
554,72	98,404
554,92	98,377
555,13	98,442
555,33	98,636
555,53	98,553
555,74	98,677
555,94	99,398
556,15	99,071
556,35	99,033
556,56	99,020
556,76	99,454
556,96	100,439
557,17	99,507
557,37	99,005
557,58	99,563
557,78	98,907
557,98	98,948
558,19	98,579
558,39	98,342
558,59	98,825
558,80	99,544
559,00	98,979
559,21	99,404
559,41	99,049
559,61	99,560
559,82	99,955
560,02	99,637
560,23	100,231
560,43	99,032
560,63	100,068
560,84	99,446
561,04	100,161
561,24	99,937
561,45	100,375
561,65	100,274
561,85	100,646
562,06	100,468
562,26	100,524
562,47	100,867
562,67	101,041
562,87	101,609
563,08	101,174
563,28	101,338
563,48	100,994
563,69	100,897
563,89	100,350
564,09	101,615
564,30	101,068
564,50	100,957
564,70	101,078
564,91	100,567
565,11	100,350
565,31	100,668
565,52	99,091
565,72	100,979
565,92	100,378
566,13	99,715
566,33	99,091
566,53	99,840
566,74	100,717
566,94	99,488
567,14	100,936
567,35	99,556
567,55	100,588
567,75	100,159
567,96	100,373
568,16	99,185
568,36	100,379
568,57	100,367
568,77	101,432
568,97	100,375
569,18	100,279
569,38	100,189
569,58	100,122
569,79	100,914
569,99	101,056
570,19	100,982
570,39	100,273
570,60	100,966
570,80	100,528
571,00	100,269
571,21	100,204
571,41	100,287
571,61	99,926
571,82	100,477
572,02	99,063
572,22	101,077
572,42	101,123
572,63	99,722
572,83	101,415
573,03	100,969
573,24	100,773
573,44	101,250
573,64	101,095
573,84	100,615
574,05	100,939
574,25	100,861
574,45	99,927
574,66	99,665
574,86	100,484
575,06	99,678
575,26	100,309
575,47	99,661
575,67	99,693
575,87	99,071
576,07	98,826
576,28	99,996
576,48	98,911
576,68	99,495
576,88	99,635
577,09	98,626
577,29	99,250
577,49	99,414
577,69	99,325
577,90	98,347
578,10	98,589
578,30	99,087
578,50	98,455
578,71	98,529
578,91	97,949
579,11	98,193
579,31	98,014
579,52	98,359
579,72	96,991
579,92	97,574
580,12	98,691
580,33	98,582
580,53	98,552
580,73	98,044
580,93	96,222
581,13	97,580
581,34	98,266
581,54	98,048
581,74	98,328
581,94	98,536
582,15	98,696
582,35	98,224
582,55	98,219
582,75	98,704
582,95	99,037
583,16	98,305
583,36	99,322
583,56	98,975
583,76	98,050
583,96	98,990
584,17	98,773
584,37	98,970
584,57	99,755
584,77	98,261
584,97	98,771
585,18	98,325
585,38	97,261
585,58	97,576
585,78	97,311
585,98	96,671
586,19	96,282
586,39	95,470
586,59	95,083
586,79	95,274
586,99	93,367
587,20	91,729
587,40	91,115
587,60	88,637
587,80	87,657
588,00	85,897
588,20	84,545
588,41	81,053
588,61	79,020
588,81	75,880
589,01	73,444
589,21	69,588
589,41	65,070
589,62	62,206
589,82	57,533
590,02	54,249
590,22	50,244
590,42	46,557
590,62	42,417
590,83	38,729
591,03	35,086
591,23	31,382
591,43	27,781
591,63	24,864
591,83	21,266
592,03	18,527
592,24	15,775
592,44	13,349
592,64	10,894
592,84	9,271
593,04	7,512
593,24	5,953
593,44	4,547
593,65	3,926
593,85	3,003
594,05	2,288
594,25	1,813
594,45	1,562
594,65	1,150
594,85	1,037
595,06	0,859
595,26	0,777
595,46	0,483
595,66	0,408
595,86	0,596
596,06	0,436
596,26	0,627
596,46	0,450
596,66	0,210
596,87	0,493
597,07	0,513
597,27	0,385
597,47	0,427
597,67	0,332
597,87	0,453
598,07	0,464
598,27	0,545
598,47	0,408
598,67	0,398
598,88	0,345
599,08	0,405
599,28	0,375
599,48	0,534
599,68	0,541
599,88	0,407
600,08	0,469
600,28	0,425
600,48	0,225
600,68	0,343
600,88	0,404
601,09	0,322
601,29	0,515
601,49	0,355
601,69	0,150
601,89	0,544
602,09	0,350
602,29	0,296
602,49	0,345
602,69	0,295
602,89	0,339
603,09	0,444
603,29	0,287
603,49	0,342
603,69	0,173
603,90	0,248
604,10	0,330
604,30	0,362
604,50	0,190
604,70	0,310
604,90	0,397
605,10	0,292
605,30	0,376
605,50	0,250
605,70	0,518
605,90	0,258
606,10	0,269
606,30	0,303
606,50	0,221
606,70	0,436
606,90	0,261
607,10	0,237
607,30	0,108
607,50	0,242
607,70	0,425
607,90	0,413
608,10	0,378
608,30	0,248
608,50	0,540
608,70	0,210
608,90	0,181
609,11	0,300
609,31	0,246
609,51	0,423
609,71	0,388
609,91	0,258
610,11	0,357
610,31	0,297
610,51	0,361
610,71	0,281
610,91	0,295
611,11	0,559
611,31	0,176
611,51	0,194
611,71	0,384
611,91	0,343
612,11	0,348
612,31	0,262
612,51	0,321
612,71	0,215
612,91	0,334
613,11	0,332
613,31	0,295
613,51	0,546
613,71	0,310
613,91	0,130
614,11	0,280
614,31	0,424
614,50	0,228
614,70	0,367
614,90	0,418
615,10	0,188
615,30	0,170
615,50	0,331
615,70	0,421
615,90	0,220
616,10	0,258
616,30	0,379
616,50	0,264
616,70	0,382
616,90	0,545
617,10	0,280
617,30	0,330
617,50	0,514
617,70	0,375
617,90	0,335
618,10	0,349
618,30	0,436
618,50	0,258
618,70	0,345
618,90	0,217
619,10	0,318
619,30	0,382
619,49	0,434
619,69	0,345
619,89	0,090
620,09	0,388
620,29	0,279
620,49	0,478
620,69	0,369
620,89	0,298
621,09	0,326
621,29	0,385
621,49	0,278
621,69	0,327
621,89	0,579
622,09	0,375
622,29	0,307
622,48	0,283
622,68	0,548
622,88	0,273
623,08	0,458
623,28	0,558
623,48	0,291
623,68	0,235
623,88	0,226
624,08	0,338
624,28	0,454
624,48	0,374
624,67	0,446
624,87	0,431
625,07	0,615
625,27	0,674
625,47	0,925
625,67	0,988
625,87	1,365
626,07	1,355
626,27	1,495
626,47	1,891
626,66	2,026
626,86	2,739
627,06	3,199
627,26	3,831
627,46	4,248
627,66	5,364
627,86	6,144
628,06	7,152
628,25	8,239
628,45	9,777
628,65	10,861
628,85	12,280
629,05	13,394
629,25	15,221
629,45	16,737
629,65	18,521
629,84	20,491
630,04	21,808
630,24	23,559
630,44	24,883
630,64	27,385
630,84	28,379
631,04	29,526
631,23	31,687
631,43	32,854
631,63	33,880
631,83	35,567
632,03	36,642
632,23	37,966
632,42	38,824
632,62	39,541
632,82	40,392
633,02	40,971
633,22	41,091
633,42	42,041
633,62	43,278
633,81	43,524
634,01	44,051
634,21	44,541
634,41	45,788
634,61	46,324
634,80	46,924
635,00	48,649
635,20	50,051
635,40	51,653
635,60	53,274
635,80	54,721
635,99	56,943
636,19	58,315
636,39	62,477
636,59	64,219
636,79	67,382
636,98	69,516
637,18	73,364
637,38	75,556
637,58	77,551
637,78	81,571
637,97	83,396
638,17	86,050
638,37	87,803
638,57	89,865
638,77	91,994
638,96	92,588
639,16	94,105
639,36	94,657
639,56	95,223
639,76	95,505
639,95	96,209
640,15	97,423
640,35	97,514
640,55	98,575
640,75	98,877
640,94	99,000
641,14	99,094
641,34	99,116
641,54	98,181
641,73	97,932
641,93	99,427
642,13	98,524
642,33	99,317
642,53	99,296
642,72	98,713
642,92	98,836
643,12	98,320
643,32	98,081
643,51	97,967
643,71	97,707
643,91	97,984
644,11	98,321
644,30	97,412
644,50	97,561
644,70	96,857
644,90	98,484
645,09	96,306
645,29	97,369
645,49	96,801
645,69	97,893
645,88	98,091
646,08	97,332
646,28	97,723
646,48	97,095
646,67	97,615
646,87	98,040
647,07	96,760
647,26	99,030
647,46	96,890
647,66	97,687
647,86	95,429
648,05	95,087
648,25	96,628
648,45	96,478
648,65	96,481
648,84	96,580
649,04	94,327
649,24	95,916
649,43	94,085
649,63	96,123
649,83	96,145
650,03	95,643
650,22	95,102
650,42	96,144
650,62	94,488
650,81	95,787
651,01	95,562
651,21	96,309
651,40	94,880
651,60	96,182
651,80	96,599
652,00	96,524
652,19	96,474
652,39	96,656
652,59	96,675
652,78	95,950
652,98	95,731
653,18	96,842
653,37	96,047
653,57	95,876
653,77	96,071
653,96	94,140
654,16	95,681
654,36	96,243
654,55	97,803
654,75	95,201
654,95	95,531
655,14	93,543
655,34	96,049
655,54	94,456
655,73	94,306
655,93	95,344
656,13	95,582
656,32	95,880
656,52	97,002
656,72	96,050
656,91	94,974
657,11	94,532
657,31	94,756
657,50	94,523
657,70	94,483
657,90	96,115
658,09	95,200
658,29	93,735
658,49	94,810
658,68	93,988
658,88	96,090
659,07	94,801
659,27	95,569
659,47	94,193
659,66	96,311
659,86	94,941
660,06	94,967
660,25	93,857
660,45	94,685
660,64	94,909
660,84	95,289
661,04	94,504
661,23	93,140
661,43	95,209
661,63	94,575
661,82	94,234
662,02	94,885
662,21	94,548
662,41	94,655
662,61	95,051
662,80	95,222
663,00	95,699
663,19	96,907
663,39	97,342
663,59	96,968
663,78	95,702
663,98	95,852
664,17	97,030
664,37	95,599
664,57	96,312
664,76	97,651
664,96	95,759
665,15	96,524
665,35	95,472
665,55	94,786
665,74	95,694
665,94	97,574
666,13	95,809
666,33	95,123
666,53	94,944
666,72	94,016
666,92	95,325
667,11	96,317
667,31	94,418
667,50	93,803
667,70	95,245
667,90	94,086
668,09	94,718
668,29	93,699
668,48	93,348
668,68	94,908
668,87	94,671
669,07	94,838
669,26	94,604
669,46	94,017
669,66	95,686
669,85	94,740
670,05	93,963
670,24	95,409
670,44	94,137
670,63	92,123
670,83	94,282
671,02	93,613
671,22	92,860
671,42	92,439
671,61	93,788
671,81	95,588
672,00	92,552
672,20	93,127
672,39	93,391
672,59	92,743
672,78	92,841
672,98	92,992
673,17	92,061
673,37	91,513
673,56	93,167
673,76	92,270
673,95	93,885
674,15	92,197
674,34	92,820
674,54	91,652
674,73	92,249
674,93	91,902
675,13	91,943
675,32	93,272
675,52	92,714
675,71	92,191
675,91	93,363
676,10	92,066
676,30	93,007
676,49	92,827
676,69	91,996
676,88	92,955
677,08	91,752
677,27	92,307
677,47	91,494
677,66	91,136
677,86	91,264
678,05	91,134
678,24	90,526
678,44	90,747
678,63	91,508
678,83	92,088
679,02	90,852
679,22	89,610
679,41	91,355
679,61	89,452
679,80	90,066
680,00	88,886
680,19	88,396
680,39	87,331
680,58	86,542
680,78	86,231
680,97	85,183
681,17	83,846
681,36	83,079
681,56	81,347
681,75	80,338
681,94	78,399
682,14	76,396
682,33	75,875
682,53	73,679
682,72	72,030
682,92	69,123
683,11	68,469
683,31	64,808
683,50	64,250
683,69	61,384
683,89	59,063
684,08	57,106
684,28	54,254
684,47	50,625
684,67	48,694
684,86	45,856
685,06	43,044
685,25	40,816
685,44	38,428
685,64	35,652
685,83	33,201
686,03	30,929
686,22	28,027
686,42	25,808
686,61	23,673
686,80	21,482
687,00	19,105
687,19	17,887
687,39	15,343
687,58	13,906
687,77	12,647
687,97	11,352
688,16	9,840
688,36	8,915
688,55	7,622
688,74	6,848
688,94	5,918
689,13	4,920
689,33	4,492
689,52	3,691
689,71	3,150
689,91	2,625
690,10	2,199
690,30	1,907
690,49	1,612
690,68	1,248
690,88	1,143
691,07	0,719
691,27	0,874
691,46	0,649
691,65	0,489
691,85	0,348
692,04	0,231
692,23	0,130
692,43	0,202
692,62	0,328
692,82	0,262
693,01	0,316
693,20	0,007
693,40	0,186
693,59	0,081
693,78	0,018
693,98	0,044
694,17	0,317
694,36	0,241
694,56	0,054
694,75	0,082
694,94	0,240
695,14	0,168
695,33	0,266
695,53	0,016
695,72	0,267
695,91	0,093
696,11	0,099
696,30	0,171
696,49	-0,027
696,69	0,258
696,88	0,390
697,07	0,324
697,27	0,391
697,46	-0,010
697,65	-0,078
697,85	0,037
698,04	-0,016
698,23	-0,079
698,43	0,416
698,62	0,101
698,81	0,399
699,01	0,147
699,20	0,343
699,39	0,420
699,58	0,310
699,78	0,512
699,97	0,133
700,16	-0,091
700,36	0,310
700,55	0,498
700,74	0,309
700,94	0,531
701,13	0,380
701,32	0,298
701,52	0,302
701,71	0,496
701,90	0,098
702,09	0,431
702,29	0,564
702,48	0,386
702,67	0,335
702,87	0,452
703,06	0,187
703,25	0,441
703,44	0,062
703,64	0,892
703,83	1,131
704,02	0,014
704,22	0,170
704,41	1,447
704,60	1,372
704,79	0,061
704,99	0,620
705,18	0,337
705,37	0,519
705,56	0,356
705,76	1,367
705,95	0,557
706,14	0,858
706,33	0,982
706,53	1,115
706,72	1,718
706,91	0,928
707,11	0,020
707,30	0,085
707,49	2,042
707,68	1,403
707,88	0,478
708,07	0,673
708,26	1,712
708,45	0,980
708,64	-0,073
708,84	0,927
709,03	0,337
709,22	1,452
709,41	2,831
709,61	-0,306
709,80	1,286
709,99	0,884
710,18	0,565
710,38	2,345
710,57	1,823
710,76	2,668
710,95	1,914
711,14	0,697
711,34	0,779
711,53	0,269
711,72	2,687
711,91	2,365
712,11	0,589
712,30	1,943
712,49	0,555
712,68	0,695
712,87	1,368
713,07	3,185
713,26	1,452
713,45	1,731
713,64	1,966
713,83	1,246
714,03	-0,644
714,22	-1,133
714,41	2,189
714,60	1,543
714,79	2,028
714,99	1,073
715,18	1,599
715,37	1,162
715,56	2,524
715,75	0,946
715,94	1,882
716,14	-1,587
716,33	1,398
716,52	1,716
716,71	1,897
716,90	0,422
717,10	3,478
717,29	1,513
717,48	1,020
717,67	0,395
717,86	0,057
718,05	2,304
718,24	1,966
718,44	1,833
718,63	1,337
718,82	4,146
719,01	1,537
719,20	1,923
719,39	1,383
719,59	1,583
719,78	3,308
719,97	3,944
720,16	0,770
720,35	2,542
720,54	4,368
720,73	1,556
720,93	2,925
721,12	-1,441
721,31	3,280
721,50	5,611
721,69	3,790
721,88	1,681
722,07	2,350
722,27	-0,312
722,46	-1,075
722,65	2,430
722,84	1,342
723,03	-0,235
723,22	1,057
723,41	0,403
723,60	-0,084
723,79	5,755
723,99	6,412
724,18	0,264
724,37	1,773
724,56	3,923
724,75	1,786
724,94	6,406
725,13	3,710
725,32	7,033
725,51	6,631
725,71	2,885
725,90	3,268
726,09	1,141
726,28	3,390
726,47	5,331
726,66	1,558
726,85	4,479
727,04	3,030
727,23	9,473
727,42	2,291
727,61	6,757
727,81	5,417
728,00	3,611
728,19	0,741
728,38	0,962
728,57	2,903
728,76	3,905
728,95	6,011
729,14	3,751
729,33	3,212
729,52	3,381
729,71	3,143
729,90	2,561
730,09	6,746
730,28	2,482
730,48	2,179
730,67	4,588
730,86	3,114
731,05	-1,840
731,24	-2,356
731,43	8,205
731,62	0,988
731,81	-0,458
732,00	2,366
732,19	3,258
732,38	3,515
732,57	1,759
732,76	-5,075
732,95	5,648
733,14	12,725
733,33	6,111
733,52	-0,271
733,71	3,059
733,90	1,383
734,09	5,340
734,28	10,892
734,47	-0,294
734,66	4,769
734,85	3,808
735,04	4,878
735,23	3,324
735,42	6,950
735,61	3,740
735,81	-2,983
736,00	-0,602
736,19	0,000
736,38	4,361
736,57	8,386
736,76	4,271
736,95	4,466
737,14	9,202
737,33	5,452
737,52	-0,912
737,71	8,689
737,90	3,994
738,09	0,000
738,28	1,948
738,47	8,039
738,66	2,881
738,85	3,937
739,04	-1,771
739,22	-2,401
739,41	3,839
739,60	-0,539
739,79	6,217
739,98	4,143
740,17	7,264
740,36	1,326
740,55	0,364
740,74	4,275
740,93	7,926
741,12	10,208
741,31	-5,930
741,50	5,052
741,69	-2,033
741,88	7,005
742,07	6,184
742,26	3,059
742,45	8,333
742,64	7,143
742,83	4,396
743,02	2,811
743,21	0,677
743,40	7,088
743,59	4,519
743,78	-1,899
743,97	7,021
744,16	-2,586
744,34	8,471
744,53	10,129
744,72	10,828
744,91	9,651
745,10	6,207
745,29	1,408
745,48	-2,183
745,67	2,000
745,86	6,846
746,05	10,738
746,24	8,621
746,43	10,204
746,62	11,637
746,81	0,474
747,00	15,000
747,18	10,227
747,37	4,091
747,56	13,043
747,75	1,023
747,94	3,535
748,13	4,907
748,32	16,585
748,51	10,539
748,70	11,271
748,89	9,677
749,08	12,562
749,26	1,067
749,45	4,684
749,64	1,034
749,83	5,651
750,02	5,094
750,21	5,469
750,40	9,235
750,59	6,117
750,78	9,639
750,96	15,461
751,15	2,949
751,34	27,027
751,53	13,889
751,72	10,992
751,91	4,724
752,10	9,859
752,29	-4,928
752,47	8,621
752,66	6,805
752,85	17,460
753,04	6,757
753,23	1,597
753,42	8,479
753,61	8,511
753,80	2,402
753,98	7,813
754,17	10,482
754,36	10,458
754,55	12,378
754,74	14,324
754,93	1,290
755,12	13,231
755,30	6,642
755,49	1,466
755,68	25,205
755,87	10,922
756,06	15,562
756,25	-8,911
756,43	1,439
756,62	10,108
756,81	-9,804
757,00	17,308
757,19	16,564
757,38	0,000
757,56	14,527
757,75	2,672
757,94	1,724
758,13	8,917
758,32	4,167
758,51	22,258
758,69	3,526
758,88	17,705
759,07	18,505
759,26	-2,381
759,45	16,786
759,63	0,395
759,82	9,124
760,01	-7,639
760,20	15,693
760,39	24,138
760,57	-6,009
760,76	-0,763
760,95	11,494
761,14	-1,538
761,33	21,484
761,51	19,630
761,70	8,966
761,89	21,705
762,08	9,483
762,27	-10,096
762,45	9,906
762,64	19,469
762,83	25,279
763,02	20,761
763,21	10,915
763,39	12,670
763,58	18,776
763,77	8,511
763,96	21,637
764,14	-0,830
764,33	21,053
764,52	20,536
764,71	22,660
764,89	19,932
765,08	14,232
765,27	2,970
765,46	-2,727
765,65	14,213
765,83	17,619
766,02	19,780
766,21	10,127
766,40	43,256
766,58	1,357
766,77	-33,333
766,96	12,821
767,15	28,986
767,33	-14,904
767,52	2,844
767,71	10,000
767,90	29,167
768,08	19,313
768,27	3,256
768,46	19,048
768,64	20,874
768,83	28,108
769,02	15,238
769,21	3,125
769,39	-12,081
769,58	9,500
769,77	11,957
769,96	4,636
770,14	6,870
770,33	19,251
770,52	28,846
770,70	23,762
770,89	13,776
771,08	13,542
771,27	22,680
771,45	32,370
771,64	31,579
771,83	17,742
772,01	1,527
772,20	30,808
772,39	20,382
772,57	26,563
772,76	11,034
772,95	7,107
773,14	17,442
773,32	24,725
773,51	12,093
773,70	-9,272
773,88	21,608
774,07	15,900
774,26	28,049
774,44	38,693
774,63	13,924
774,82	42,771
775,00	23,581
775,19	13,793
775,38	28,667
775,56	29,878
775,75	14,970
775,94	32,836
776,12	30,833
776,31	10,778
776,50	33,333
776,68	4,321
776,87	26,573
777,06	26,027
777,24	3,279
777,43	39,837
777,62	24,444
777,80	14,674
777,99	54,777
778,18	5,096
778,36	22,901
778,55	8,148
778,74	-0,758
778,92	52,489
779,11	27,742
779,29	3,922
779,48	-18,182
779,67	9,353
779,85	23,200
780,04	30,282
780,23	32,867
780,41	-1,765
780,60	9,357
780,79	27,083
780,97	22,143
781,16	5,600
781,34	36,364
781,53	35,256
781,72	32,407
781,90	27,885
782,09	-4,098
782,28	18,699
782,46	-5,691
782,65	39,860
782,83	6,107
783,02	17,600
783,21	39,535
783,39	25,641
783,58	22,000
783,76	64,865
783,95	17,881
784,14	-9,474
784,32	8,257
784,51	51,685
784,69	17,197
784,88	45,806
785,06	24,113
785,25	-1,504
785,44	46,622
785,62	25,000
785,81	41,791
785,99	31,973
786,18	26,230
786,37	43,448
786,55	-26,119
786,74	68,944
786,92	10,465
787,11	41,600
787,29	15,294
787,48	17,000
787,67	-23,469
787,85	23,437
788,04	11,644
788,22	38,889
788,41	36,184
788,59	57,823
788,78	23,611
788,96	43,810
789,15	25,410
789,34	30,488
789,52	20,896
789,71	-55,556
789,89	20,175
790,08	19,608
790,26	41,270
790,45	38,686
790,63	3,947
790,82	2,419
791,00	30,159
791,19	5,000
791,38	50,685
791,56	-25,000
791,75	16,216
791,93	-18,627
792,12	8,333
792,30	27,632
792,49	-2,804
792,67	23,571
792,86	33,784
793,04	21,429
793,23	55,921
793,41	40,645
793,60	25,949
793,78	46,980
793,97	32,759
794,15	19,608
794,34	0,000
794,52	39,535
794,71	52,469
794,89	19,286
795,08	42,308
795,26	28,000
795,45	58,511
795,63	35,849
795,82	30,252
796,00	-61,538
796,19	16,883
796,37	6,780
796,56	-11,111
796,74	47,656
796,93	38,655
797,11	4,167
797,30	22,901
797,48	39,860
797,67	24,194
797,85	19,565
798,04	32,432
798,22	53,957
798,41	59,322
798,59	10,000
798,77	35,897
798,96	13,710
799,14	49,074
799,33	56,637
799,51	12,871
799,70	15,385
799,88	18,349
800,07	24,460
800,25	53,435
800,44	11,881
800,62	39,568
800,80	17,045
800,99	11,538
801,17	22,759
801,36	26,042
801,54	62,791
801,73	14,394
801,91	0,000
802,10	30,588
802,28	16,535
802,46	41,935
802,65	39,073
802,83	24,793
803,02	52,551
803,20	45,763
803,39	24,771
803,57	3,521
803,75	41,429
803,94	47,297
804,12	18,634
804,31	29,808
804,49	22,581
804,67	-7,207
804,86	49,689
805,04	44,961
805,23	52,555
805,41	17,647
805,59	12,048
805,78	40,000
805,96	41,566
806,15	30,400
806,33	-5,109
806,51	64,744
806,70	13,953
806,88	-9,091
807,07	22,951
807,25	21,739
807,43	0,000
807,62	38,281
807,80	29,878
807,99	34,532
808,17	8,333
808,35	-27,358
808,54	30,168
808,72	23,077
808,90	38,211
809,09	16,058
809,27	34,951
809,46	27,103
809,64	31,792
809,82	21,379
810,01	27,419
810,19	10,000
810,37	47,727
810,56	10,596
810,74	44,654
810,92	4,930
811,11	9,202
811,29	22,360
811,48	-13,043
811,66	26,396
811,84	0,847
812,03	-2,703
812,21	38,182
812,39	8,871
812,58	21,637
812,76	45,985
812,94	22,148
813,13	10,366
813,31	34,921
813,49	18,667
813,68	5,738
813,86	32,692
814,04	10,811
814,23	16,154
814,41	8,219
814,59	28,758
814,78	20,805
814,96	32,961
815,14	26,131
815,33	-1,653
815,51	30,709
815,69	11,450
815,87	7,097
816,06	38,806
816,24	9,150
816,42	14,881
816,61	16,667
816,79	14,451
816,97	51,923
817,16	19,048
817,34	14,706
817,52	28,972
817,70	4,663
817,89	27,751
818,07	20,000
818,25	13,924
818,44	26,738
818,62	16,832
818,80	9,890
818,98	7,179
819,17	25,000
819,35	24,832
819,53	22,564
819,72	28,649
819,90	36,000
820,08	31,188
820,26	-2,740
820,45	16,667
820,63	26,901
820,81	24,771
820,99	22,707
821,18	33,735
821,36	22,500
821,54	5,970
821,73	25,683
821,91	21,127
822,09	0,592
822,27	30,350
822,46	13,793
822,64	-1,053
822,82	24,365
823,00	20,419
823,19	29,524
823,37	41,453
823,55	19,409
823,73	23,596
823,91	13,369
824,10	8,333
824,28	22,314
824,46	-44,079
824,64	19,557
824,83	10,900
825,01	0,588
825,19	14,847
825,37	-3,922
825,56	19,466
825,74	2,165
825,92	29,572
826,10	20,264
826,28	25,092
826,47	31,518
826,65	7,554
826,83	21,930
827,01	22,835
827,19	34,109
827,38	19,101
827,56	23,500
827,74	-9,479
827,92	12,683
828,10	10,764
828,29	-1,476
828,47	13,869
828,65	12,891
828,83	8,439
829,01	28,378
829,20	7,692
829,38	19,262
829,56	18,182
829,74	18,846
829,92	24,696
830,10	15,451
830,29	22,605
830,47	10,448
830,65	-8,787
830,83	21,429
831,01	15,247
831,20	8,029
831,38	12,378
831,56	18,596
831,74	18,305
831,92	15,018
832,10	28,165
832,29	26,148
832,47	18,085
832,65	12,459
832,83	24,684
833,01	11,480
833,19	13,068
833,37	26,444
833,56	19,940
833,74	17,377
833,92	15,541
834,10	14,157
834,28	15,679
834,46	24,277
834,64	16,000
834,83	9,065
835,01	18,277
835,19	17,376
835,37	22,316
835,55	22,663
835,73	9,322
835,91	28,614
836,09	20,066
836,28	11,890
836,46	24,484
836,64	12,598
836,82	19,780
837,00	12,780
837,18	18,333
837,36	18,475
837,54	14,481
837,72	12,911
837,91	23,229
838,09	10,000
838,27	15,026
838,45	27,123
838,63	18,873
838,81	21,277
838,99	7,692
839,17	14,286
839,35	24,831
839,53	31,378
839,72	24,176
839,90	17,556
840,08	19,529
840,26	16,010
840,44	18,066
840,62	8,356
840,80	27,253
840,98	30,425
841,16	25,543
841,34	29,412
841,52	25,870
841,70	13,896
841,89	23,918
842,07	17,931
842,25	29,140
842,43	23,114
842,61	26,478
842,79	25,170
842,97	22,197
843,15	13,987
843,33	25,103
843,51	27,174
843,69	17,578
843,87	28,831
844,05	28,294
844,23	25,156
844,41	30,616
844,59	21,784
844,77	26,186
844,95	29,004
845,13	26,105
845,31	19,646
845,50	25,880
845,68	30,621
845,86	20,325
846,04	22,320
846,22	21,579
846,40	17,769
846,58	22,709
846,76	16,024
846,94	15,109
847,12	26,538
847,30	15,009
847,48	18,033
847,66	18,724
847,84	22,792
848,02	17,831
848,20	24,294
848,38	17,857
848,56	20,826
848,74	21,494
848,92	25,601
849,10	25,880
849,28	16,850
849,46	8,688
849,64	18,760
849,82	22,364
850,00	15,683
850,18	17,908
850,36	13,576
850,54	23,962
850,72	16,978
850,90	19,440
851,08	10,709
851,26	13,269
851,44	16,640
851,62	23,862
851,80	14,458
851,98	16,893
852,16	24,365
852,34	15,775
852,52	10,651
852,70	21,771
852,87	14,847
853,05	10,029
853,23	14,012
853,41	22,535
853,59	18,182
853,77	19,767
853,95	16,814
854,13	18,182
854,31	7,682
854,49	14,205
854,67	20,253
854,85	17,251
855,03	25,823
855,21	16,534
855,39	23,277
855,57	22,549
855,75	16,866
855,93	16,854
856,11	22,309
856,28	24,634
856,46	24,474
856,64	22,338
856,82	32,103
857,00	28,299
857,18	24,371
857,36	24,378
857,54	29,111
857,72	30,692
857,90	27,812
858,08	25,260
858,26	31,748
858,44	22,461
858,61	26,102
858,79	27,294
858,97	28,926
859,15	29,085
859,33	26,433
859,51	26,821
859,69	28,295
859,87	28,900
860,05	23,001
860,23	22,811
860,40	21,093
860,58	23,862
860,76	20,217
860,94	16,880
861,12	22,027
861,30	25,261
861,48	17,373
861,66	19,624
861,84	21,537
862,01	22,923
862,19	20,224
862,37	16,251
862,55	18,522
862,73	13,740
862,91	22,835
863,09	21,355
863,27	19,195
863,44	20,846
863,62	20,450
863,80	19,805
863,98	22,099
864,16	19,392
864,34	17,764
864,52	23,028
864,69	18,072
864,87	20,102
865,05	17,609
865,23	15,455
865,41	14,187
865,59	20,696
865,76	18,166
865,94	16,206
866,12	16,957
866,30	20,493
866,48	21,081
866,66	21,043
866,83	21,508
867,01	21,006
867,19	17,230
867,37	19,569
867,55	21,684
867,73	22,075
867,90	18,211
868,08	21,786
868,26	20,382
868,44	17,224
868,62	23,888
868,79	16,499
868,97	18,232
869,15	17,800
869,33	19,714
869,51	18,396
869,69	17,566
869,86	16,080
870,04	16,978
870,22	15,487
870,40	16,641
870,57	19,127
870,75	16,591
870,93	18,210
871,11	14,812
871,29	9,335
871,46	11,615
871,64	19,274
871,82	14,630
872,00	17,319
872,18	13,630
872,35	16,053
872,53	15,839
872,71	13,152
872,89	14,559
873,06	13,623
873,24	14,802
873,42	13,058
873,60	15,152
873,77	13,791
873,95	14,823
874,13	12,955
874,31	13,488
874,49	12,666
874,66	14,333
874,84	14,766
875,02	15,508
875,20	13,873
875,37	14,594
875,55	13,979
875,73	14,929
875,91	14,764
876,08	14,016
876,26	15,052
876,44	14,388
876,61	14,979
876,79	11,376
876,97	14,153
877,15	15,075
877,32	15,119
877,50	16,815
877,68	15,823
877,86	14,201
878,03	15,321
878,21	17,865
878,39	18,318
878,56	17,697
878,74	18,557
878,92	16,578
879,10	20,527
879,27	20,382
879,45	19,285
879,63	20,435
879,80	18,477
879,98	18,912
880,16	21,009
880,34	20,032
880,51	23,721
880,69	23,910
880,87	22,222
881,04	23,805
881,22	23,915
881,40	24,411
881,57	21,153
881,75	22,386
881,93	23,390
882,10	24,566
882,28	25,164
882,46	22,097
882,63	25,581
882,81	25,529
882,99	23,910
883,16	28,305
883,34	27,953
883,52	25,965
883,69	26,370
883,87	24,021
884,05	25,194
884,22	26,203
884,40	26,679
884,58	23,248
884,75	26,285
884,93	26,910
885,11	29,109
885,28	26,741
885,46	27,369
885,64	28,081
885,81	25,409
885,99	26,478
886,17	26,017
886,34	28,276
886,52	28,153
886,70	27,505
886,87	27,629
887,05	27,851
887,22	27,318
887,40	29,945
887,58	26,340
887,75	27,925
887,93	27,577
888,11	26,354
888,28	28,817
888,46	29,967
888,63	30,616
888,81	28,013
888,99	29,215
889,16	32,273
889,34	30,868
889,51	30,214
889,69	32,217
889,87	31,753
890,04	32,045
890,22	31,543
890,39	31,547
890,57	34,110
890,75	32,484
890,92	34,242
891,10	34,087
891,27	35,526
891,45	35,467
891,63	35,024
891,80	37,667
891,98	34,788
892,15	39,613
892,33	37,192
892,51	36,568
892,68	38,904
892,86	38,830
893,03	37,984
893,21	41,398
893,38	39,628
893,56	41,855
893,74	41,748
893,91	42,498
894,09	42,190
894,26	39,477
894,44	42,635
894,61	40,452
894,79	40,960
894,96	43,377
895,14	42,508
895,32	42,516
895,49	41,391
895,67	42,962
895,84	41,182
896,02	41,603
896,19	41,007
896,37	40,510
896,54	43,129
896,72	42,397
896,89	40,690
897,07	42,400
897,25	41,528
897,42	40,485
897,60	39,690
897,77	39,933
897,95	38,699
898,12	39,069
898,30	38,569
898,47	37,854
898,65	38,307
898,82	39,080
899,00	39,577
899,17	39,250
899,35	36,503
899,52	38,221
899,70	39,247
899,87	38,484
900,05	38,309
900,22	38,241
900,40	37,513
900,57	37,679
900,75	40,325
900,92	38,283
901,10	40,064
901,27	39,543
901,45	39,776
901,62	41,060
901,80	40,761
901,97	41,295
902,15	42,667
902,32	43,478
902,50	42,853
902,67	42,081
902,85	44,289
903,02	44,542
903,20	44,040
903,37	46,259
903,54	44,817
903,72	45,087
903,89	47,399
904,07	45,050
904,24	47,054
904,42	48,221
904,59	49,197
904,77	49,701
904,94	50,711
905,12	48,837
905,29	49,069
905,47	49,518
905,64	48,567
905,81	48,680
905,99	49,309
906,16	51,686
906,34	49,199
906,51	50,439
906,69	49,787
906,86	49,760
907,03	46,961
907,21	50,440
907,38	47,265
907,56	45,904
907,73	48,737
907,91	49,356
908,08	46,856
908,25	47,570
908,43	46,560
908,60	47,905
908,78	47,705
908,95	46,979
909,13	44,326
909,30	46,368
909,47	43,021
909,65	44,683
909,82	44,696
910,00	44,577
910,17	43,922
910,34	43,098
910,52	42,841
910,69	42,149
910,87	44,590
911,04	42,527
911,21	43,501
911,39	43,268
911,56	43,594
911,73	42,584
911,91	43,394
912,08	44,120
912,26	43,538
912,43	42,403
912,60	43,359
912,78	42,896
912,95	44,037
913,13	41,701
913,30	43,600
913,47	44,283
913,65	43,968
913,82	44,253
913,99	43,548
914,17	43,647
914,34	43,614
914,51	43,123
914,69	45,096
914,86	46,155
915,03	44,026
915,21	42,674
915,38	43,495
915,56	46,001
915,73	44,496
915,90	44,011
916,08	43,051
916,25	43,961
916,42	46,582
916,60	45,013
916,77	45,234
916,94	44,696
917,12	44,272
917,29	45,195
917,46	43,662
917,64	44,003
917,81	43,804
917,98	43,009
918,16	44,451
918,33	44,800
918,50	41,854
918,67	42,559
918,85	41,994
919,02	41,567
919,19	41,438
919,37	41,598
919,54	41,330
919,71	39,834
919,89	39,912
920,06	38,606
920,23	39,717
920,41	38,625
920,58	37,751
920,75	37,025
920,92	36,858
921,10	36,924
921,27	36,984
921,44	36,222
921,62	34,905
921,79	35,654
921,96	35,938
922,13	34,670
922,31	35,403
922,48	35,036
922,65	36,338
922,82	34,154
923,00	34,492
923,17	34,470
923,34	33,322
923,52	34,192
923,69	33,663
923,86	33,472
924,03	33,034
924,21	33,874
924,38	33,169
924,55	32,750
924,72	33,818
924,90	33,158
925,07	34,045
925,24	34,016
925,41	33,660
925,59	34,350
925,76	34,363
925,93	33,929
926,10	34,369
926,28	32,974
926,45	33,295
926,62	34,275
926,79	34,203
926,96	33,728
927,14	32,817
927,31	33,603
927,48	33,535
927,65	34,787
927,83	33,968
928,00	33,518
928,17	32,121
928,34	32,156
928,51	31,971
928,69	32,459
928,86	31,583
929,03	32,758
929,20	33,855
929,37	31,974
929,55	32,986
929,72	31,827
929,89	31,569
930,06	32,358
930,23	30,430
930,41	31,259
930,58	31,614
930,75	30,415
930,92	32,750
931,09	32,237
931,27	31,075
931,44	30,898
931,61	31,007
931,78	29,912
931,95	31,417
932,12	30,243
932,30	29,658
932,47	31,031
932,64	29,963
932,81	31,704
932,98	30,282
933,16	30,530
933,33	32,001
933,50	29,714
933,67	30,199
933,84	29,130
934,01	29,188
934,18	30,834
934,36	28,987
934,53	30,313
934,70	30,964
934,87	29,046
935,04	29,617
935,21	30,055
935,38	29,875
935,56	29,516
935,73	29,185
935,90	28,567
936,07	30,167
936,24	30,070
936,41	29,630
936,58	29,454
936,76	30,483
936,93	29,616
937,10	30,055
937,27	29,958
937,44	30,162
937,61	30,074
937,78	29,181
937,95	29,898
938,13	30,807
938,30	31,581
938,47	30,717
938,64	30,560
938,81	31,358
938,98	31,515
939,15	31,397
939,32	32,853
939,49	31,302
939,66	30,889
939,84	32,157
940,01	32,269
940,18	33,574
940,35	32,812
940,52	33,952
940,69	33,697
940,86	34,165
941,03	37,085
941,20	36,014
941,37	35,574
941,54	35,680
941,71	36,432
941,89	36,047
942,06	36,623
942,23	37,840
942,40	37,062
942,57	38,307
942,74	38,672
942,91	40,315
943,08	41,059
943,25	41,517
943,42	40,602
943,59	42,315
943,76	42,556
943,93	41,645
944,10	45,016
944,27	44,825
944,44	45,067
944,61	45,492
944,79	46,859
944,96	45,817
945,13	46,344
945,30	46,874
945,47	47,360
945,64	48,368
945,81	49,002
945,98	50,689
946,15	49,447
946,32	48,502
946,49	50,609
946,66	51,414
946,83	50,797
947,00	51,466
947,17	51,603
947,34	52,792
947,51	53,236
947,68	52,417
947,85	52,715
948,02	51,364
948,19	55,418
948,36	54,559
948,53	51,710
948,70	53,886
948,87	54,172
949,04	53,273
949,21	55,610
949,38	53,928
949,55	52,685
949,72	53,795
949,89	55,084
950,06	55,072
950,23	53,868
950,40	51,650
950,57	53,600
950,74	53,015
950,91	52,998
951,08	54,517
951,25	56,205
951,42	52,376
951,59	54,126
951,76	52,005
951,93	51,707
952,10	51,851
952,27	51,935
952,44	52,734
952,61	54,243
952,77	54,421
952,94	49,860
953,11	53,021
953,28	53,608
953,45	53,536
953,62	52,870
953,79	53,752
953,96	54,193
954,13	52,261
954,30	51,882
954,47	52,821
954,64	51,277
954,81	50,150
954,98	52,753
955,15	51,418
955,32	52,165
955,49	50,264
955,65	49,893
955,82	52,689
955,99	53,237
956,16	51,606
956,33	51,066
956,50	51,806
956,67	53,491
956,84	52,383
957,01	52,129
957,18	50,458
957,35	58,675
957,52	51,983
957,68	52,337
957,85	49,395
958,02	53,829
958,19	48,965
958,36	52,248
958,53	50,453
958,70	52,166
958,87	53,279
959,04	54,008
959,21	51,204
959,37	53,732
959,54	51,178
959,71	47,147
959,88	52,124
960,05	48,653
960,22	51,104
960,39	49,454
960,56	48,994
960,72	54,335
960,89	56,367
961,06	53,568
961,23	47,249
961,40	52,920
961,57	41,813
961,74	50,234
961,90	51,747
962,07	50,497
962,24	51,782
962,41	44,184
962,58	49,387
962,75	48,521
962,92	46,705
963,08	44,960
963,25	42,654
963,42	42,647
963,59	43,546
963,76	52,057
963,93	42,254
964,10	39,562
964,26	46,862
964,43	42,077
964,60	40,385
964,77	42,420
964,94	50,615
965,10	46,732
965,27	40,878
965,44	46,000
965,61	43,629
965,78	45,870
965,95	39,966
966,11	39,875
966,28	37,802
966,45	42,286
966,62	36,111
966,79	40,041
966,95	30,388
967,12	45,455
967,29	44,159
967,46	38,696
967,63	31,852
967,79	33,696
967,96	37,795
968,13	47,962
968,30	37,432
968,47	48,285
968,63	34,024
968,80	55,862
968,97	50,571
969,14	38,643
969,31	44,231
969,47	42,902
969,64	52,805
969,81	51,228
969,98	41,520
970,14	47,407
970,31	46,953
970,48	41,637
970,65	56,338
970,81	38,095
970,98	63,670
971,15	47,465
971,32	40,254
971,48	31,985
971,65	52,941
971,82	50,000
971,99	37,811
972,15	60,000
972,32	43,210
972,49	54,506
972,66	33,628
972,82	34,653
972,99	51,064
973,16	67,010
973,33	38,571
973,49	74,444
973,66	36,134
973,83	59,184
974,00	75,410
974,16	28,931
974,33	75,000
974,50	59,028
974,67	54,737
974,83	49,718
975,00	47,826
975,17	80,272
975,33	43,478
975,50	59,394
975,67	63,393
975,84	75,177
976,00	49,231
976,17	92,647
976,34	58,156
976,50	31,304
976,67	69,828
976,84	60,256
977,00	54,887
977,17	61,417
977,34	83,871
977,50	50,000
977,67	54,386
977,84	34,545
978,01	80,460
978,17	100,000
978,34	30,208
978,51	-9,091
978,67	15,385
978,84	73,958
979,01	61,538
979,17	89,394
979,34	393,750
979,51	57,692
979,67	70,000
979,84	130,952
980,01	90,164
980,17	30,588
980,34	53,623
980,51	175,000
980,67	58,667
980,84	-1,724
981,01	128,205
981,17	58,000
981,34	250,000
981,50	58,824
981,67	170,690
981,84	5,172
982,00	97,826
982,17	313,636
982,34	41,026
982,50	331,579
982,67	99,074
982,84	90,476
983,00	108,000
983,17	158,333
983,33	109,677
983,50	31,522
983,67	50,000
983,83	866,667
984,00	103,125
984,17	30,000
984,33	100,000
984,50	37,500
984,66	75,000
984,83	58,140
985,00	160,656
985,16	35,897
985,33	193,750
985,49	137,931
985,66	63,636
985,83	121,053
985,99	49,550
986,16	208,000
986,32	94,203
986,49	208,333
986,66	-58,140
986,82	68,421
986,99	111,905
987,15	131,034
987,32	85,185
987,49	108,333
987,65	30,000
987,82	-47,059
987,98	-29,412
988,15	103,571
988,31	120,000
988,48	-16,667
988,65	196,296
988,81	115,217
988,98	250,000
989,14	116,327
989,31	180,000
989,47	92,683
989,64	47,143
989,80	346,667
989,97	158,824
990,14	121,739
990,30	110,000
990,47	65,854
990,63	282,609
990,80	175,758
990,96	370,833
991,13	91,667
991,29	45,098
991,46	117,647
991,62	55,882
991,79	115,789
991,95	145,000
992,12	95,349
992,29	104,000
992,45	-76,923
992,62	-360,000
992,78	-188,889
992,95	61,111
993,11	110,000
993,28	59,259
993,44	252,174
993,61	400,000
993,77	1020,000
993,94	220,930
994,10	285,714
994,27	240,000
994,43	188,235
994,60	27,273
994,76	263,158
994,93	381,818
995,09	48,649
995,26	87,654
995,42	84,746
995,59	157,143
995,75	256,250
995,92	81,818
996,08	216,667
996,25	333,333
996,41	56,250
996,58	248,649
996,74	30,000
996,91	333,333
997,07	180,769
997,23	108,511
997,40	800,000
997,56	226,667
997,73	0,000
997,89	200,000
998,06	-15,686
998,22	600,000
998,39	273,913
998,55	-195,833
998,72	305,000
998,88	1533,333
999,05	-92,308
999,21	291,304
999,37	-6100,000
999,54	-2100,000
999,70	230,769
999,87	-62,500
1000,03	31,250
1000,20	350,000
1000,36	3200,000
1000,52	216,667
1000,69	134,091
1000,85	134,483
1001,02	115,385
1001,18	111,364
1001,35	-106,667
1001,51	-271,429
1001,67	-1,333
1001,84	1033,333
1002,00	77,500
1002,17	140,909
1002,33	-64,706
1002,50	-233,333
1002,66	3300,000
1002,82	174,286
1002,99	-123,077
1003,15	69,565
1003,32	280,645
1003,48	40,000
1003,64	75,000
1003,81	-153,571
1003,97	363,636
1004,14	2133,333
1004,30	-1114,286
1004,46	775,000
1004,63	294,737
1004,79	-273,333
1004,95	135,294
1005,12	-0,000
1005,28	131,034
1005,45	134,615
1005,61	-1166,667
1005,77	160,526
1005,94	80,645
1006,10	-2700,000
1006,26	96,429
1006,43	422,222
1006,59	-137,037
1006,76	-108,000
1006,92	1000,000
1007,08	270,000
1007,25	-16,667
1007,41	-433,333
1007,57	-137,500
1007,74	-108,696
1007,90	-780,000
1008,06	128,571
1008,23	157,407
1008,39	2650,000
1008,55	-392,857
1008,72	475,000
1008,88	124,000
1009,04	328,000
1009,21	-176,471
1009,37	-450,000
1009,53	-47,368
1009,70	-61,538
1009,86	138,636
1010,02	476,923
1010,19	0,000
1010,35	281,250
1010,51	955,556
1010,68	487,500
1010,84	-1500,000
1011,00	77,778
1011,17	-940,000
1011,33	376,471
1011,49	178,125
1011,66	226,087
1011,82	-92,453
1011,98	-90,909
1012,14	93,939
1012,31	-780,000
1012,47	1533,333
1012,63	188,889
1012,80	228,000
1012,96	-154,545
1013,12	120,930
1013,29	184,211
1013,45	124,444
1013,61	111,111
1013,77	66,667
1013,94	59,375
1014,10	-12,121
1014,26	3000,000
1014,43	-112,121
1014,59	-700,000
1014,75	2900,000
1014,91	966,667
1015,08	540,000
1015,24	-766,667
1015,40	-288,235
1015,56	283,333
1015,73	268,889
1015,89	-14,286
1016,05	1180,000
1016,21	-466,667
1016,38	-80,000
1016,54	-253,846
1016,70	11,111
1016,86	260,606
1017,03	184,615
1017,19	60,870
1017,35	-307,692
1017,51	134,286
1017,68	236,364
1017,84	2300,000
1018,00	428,571
1018,16	95,833
1018,33	-457,143
1018,49	134,146
1018,65	-61,765
1018,81	-65,000
1018,97	-250,000
1019,14	346,667
1019,30	218,750
1019,46	611,111
1019,62	413,333
1019,79	350,000
1019,95	110,417
1020,11	-214,286
1020,27	266,667
1020,43	-385,714
1020,60	-278,947
1020,76	-194,444
1020,92	235,714
1021,08	1000,000
1021,24	405,000
1021,41	-20,588
1021,57	518,182
1021,73	-1100,000
1021,89	-235,714
1022,05	1025,000
1022,21	71,795
1022,38	-440,000
1022,54	1100,000
1022,70	-140,909
1022,86	1500,000
1023,02	-347,059
1023,19	-88,889
1023,35	287,097
1023,51	135,714
1023,67	220,833
1023,83	2233,333
1023,99	233,333
1024,16	69,048
1024,32	-4,000
1024,48	95,455
1024,64	788,889
1024,80	-88,889
1024,96	189,655
1025,12	-107,143
1025,29	100,000
1025,45	75,000
1025,61	-1933,333
1025,77	-116,129
1025,93	270,000
1026,09	78,049
1026,26	273,684
1026,42	-83,333
1026,58	-160,870
1026,74	341,667
1026,90	405,556
1027,06	-66,667
1027,22	-286,957
1027,38	110,870
1027,55	2200,000
1027,71	150,000
1027,87	-175,000
1028,03	-237,500
1028,19	-241,176
1028,35	-585,714
1028,51	360,000
1028,67	155,882
1028,83	164,444
1029,00	300,000
1029,16	51,351
1029,32	114,286
1029,48	-271,429
1029,64	-461,538
1029,80	200,000
1029,96	733,333
1030,12	147,368
1030,28	-1350,000
1030,44	780,000
1030,61	163,636
1030,77	-266,667
1030,93	-312,500
1031,09	425,000
1031,25	0,000
1031,41	640,000
1031,57	-875,000
1031,73	-1675,000
1031,89	-104,545
1032,05	-74,419
1032,21	24,242
1032,37	139,286
1032,53	-10,345
1032,69	288,462
1032,86	-600,000
1033,02	-355,556
1033,18	175,000
1033,34	-950,000
1033,50	93,750
1033,66	-112,000
1033,82	444,444
1033,98	2200,000
1034,14	-350,000
1034,30	-213,333
1034,46	217,647
1034,62	217,949
1034,78	-256,522
1034,94	193,548
1035,10	-307,692
1035,26	611,111
1035,42	-60,000
1035,58	183,333
1035,74	94,595
1035,90	306,250
1036,06	29,412
1036,22	139,394
1036,38	-387,500
1036,54	-125,000
1036,70	167,742
1036,86	50,000
1037,02	-107,143
1037,18	-88,235
1037,34	311,111
1037,50	-1020,000
1037,66	800,000
1037,82	280,952
1037,98	500,000
1038,14	150,000
1038,30	200,000
1038,46	-814,286
1038,62	366,667
1038,78	-285,714
1038,94	400,000
1039,10	196,000
1039,26	-95,833
1039,42	121,739
1039,58	-1275,000
1039,74	-300,000
1039,90	-158,333
1040,06	-0,000
>>>>>End Processed Spectral Data<<<<<
