SpectraSuite Data File
++++++++++++++++++++++++++++++++++++
Date: Tue Jan 31 19:21:38 EET 2017
User: optolab
Dark Spectrum Present: Yes
Reference Spectrum Present: Yes
Number of Sampled Component Spectra: 1
Spectrometers: USB4C02475
Integration Time (usec): 100000 (USB4C02475)
Spectra Averaged: 1 (USB4C02475)
Boxcar Smoothing: 0 (USB4C02475)
Correct for Electrical Dark: No (USB4C02475)
Strobe/Lamp Enabled: No (USB4C02475)
Correct for Detector Non-linearity: No (USB4C02475)
Correct for Stray Light: No (USB4C02475)
Number of Pixels in Processed Spectrum: 3648
>>>>>Begin Processed Spectral Data<<<<<
344,91	207,692
345,13	207,692
345,35	207,692
345,57	0,000
345,79	750,000
346,00	720,000
346,22	-177,778
346,44	46,154
346,66	1275,000
346,87	733,333
347,09	-80,556
347,31	-1900,000
347,53	-816,667
347,74	-123,077
347,96	133,333
348,18	1900,000
348,40	-392,857
348,61	105,714
348,83	109,756
349,05	128,571
349,27	331,579
349,48	155,769
349,70	364,706
349,92	104,878
350,14	66,667
350,35	229,268
350,57	140,000
350,79	241,176
351,01	161,538
351,22	600,000
351,44	183,333
351,66	230,769
351,87	53,846
352,09	221,212
352,31	543,750
352,53	155,556
352,74	123,810
352,96	158,140
353,18	131,481
353,40	117,391
353,61	95,000
353,83	400,000
354,05	115,152
354,26	242,857
354,48	-450,000
354,70	29,268
354,92	206,061
355,13	102,941
355,35	0,000
355,57	100,000
355,78	117,647
356,00	82,353
356,22	455,556
356,44	-353,846
356,65	121,212
356,87	-14,286
357,09	96,667
357,30	130,159
357,52	157,143
357,74	-2750,000
357,95	720,000
358,17	550,000
358,39	229,412
358,60	660,000
358,82	429,412
359,04	-168,750
359,26	178,125
359,47	108,696
359,69	-62,162
359,91	211,538
360,12	200,000
360,34	114,563
360,56	262,069
360,77	85,714
360,99	101,923
361,21	329,167
361,42	171,875
361,64	423,077
361,86	166,667
362,07	78,846
362,29	22,059
362,51	246,154
362,72	60,811
362,94	304,762
363,16	360,000
363,37	-37,097
363,59	248,276
363,81	-238,889
364,02	41,176
364,24	434,783
364,46	94,595
364,67	200,000
364,89	365,000
365,11	2000,000
365,32	125,301
365,54	400,000
365,76	74,138
365,97	64,286
366,19	250,000
366,41	238,462
366,62	223,684
366,84	197,368
367,05	103,077
367,27	-155,556
367,49	214,634
367,70	800,000
367,92	87,097
368,14	1600,000
368,35	142,254
368,57	112,821
368,79	150,000
369,00	0,000
369,22	266,667
369,43	209,091
369,65	79,104
369,87	85,915
370,08	1114,286
370,30	305,882
370,51	46,296
370,73	84,615
370,95	371,429
371,16	800,000
371,38	84,091
371,60	184,615
371,81	100,000
372,03	336,842
372,24	272,727
372,46	101,220
372,68	85,938
372,89	191,429
373,11	276,190
373,32	313,333
373,54	96,000
373,76	125,532
373,97	106,452
374,19	179,730
374,40	172,222
374,62	-466,667
374,84	224,000
375,05	64,865
375,27	162,264
375,48	167,442
375,70	75,000
375,92	220,833
376,13	95,556
376,35	2633,333
376,56	80,000
376,78	20,833
376,99	59,740
377,21	-5700,000
377,43	54,167
377,64	28,947
377,86	139,130
378,07	153,333
378,29	-41,935
378,51	202,564
378,72	84,444
378,94	116,176
379,15	208,571
379,37	75,000
379,58	162,500
379,80	61,538
380,01	925,000
380,23	278,947
380,45	98,077
380,66	305,556
380,88	100,000
381,09	108,571
381,31	72,464
381,52	77,778
381,74	150,746
381,95	158,537
382,17	160,000
382,39	268,182
382,60	615,385
382,82	220,000
383,03	175,000
383,25	98,718
383,46	70,732
383,68	101,786
383,89	690,000
384,11	95,455
384,32	-287,500
384,54	151,111
384,76	4000,000
384,97	113,580
385,19	93,750
385,40	114,583
385,62	311,111
385,83	218,919
386,05	127,907
386,26	37,838
386,48	144,000
386,69	152,830
386,91	179,412
387,12	91,667
387,34	21,569
387,55	79,545
387,77	152,381
387,98	-1142,857
388,20	145,161
388,41	192,308
388,63	86,047
388,84	84,615
389,06	-7,692
389,27	185,714
389,49	128,125
389,70	76,190
389,92	73,437
390,13	-100,000
390,35	14,000
390,56	168,182
390,78	245,161
390,99	1200,000
391,21	191,071
391,42	103,279
391,64	-11,111
391,85	-20,000
392,07	132,000
392,28	50,000
392,50	115,789
392,71	107,407
392,93	108,108
393,14	-94,737
393,36	287,500
393,57	131,373
393,79	48,485
394,00	101,818
394,22	68,182
394,43	132,500
394,65	1425,000
394,86	168,182
395,08	115,068
395,29	144,186
395,50	325,000
395,72	55,556
395,93	122,917
396,15	59,155
396,36	111,321
396,58	129,630
396,79	87,273
397,01	93,976
397,22	383,333
397,44	-760,000
397,65	75,000
397,87	48,718
398,08	40,000
398,29	393,750
398,51	112,500
398,72	62,000
398,94	98,649
399,15	118,367
399,37	128,205
399,58	161,290
399,80	-40,625
400,01	42,029
400,22	151,020
400,44	373,333
400,65	180,000
400,87	80,328
401,08	77,632
401,30	58,000
401,51	83,333
401,72	197,674
401,94	74,194
402,15	28,814
402,37	145,455
402,58	111,111
402,80	128,571
403,01	108,511
403,22	100,000
403,44	73,750
403,65	-290,909
403,87	92,308
404,08	56,923
404,30	55,172
404,51	73,214
404,72	126,829
404,94	131,429
405,15	91,304
405,37	109,722
405,58	177,273
405,79	92,405
406,01	100,000
406,22	7,317
406,44	81,633
406,65	64,384
406,86	53,535
407,08	191,667
407,29	82,022
407,51	97,959
407,72	85,185
407,93	71,812
408,15	64,865
408,36	95,370
408,58	74,797
408,79	116,129
409,00	93,182
409,22	105,495
409,43	75,281
409,64	50,877
409,86	59,574
410,07	41,667
410,29	78,652
410,50	88,356
410,71	66,279
410,93	55,294
411,14	66,406
411,35	85,345
411,57	55,825
411,78	47,393
412,00	46,328
412,21	52,023
412,42	75,490
412,64	50,463
412,85	46,632
413,06	64,878
413,28	104,571
413,49	54,545
413,70	63,538
413,92	54,682
414,13	61,004
414,34	66,667
414,56	48,065
414,77	65,530
414,98	56,418
415,20	48,329
415,41	41,693
415,63	30,793
415,84	65,644
416,05	59,223
416,27	56,763
416,48	54,250
416,69	49,758
416,91	52,033
417,12	52,174
417,33	54,632
417,55	45,595
417,76	44,534
417,97	53,877
418,19	49,303
418,40	52,995
418,61	45,969
418,83	47,312
419,04	47,805
419,25	55,229
419,46	49,843
419,68	50,927
419,89	49,703
420,10	42,337
420,32	44,106
420,53	41,531
420,74	48,231
420,96	51,317
421,17	44,844
421,38	45,993
421,60	51,599
421,81	54,409
422,02	50,606
422,23	56,100
422,45	48,273
422,66	55,847
422,87	53,834
423,09	55,062
423,30	56,098
423,51	53,590
423,73	53,384
423,94	56,647
424,15	57,133
424,36	61,866
424,58	58,447
424,79	61,534
425,00	64,294
425,22	71,186
425,43	73,681
425,64	73,967
425,85	74,904
426,07	69,683
426,28	72,260
426,49	71,601
426,71	66,636
426,92	67,634
427,13	61,805
427,34	61,253
427,56	58,442
427,77	55,409
427,98	56,360
428,19	52,630
428,41	58,824
428,62	57,138
428,83	60,247
429,04	60,353
429,26	60,971
429,47	61,141
429,68	59,704
429,89	61,984
430,11	59,333
430,32	57,127
430,53	57,281
430,74	55,839
430,96	54,233
431,17	55,410
431,38	53,624
431,59	54,197
431,81	53,662
432,02	54,914
432,23	53,412
432,44	55,214
432,66	54,069
432,87	56,387
433,08	54,777
433,29	55,764
433,51	56,100
433,72	54,772
433,93	55,241
434,14	55,114
434,35	55,919
434,57	56,614
434,78	56,716
434,99	59,235
435,20	58,286
435,42	59,063
435,63	56,565
435,84	54,599
436,05	54,631
436,26	52,635
436,48	51,067
436,69	50,138
436,90	48,815
437,11	47,125
437,32	45,083
437,54	43,222
437,75	43,480
437,96	42,376
438,17	42,627
438,38	42,022
438,60	43,167
438,81	44,026
439,02	44,496
439,23	46,867
439,44	48,659
439,66	51,164
439,87	52,149
440,08	53,436
440,29	54,751
440,50	53,969
440,72	54,032
440,93	53,621
441,14	53,537
441,35	51,992
441,56	49,560
441,77	47,443
441,99	45,574
442,20	44,540
442,41	43,206
442,62	41,528
442,83	39,827
443,04	38,877
443,26	37,457
443,47	35,729
443,68	33,997
443,89	31,814
444,10	28,949
444,31	26,566
444,53	24,621
444,74	22,765
444,95	20,045
445,16	18,290
445,37	16,056
445,58	14,822
445,80	12,108
446,01	11,065
446,22	9,729
446,43	8,322
446,64	7,313
446,85	6,656
447,06	5,814
447,28	5,053
447,49	4,741
447,70	3,926
447,91	3,929
448,12	3,515
448,33	2,998
448,54	2,535
448,76	2,483
448,97	2,400
449,18	2,004
449,39	2,183
449,60	1,930
449,81	1,883
450,02	1,528
450,23	1,339
450,45	1,149
450,66	0,810
450,87	0,729
451,08	0,444
451,29	0,748
451,50	0,425
451,71	0,312
451,92	0,458
452,13	0,437
452,35	0,291
452,56	0,445
452,77	0,474
452,98	0,125
453,19	0,174
453,40	0,481
453,61	0,578
453,82	0,287
454,03	0,580
454,25	0,596
454,46	0,294
454,67	0,688
454,88	0,410
455,09	0,392
455,30	0,298
455,51	0,574
455,72	0,259
455,93	0,130
456,14	0,528
456,35	0,309
456,56	0,306
456,78	0,443
456,99	0,369
457,20	0,148
457,41	0,241
457,62	0,112
457,83	0,311
458,04	0,233
458,25	0,259
458,46	0,119
458,67	0,657
458,88	0,351
459,09	-0,141
459,30	0,512
459,51	0,266
459,73	0,291
459,94	0,354
460,15	0,255
460,36	0,389
460,57	0,520
460,78	0,453
460,99	0,327
461,20	0,489
461,41	0,153
461,62	0,115
461,83	0,191
462,04	0,392
462,25	0,031
462,46	0,204
462,67	0,193
462,88	0,187
463,09	0,258
463,30	0,121
463,51	0,237
463,72	0,171
463,93	0,134
464,15	0,254
464,36	0,315
464,57	0,334
464,78	0,163
464,99	0,335
465,20	0,038
465,41	0,225
465,62	0,257
465,83	0,179
466,04	0,308
466,25	0,180
466,46	0,530
466,67	0,162
466,88	0,275
467,09	0,184
467,30	0,198
467,51	0,186
467,72	0,354
467,93	0,187
468,14	0,190
468,35	0,307
468,56	0,276
468,77	0,210
468,98	0,213
469,19	0,229
469,40	0,289
469,61	0,027
469,82	0,252
470,03	0,247
470,24	0,314
470,45	0,443
470,66	0,274
470,87	0,329
471,08	0,425
471,29	0,262
471,50	0,336
471,71	0,004
471,92	0,411
472,13	0,515
472,34	0,356
472,55	0,342
472,76	0,200
472,97	0,446
473,18	0,352
473,39	0,249
473,60	0,356
473,81	0,362
474,01	0,367
474,22	0,341
474,43	0,454
474,64	0,460
474,85	0,253
475,06	0,424
475,27	0,163
475,48	0,482
475,69	0,403
475,90	0,559
476,11	0,476
476,32	0,357
476,53	0,497
476,74	0,529
476,95	0,497
477,16	0,455
477,37	0,432
477,58	0,532
477,79	0,569
478,00	0,538
478,21	0,613
478,41	0,350
478,62	0,522
478,83	0,643
479,04	0,630
479,25	0,873
479,46	0,994
479,67	1,355
479,88	1,499
480,09	1,922
480,30	1,769
480,51	2,177
480,72	2,371
480,93	2,587
481,14	3,053
481,34	3,340
481,55	3,460
481,76	3,645
481,97	4,076
482,18	4,491
482,39	4,542
482,60	5,477
482,81	5,749
483,02	6,724
483,23	6,768
483,44	7,452
483,65	8,099
483,85	9,019
484,06	9,765
484,27	10,517
484,48	11,165
484,69	12,437
484,90	12,938
485,11	13,797
485,32	14,644
485,53	15,503
485,73	16,610
485,94	17,491
486,15	18,199
486,36	19,550
486,57	20,434
486,78	21,551
486,99	22,732
487,20	24,039
487,41	25,066
487,61	26,210
487,82	27,490
488,03	28,301
488,24	29,749
488,45	30,336
488,66	31,334
488,87	32,559
489,08	32,718
489,28	33,787
489,49	34,311
489,70	35,897
489,91	35,740
490,12	37,455
490,33	38,507
490,54	39,184
490,74	39,908
490,95	39,952
491,16	41,639
491,37	41,372
491,58	42,280
491,79	42,253
492,00	42,824
492,20	43,521
492,41	43,816
492,62	44,433
492,83	45,968
493,04	45,102
493,25	44,961
493,45	45,259
493,66	44,805
493,87	45,726
494,08	45,293
494,29	46,168
494,50	45,522
494,70	46,424
494,91	46,383
495,12	46,395
495,33	46,239
495,54	46,783
495,75	46,437
495,95	46,956
496,16	47,168
496,37	47,144
496,58	46,940
496,79	46,703
496,99	46,754
497,20	46,474
497,41	46,299
497,62	46,568
497,83	46,892
498,04	46,932
498,24	46,476
498,45	47,077
498,66	47,113
498,87	46,933
499,08	46,901
499,28	46,793
499,49	46,878
499,70	46,807
499,91	46,757
500,12	46,086
500,32	46,709
500,53	46,815
500,74	46,732
500,95	46,841
501,15	46,179
501,36	47,161
501,57	46,364
501,78	45,961
501,99	45,089
502,19	46,021
502,40	45,535
502,61	44,851
502,82	45,298
503,02	45,275
503,23	44,965
503,44	44,710
503,65	45,159
503,86	45,133
504,06	45,545
504,27	44,826
504,48	44,718
504,69	43,706
504,89	44,923
505,10	43,535
505,31	43,382
505,52	43,597
505,72	44,425
505,93	44,744
506,14	45,065
506,35	46,306
506,55	47,405
506,76	48,469
506,97	50,780
507,18	52,816
507,38	54,266
507,59	56,714
507,80	58,575
508,01	60,921
508,21	62,442
508,42	63,849
508,63	66,023
508,84	67,512
509,04	68,201
509,25	70,386
509,46	71,073
509,67	71,453
509,87	71,706
510,08	72,606
510,29	73,834
510,49	74,397
510,70	74,215
510,91	73,923
511,12	74,647
511,32	75,463
511,53	75,479
511,74	75,720
511,94	75,928
512,15	76,377
512,36	75,149
512,57	74,215
512,77	74,822
512,98	73,402
513,19	73,493
513,39	72,756
513,60	72,046
513,81	72,166
514,01	71,995
514,22	73,073
514,43	72,339
514,64	73,428
514,84	73,482
515,05	74,086
515,26	74,638
515,46	76,204
515,67	77,251
515,88	78,358
516,08	78,534
516,29	80,379
516,50	81,323
516,70	82,882
516,91	83,284
517,12	84,539
517,32	85,102
517,53	86,937
517,74	86,817
517,95	86,925
518,15	87,740
518,36	88,419
518,57	88,496
518,77	89,149
518,98	89,600
519,19	89,285
519,39	89,838
519,60	89,094
519,80	90,442
520,01	89,937
520,22	89,684
520,42	90,060
520,63	90,784
520,84	90,557
521,04	90,177
521,25	90,613
521,46	90,420
521,66	90,882
521,87	90,557
522,08	90,794
522,28	91,017
522,49	90,533
522,70	90,557
522,90	91,503
523,11	91,481
523,31	90,092
523,52	89,641
523,73	89,449
523,93	88,587
524,14	89,389
524,35	87,841
524,55	87,956
524,76	86,903
524,97	87,333
525,17	87,505
525,38	87,281
525,58	87,098
525,79	87,320
526,00	87,330
526,20	87,393
526,41	87,962
526,61	88,146
526,82	87,878
527,03	87,932
527,23	88,095
527,44	89,002
527,64	87,627
527,85	87,202
528,06	86,365
528,26	86,807
528,47	86,877
528,68	86,177
528,88	85,700
529,09	84,962
529,29	85,362
529,50	83,483
529,70	84,287
529,91	82,509
530,12	83,581
530,32	82,921
530,53	82,598
530,73	83,124
530,94	82,508
531,15	82,025
531,35	83,187
531,56	81,821
531,76	81,085
531,97	82,030
532,17	80,750
532,38	81,527
532,59	80,360
532,79	80,031
533,00	81,199
533,20	80,488
533,41	80,825
533,61	78,963
533,82	79,353
534,03	78,403
534,23	77,278
534,44	75,792
534,64	74,800
534,85	73,573
535,05	72,867
535,26	70,468
535,46	68,342
535,67	66,737
535,88	64,587
536,08	62,061
536,29	59,377
536,49	57,295
536,70	54,218
536,90	51,372
537,11	48,780
537,31	44,697
537,52	42,314
537,72	39,042
537,93	36,226
538,13	33,252
538,34	29,928
538,55	26,757
538,75	24,439
538,96	21,578
539,16	19,109
539,37	17,298
539,57	14,980
539,78	13,247
539,98	11,688
540,19	10,407
540,39	8,923
540,60	8,092
540,80	7,148
541,01	6,344
541,21	5,531
541,42	5,097
541,62	4,423
541,83	4,045
542,03	3,781
542,24	3,554
542,44	2,971
542,65	2,314
542,85	2,321
543,06	2,287
543,26	1,827
543,47	1,451
543,67	1,613
543,88	1,175
544,08	1,083
544,29	1,153
544,49	0,883
544,70	0,809
544,90	0,771
545,11	0,850
545,31	0,710
545,52	0,471
545,72	0,592
545,93	0,763
546,13	0,680
546,34	0,661
546,54	0,459
546,75	0,588
546,95	0,519
547,15	0,315
547,36	0,514
547,56	0,666
547,77	0,368
547,97	0,311
548,18	0,403
548,38	0,365
548,59	0,390
548,79	0,394
549,00	0,277
549,20	0,325
549,41	0,219
549,61	0,378
549,81	0,399
550,02	0,288
550,22	0,420
550,43	0,376
550,63	0,240
550,84	0,184
551,04	0,428
551,25	0,407
551,45	0,392
551,65	0,287
551,86	0,520
552,06	0,325
552,27	0,505
552,47	0,232
552,68	0,408
552,88	0,259
553,08	0,420
553,29	0,202
553,49	0,231
553,70	0,253
553,90	0,249
554,11	0,342
554,31	0,310
554,51	0,252
554,72	0,251
554,92	0,262
555,13	0,229
555,33	0,216
555,53	0,537
555,74	0,389
555,94	0,185
556,15	0,580
556,35	0,084
556,56	0,345
556,76	0,177
556,96	0,231
557,17	0,256
557,37	0,263
557,58	0,426
557,78	0,406
557,98	0,220
558,19	0,291
558,39	0,231
558,59	0,387
558,80	0,591
559,00	0,398
559,21	0,368
559,41	0,135
559,61	0,286
559,82	0,488
560,02	0,519
560,23	0,227
560,43	0,344
560,63	0,257
560,84	0,313
561,04	0,338
561,24	0,515
561,45	0,439
561,65	0,503
561,85	0,466
562,06	0,607
562,26	0,588
562,47	0,560
562,67	0,764
562,87	0,835
563,08	0,953
563,28	1,111
563,48	1,375
563,69	1,712
563,89	1,954
564,09	2,190
564,30	2,466
564,50	2,856
564,70	3,347
564,91	3,733
565,11	4,323
565,31	4,912
565,52	5,657
565,72	6,305
565,92	6,972
566,13	7,844
566,33	8,882
566,53	9,655
566,74	10,455
566,94	11,286
567,14	12,179
567,35	12,821
567,55	14,101
567,75	14,654
567,96	15,797
568,16	16,164
568,36	16,952
568,57	17,608
568,77	19,178
568,97	19,665
569,18	19,861
569,38	21,224
569,58	21,376
569,79	22,529
569,99	22,780
570,19	23,508
570,39	23,373
570,60	24,078
570,80	24,178
571,00	24,798
571,21	25,453
571,41	25,444
571,61	25,756
571,82	26,601
572,02	26,597
572,22	27,614
572,42	27,968
572,63	28,268
572,83	29,056
573,03	29,657
573,24	30,519
573,44	30,675
573,64	31,935
573,84	32,085
574,05	33,127
574,25	32,854
574,45	34,098
574,66	34,233
574,86	35,059
575,06	35,662
575,26	35,349
575,47	36,132
575,67	36,617
575,87	36,697
576,07	36,829
576,28	37,570
576,48	37,014
576,68	37,436
576,88	37,401
577,09	37,835
577,29	37,924
577,49	37,652
577,69	38,026
577,90	37,906
578,10	38,300
578,30	38,635
578,50	38,503
578,71	38,780
578,91	38,678
579,11	39,179
579,31	38,798
579,52	39,796
579,72	39,747
579,92	39,822
580,12	40,666
580,33	40,273
580,53	40,459
580,73	40,787
580,93	40,439
581,13	41,233
581,34	40,558
581,54	40,941
581,74	41,351
581,94	41,267
582,15	41,426
582,35	41,753
582,55	41,845
582,75	41,865
582,95	42,272
583,16	42,152
583,36	43,323
583,56	43,047
583,76	43,398
583,96	44,110
584,17	44,572
584,37	44,541
584,57	44,617
584,77	44,207
584,97	45,015
585,18	45,381
585,38	45,981
585,58	45,649
585,78	46,369
585,98	45,984
586,19	45,828
586,39	46,431
586,59	45,930
586,79	46,497
586,99	46,337
587,20	46,278
587,40	46,823
587,60	46,549
587,80	45,908
588,00	46,941
588,20	46,881
588,41	46,262
588,61	46,243
588,81	46,160
589,01	46,739
589,21	46,243
589,41	47,072
589,62	46,284
589,82	46,294
590,02	46,710
590,22	46,884
590,42	46,881
590,62	47,267
590,83	47,251
591,03	47,187
591,23	47,428
591,43	47,114
591,63	48,030
591,83	47,755
592,03	47,454
592,24	48,273
592,44	48,229
592,64	49,421
592,84	50,484
593,04	50,140
593,24	51,137
593,44	51,945
593,65	53,137
593,85	54,543
594,05	55,276
594,25	57,307
594,45	57,739
594,65	59,973
594,85	59,974
595,06	63,067
595,26	63,564
595,46	64,561
595,66	65,328
595,86	66,731
596,06	67,241
596,26	67,150
596,46	67,375
596,66	68,367
596,87	68,144
597,07	67,295
597,27	67,529
597,47	67,482
597,67	68,082
597,87	67,233
598,07	66,672
598,27	66,352
598,47	67,983
598,67	66,307
598,88	67,247
599,08	67,194
599,28	67,971
599,48	67,222
599,68	67,594
599,88	67,188
600,08	67,847
600,28	68,908
600,48	68,232
600,68	69,248
600,88	68,901
601,09	69,825
601,29	69,897
601,49	69,938
601,69	69,692
601,89	69,547
602,09	69,848
602,29	69,191
602,49	68,421
602,69	69,483
602,89	69,670
603,09	68,003
603,29	68,259
603,49	68,197
603,69	68,358
603,90	68,616
604,10	68,678
604,30	69,063
604,50	68,654
604,70	69,692
604,90	70,078
605,10	70,567
605,30	70,817
605,50	71,333
605,70	72,561
605,90	72,187
606,10	72,868
606,30	73,732
606,50	72,996
606,70	73,335
606,90	74,720
607,10	74,671
607,30	75,080
607,50	76,008
607,70	76,858
607,90	76,340
608,10	77,634
608,30	77,661
608,50	77,418
608,70	78,810
608,90	78,709
609,11	79,911
609,31	80,540
609,51	80,325
609,71	81,327
609,91	81,270
610,11	82,141
610,31	83,467
610,51	83,061
610,71	83,295
610,91	84,108
611,11	84,416
611,31	84,760
611,51	85,716
611,71	86,020
611,91	86,623
612,11	85,741
612,31	86,159
612,51	85,880
612,71	85,184
612,91	84,607
613,11	84,940
613,31	82,564
613,51	81,690
613,71	79,453
613,91	79,200
614,11	79,250
614,31	77,060
614,50	75,091
614,70	73,798
614,90	72,943
615,10	70,028
615,30	69,312
615,50	67,461
615,70	65,689
615,90	64,141
616,10	62,280
616,30	61,152
616,50	60,061
616,70	58,860
616,90	58,215
617,10	56,073
617,30	55,899
617,50	54,881
617,70	54,305
617,90	52,637
618,10	52,268
618,30	51,378
618,50	50,476
618,70	50,210
618,90	49,335
619,10	48,933
619,30	48,136
619,49	47,509
619,69	46,447
619,89	45,419
620,09	45,016
620,29	43,667
620,49	42,634
620,69	42,549
620,89	40,788
621,09	40,059
621,29	38,457
621,49	36,439
621,69	35,852
621,89	33,674
622,09	31,744
622,29	29,594
622,48	27,258
622,68	25,439
622,88	24,027
623,08	21,818
623,28	19,827
623,48	17,688
623,68	15,646
623,88	14,297
624,08	12,269
624,28	10,880
624,48	9,338
624,67	8,237
624,87	7,091
625,07	6,216
625,27	5,227
625,47	4,396
625,67	3,522
625,87	3,120
626,07	2,630
626,27	2,244
626,47	1,814
626,66	1,485
626,86	1,389
627,06	1,164
627,26	0,913
627,46	0,647
627,66	0,849
627,86	0,638
628,06	0,572
628,25	0,314
628,45	0,404
628,65	0,482
628,85	0,453
629,05	0,403
629,25	0,360
629,45	0,200
629,65	0,264
629,84	0,307
630,04	0,174
630,24	0,377
630,44	0,145
630,64	0,336
630,84	0,298
631,04	0,209
631,23	0,222
631,43	0,386
631,63	0,045
631,83	0,357
632,03	0,296
632,23	0,228
632,42	0,222
632,62	0,173
632,82	0,295
633,02	0,231
633,22	0,102
633,42	0,095
633,62	0,219
633,81	0,192
634,01	0,078
634,21	0,300
634,41	0,369
634,61	0,300
634,80	0,352
635,00	0,100
635,20	0,233
635,40	0,320
635,60	0,248
635,80	0,199
635,99	0,303
636,19	0,044
636,39	0,060
636,59	0,436
636,79	0,447
636,98	0,226
637,18	0,296
637,38	0,204
637,58	0,095
637,78	-0,133
637,97	-0,011
638,17	0,055
638,37	0,022
638,57	0,145
638,77	0,224
638,96	0,208
639,16	-0,102
639,36	0,363
639,56	0,333
639,76	0,163
639,95	0,035
640,15	0,190
640,35	0,184
640,55	0,307
640,75	0,291
640,94	0,114
641,14	0,191
641,34	0,147
641,54	0,173
641,73	0,564
641,93	0,202
642,13	0,189
642,33	-0,013
642,53	0,288
642,72	0,173
642,92	0,163
643,12	0,156
643,32	0,020
643,51	-0,026
643,71	0,314
643,91	0,670
644,11	0,367
644,30	0,163
644,50	0,204
644,70	0,561
644,90	-0,070
645,09	-0,041
645,29	0,208
645,49	0,359
645,69	0,254
645,88	-0,057
646,08	0,036
646,28	0,244
646,48	0,272
646,67	0,095
646,87	0,029
647,07	0,499
647,26	0,254
647,46	0,193
647,66	0,105
647,86	0,052
648,05	0,333
648,25	0,361
648,45	0,089
648,65	-0,137
648,84	-0,015
649,04	0,008
649,24	0,284
649,43	0,038
649,63	0,271
649,83	0,446
650,03	0,276
650,22	0,375
650,42	0,268
650,62	-0,117
650,81	0,047
651,01	0,127
651,21	0,212
651,40	0,245
651,60	-0,056
651,80	0,523
652,00	0,032
652,19	0,263
652,39	0,325
652,59	0,455
652,78	0,364
652,98	0,186
653,18	0,025
653,37	0,408
653,57	0,566
653,77	-0,008
653,96	-0,090
654,16	0,322
654,36	0,272
654,55	0,491
654,75	0,260
654,95	0,267
655,14	0,000
655,34	0,585
655,54	0,512
655,73	0,322
655,93	0,591
656,13	0,612
656,32	0,240
656,52	0,035
656,72	0,165
656,91	0,034
657,11	-0,008
657,31	0,314
657,50	0,213
657,70	0,153
657,90	0,290
658,09	0,178
658,29	0,017
658,49	0,026
658,68	0,622
658,88	0,334
659,07	0,538
659,27	0,357
659,47	-0,197
659,66	-0,231
659,86	0,094
660,06	0,252
660,25	0,161
660,45	0,426
660,64	0,227
660,84	0,219
661,04	0,376
661,23	-0,059
661,43	0,042
661,63	0,327
661,82	0,076
662,02	0,168
662,21	-0,042
662,41	0,517
662,61	0,356
662,80	0,319
663,00	-0,253
663,19	0,346
663,39	0,319
663,59	-0,076
663,78	-0,190
663,98	0,323
664,17	0,164
664,37	0,199
664,57	0,457
664,76	0,008
664,96	0,178
665,15	0,180
665,35	0,204
665,55	0,643
665,74	0,049
665,94	-0,016
666,13	-0,064
666,33	0,208
666,53	-0,159
666,72	0,048
666,92	0,103
667,11	0,135
667,31	0,234
667,50	0,270
667,70	0,093
667,90	0,294
668,09	-0,116
668,29	0,208
668,48	0,334
668,68	0,130
668,87	0,204
669,07	0,175
669,26	-0,037
669,46	-0,037
669,66	0,037
669,85	-0,023
670,05	-0,155
670,24	0,283
670,44	0,452
670,63	0,398
670,83	0,291
671,02	0,138
671,22	0,379
671,42	0,454
671,61	-0,115
671,81	0,036
672,00	0,063
672,20	0,224
672,39	0,180
672,59	0,062
672,78	-0,055
672,98	-0,235
673,17	0,108
673,37	0,375
673,56	0,323
673,76	0,318
673,95	0,469
674,15	0,086
674,34	0,206
674,54	0,157
674,73	0,155
674,93	0,084
675,13	-0,173
675,32	0,251
675,52	0,038
675,71	0,208
675,91	0,439
676,10	0,404
676,30	-0,062
676,49	-0,043
676,69	0,301
676,88	0,165
677,08	-0,012
677,27	-0,060
677,47	0,201
677,66	0,300
677,86	0,404
678,05	0,041
678,24	-0,017
678,44	-0,288
678,63	-0,085
678,83	0,098
679,02	0,243
679,22	0,034
679,41	0,326
679,61	0,214
679,80	0,087
680,00	0,103
680,19	-0,016
680,39	0,207
680,58	0,196
680,78	0,206
680,97	-0,037
681,17	-0,139
681,36	-0,078
681,56	0,198
681,75	0,000
681,94	0,030
682,14	0,030
682,33	0,351
682,53	-0,005
682,72	0,097
682,92	-0,053
683,11	0,048
683,31	0,005
683,50	0,066
683,69	0,093
683,89	0,033
684,08	-0,014
684,28	0,187
684,47	-0,190
684,67	-0,149
684,86	0,000
685,06	0,177
685,25	-0,066
685,44	0,039
685,64	0,073
685,83	0,035
686,03	0,013
686,22	0,089
686,42	-0,164
686,61	0,121
686,80	0,171
687,00	0,021
687,19	0,094
687,39	-0,110
687,58	-0,198
687,77	0,161
687,97	0,064
688,16	-0,107
688,36	0,237
688,55	0,024
688,74	0,027
688,94	0,128
689,13	0,104
689,33	-0,034
689,52	-0,061
689,71	0,135
689,91	0,052
690,10	0,052
690,30	0,000
690,49	0,026
690,68	-0,029
690,88	0,004
691,07	0,011
691,27	0,061
691,46	0,101
691,65	0,129
691,85	-0,025
692,04	-0,206
692,23	-0,083
692,43	-0,101
692,62	0,097
692,82	0,174
693,01	0,111
693,20	-0,055
693,40	0,000
693,59	-0,150
693,78	-0,030
693,98	-0,133
694,17	0,132
694,36	0,068
694,56	0,138
694,75	0,129
694,94	-0,051
695,14	0,203
695,33	0,028
695,53	-0,254
695,72	0,042
695,91	0,164
696,11	-0,004
696,30	0,039
696,49	-0,054
696,69	0,267
696,88	0,239
697,07	0,213
697,27	0,213
697,46	0,203
697,65	-0,119
697,85	0,176
698,04	-0,005
698,23	-0,238
698,43	0,291
698,62	0,161
698,81	0,350
699,01	-0,217
699,20	0,278
699,39	0,180
699,58	0,152
699,78	0,313
699,97	0,044
700,16	0,197
700,36	-0,024
700,55	0,514
700,74	-0,058
700,94	0,702
701,13	0,053
701,32	0,550
701,52	0,165
701,71	0,257
701,90	0,069
702,09	-0,072
702,29	0,366
702,48	0,043
702,67	0,882
702,87	0,070
703,06	0,070
703,25	0,429
703,44	0,357
703,64	0,452
703,83	0,962
704,02	0,096
704,22	0,198
704,41	0,717
704,60	0,722
704,79	-0,167
704,99	0,233
705,18	0,048
705,37	0,974
705,56	0,679
705,76	0,496
705,95	0,162
706,14	0,201
706,33	1,168
706,53	0,643
706,72	1,367
706,91	0,804
707,11	-0,020
707,30	1,311
707,49	0,645
707,68	2,521
707,88	-0,911
708,07	0,371
708,26	0,352
708,45	0,215
708,64	1,341
708,84	0,801
709,03	0,673
709,22	0,660
709,41	1,537
709,61	-0,557
709,80	1,258
709,99	0,827
710,18	-0,951
710,38	2,345
710,57	1,733
710,76	2,420
710,95	1,181
711,14	1,857
711,34	0,812
711,53	-0,269
711,72	1,667
711,91	1,508
712,11	0,699
712,30	1,691
712,49	1,146
712,68	0,850
712,87	0,625
713,07	1,494
713,26	0,242
713,45	2,432
713,64	1,515
713,83	1,953
714,03	-0,172
714,22	-1,786
714,41	0,804
714,60	2,244
714,79	0,628
714,99	2,056
715,18	0,706
715,37	-0,630
715,56	2,333
715,75	0,946
715,94	0,356
716,14	0,433
716,33	-0,052
716,52	2,236
716,71	0,542
716,90	0,000
717,10	3,683
717,29	3,812
717,48	3,628
717,67	-0,113
717,86	-0,915
718,05	1,613
718,24	2,718
718,44	4,215
718,63	3,220
718,82	1,633
719,01	1,352
719,20	1,502
719,39	-0,063
719,59	1,140
719,78	0,827
719,97	4,580
720,16	-0,840
720,35	2,868
720,54	1,747
720,73	2,909
720,93	2,089
721,12	0,720
721,31	5,685
721,50	4,545
721,69	5,027
721,88	1,462
722,07	2,502
722,27	-2,414
722,46	0,496
722,65	2,278
722,84	3,236
723,03	2,584
723,22	2,683
723,41	2,742
723,60	1,936
723,79	4,087
723,99	4,140
724,18	0,527
724,37	0,266
724,56	0,697
724,75	1,964
724,94	5,071
725,13	4,594
725,32	5,861
725,51	-1,075
725,71	1,533
725,90	-2,241
726,09	4,658
726,28	2,637
726,47	4,228
726,66	0,974
726,85	0,974
727,04	4,692
727,23	4,492
727,42	3,984
727,61	4,366
727,81	8,559
728,00	4,313
728,19	5,185
728,38	2,137
728,57	4,731
728,76	14,594
728,95	5,464
729,14	5,359
729,33	8,195
729,52	5,020
729,71	4,075
729,90	6,054
730,09	6,391
730,28	4,255
730,48	3,995
730,67	4,588
730,86	6,228
731,05	1,350
731,24	6,007
731,43	10,939
731,62	5,802
731,81	3,776
732,00	3,736
732,19	3,258
732,38	4,485
732,57	7,161
732,76	-0,746
732,95	8,986
733,14	9,383
733,33	4,167
733,52	6,233
733,71	10,372
733,90	2,628
734,09	7,210
734,28	9,843
734,47	3,676
734,66	2,665
734,85	7,052
735,04	6,600
735,23	9,418
735,42	8,652
735,61	9,557
735,81	9,517
736,00	10,677
736,19	6,297
736,38	4,962
736,57	2,373
736,76	6,333
736,95	7,337
737,14	15,184
737,33	8,411
737,52	6,079
737,71	14,329
737,90	14,058
738,09	2,759
738,28	14,123
738,47	14,309
738,66	15,763
738,85	9,606
739,04	13,688
739,22	15,094
739,41	16,754
739,60	19,390
739,79	14,920
739,98	22,034
740,17	24,155
740,36	25,758
740,55	21,129
740,74	16,729
740,93	23,103
741,12	26,817
741,31	18,814
741,50	22,300
741,69	21,996
741,88	32,049
742,07	23,145
742,26	23,518
742,45	25,725
742,64	28,163
742,83	20,879
743,02	22,892
743,21	24,153
743,40	31,609
743,59	25,147
743,78	31,435
743,97	27,514
744,16	21,983
744,34	26,653
744,53	35,129
744,72	33,121
744,91	27,310
745,10	31,034
745,29	22,535
745,48	22,489
745,67	25,556
745,86	34,025
746,05	35,123
746,24	30,388
746,43	27,438
746,62	39,053
746,81	37,678
747,00	34,583
747,18	41,364
747,37	32,955
747,56	49,199
747,75	33,504
747,94	41,919
748,13	38,551
748,32	35,610
748,51	39,578
748,70	35,971
748,89	34,946
749,08	39,409
749,26	37,600
749,45	30,679
749,64	31,525
749,83	50,369
750,02	44,504
750,21	42,187
750,40	30,607
750,59	40,957
750,78	32,771
750,96	43,641
751,15	39,946
751,34	45,455
751,53	44,444
751,72	40,751
751,91	42,520
752,10	44,789
752,29	26,377
752,47	33,046
752,66	33,728
752,85	43,386
753,04	35,676
753,23	43,450
753,42	47,132
753,61	36,778
753,80	38,438
753,98	32,500
754,17	35,127
754,36	45,425
754,55	33,225
754,74	57,568
754,93	47,742
755,12	36,923
755,30	30,996
755,49	43,988
755,68	43,562
755,87	47,440
756,06	46,110
756,25	13,201
756,43	29,856
756,62	36,101
756,81	32,941
757,00	38,736
757,19	46,319
757,38	39,088
757,56	27,365
757,75	44,275
757,94	28,879
758,13	49,363
758,32	33,712
758,51	50,645
758,69	29,487
758,88	29,508
759,07	41,281
759,26	23,129
759,45	43,214
759,63	13,043
759,82	42,701
760,01	37,847
760,20	35,401
760,39	36,782
760,57	28,755
760,76	31,298
760,95	13,793
761,14	23,462
761,33	36,719
761,51	43,333
761,70	38,966
761,89	31,395
762,08	41,379
762,27	42,788
762,45	19,811
762,64	30,973
762,83	42,751
763,02	26,298
763,21	29,930
763,39	23,982
763,58	26,122
763,77	22,340
763,96	43,860
764,14	15,768
764,33	44,737
764,52	22,768
764,71	38,916
764,89	36,824
765,08	37,453
765,27	36,139
765,46	10,909
765,65	18,274
765,83	30,476
766,02	32,967
766,21	34,599
766,40	46,047
766,58	47,511
766,77	8,475
766,96	26,154
767,15	44,444
767,33	19,712
767,52	26,066
767,71	36,667
767,90	42,500
768,08	39,056
768,27	16,744
768,46	31,905
768,64	32,524
768,83	51,892
769,02	29,524
769,21	21,875
769,39	28,859
769,58	49,000
769,77	59,783
769,96	19,205
770,14	37,023
770,33	42,246
770,52	33,333
770,70	55,446
770,89	33,673
771,08	30,208
771,27	24,742
771,45	38,728
771,64	63,816
771,83	43,548
772,01	32,061
772,20	45,960
772,39	36,306
772,57	68,229
772,76	62,069
772,95	37,056
773,14	55,233
773,32	5,495
773,51	17,209
773,70	36,424
773,88	43,216
774,07	32,218
774,26	37,195
774,44	42,211
774,63	38,608
774,82	53,614
775,00	39,301
775,19	58,046
775,38	23,333
775,56	27,439
775,75	11,976
775,94	41,045
776,12	36,667
776,31	34,731
776,50	59,394
776,68	65,432
776,87	37,063
777,06	45,205
777,24	9,016
777,43	58,537
777,62	34,815
777,80	51,630
777,99	41,401
778,18	53,503
778,36	52,672
778,55	19,259
778,74	6,061
778,92	49,321
779,11	80,000
779,29	39,869
779,48	27,273
779,67	48,201
779,85	52,800
780,04	52,113
780,23	78,322
780,41	21,765
780,60	20,468
780,79	31,250
780,97	56,429
781,16	47,200
781,34	40,152
781,53	67,308
781,72	74,074
781,90	96,154
782,09	57,377
782,28	100,000
782,46	58,537
782,65	47,552
782,83	34,351
783,02	60,800
783,21	74,419
783,39	44,872
783,58	65,333
783,76	56,757
783,95	41,060
784,14	48,421
784,32	47,706
784,51	25,843
784,69	46,497
784,88	70,323
785,06	48,936
785,25	44,361
785,44	56,757
785,62	65,714
785,81	53,731
785,99	25,850
786,18	38,525
786,37	41,379
786,55	27,612
786,74	78,261
786,92	20,930
787,11	59,200
787,29	35,294
787,48	69,000
787,67	24,490
787,85	39,063
788,04	38,356
788,22	57,407
788,41	67,105
788,59	73,469
788,78	57,639
788,96	60,952
789,15	66,393
789,34	53,659
789,52	61,940
789,71	61,905
789,89	83,333
790,08	15,686
790,26	61,111
790,45	85,401
790,63	61,184
790,82	57,258
791,00	75,397
791,19	71,429
791,38	56,849
791,56	117,105
791,75	71,622
791,93	36,275
792,12	51,515
792,30	48,684
792,49	55,140
792,67	51,429
792,86	62,162
793,04	49,206
793,23	63,158
793,41	59,355
793,60	58,228
793,78	82,550
793,97	53,448
794,15	62,092
794,34	46,939
794,52	41,085
794,71	70,988
794,89	67,143
795,08	63,462
795,26	64,000
795,45	74,468
795,63	52,830
795,82	81,513
796,00	40,000
796,19	93,506
796,37	85,593
796,56	125,926
796,74	64,063
796,93	48,739
797,11	70,833
797,30	108,397
797,48	51,049
797,67	44,355
797,85	61,594
798,04	57,658
798,22	61,151
798,41	97,458
798,59	61,429
798,77	77,778
798,96	100,806
799,14	99,074
799,33	82,301
799,51	99,010
799,70	91,209
799,88	46,789
800,07	76,259
800,25	64,122
800,44	78,218
800,62	77,698
800,80	59,091
800,99	133,333
801,17	86,207
801,36	67,708
801,54	102,326
801,73	55,303
801,91	78,652
802,10	92,941
802,28	69,291
802,46	70,161
802,65	67,550
802,83	71,901
803,02	72,449
803,20	98,305
803,39	42,202
803,57	65,493
803,75	46,429
803,94	102,027
804,12	55,901
804,31	90,385
804,49	56,129
804,67	-1,802
804,86	60,248
805,04	58,915
805,23	97,810
805,41	30,392
805,59	42,771
805,78	47,857
805,96	48,193
806,15	53,600
806,33	42,336
806,51	47,436
806,70	33,721
806,88	-0,909
807,07	61,475
807,25	68,696
807,43	1,111
807,62	67,969
807,80	54,878
807,99	66,906
808,17	54,167
808,35	41,509
808,54	39,106
808,72	55,128
808,90	58,537
809,09	54,745
809,27	58,252
809,46	46,729
809,64	72,832
809,82	47,586
810,01	63,978
810,19	26,364
810,37	50,568
810,56	61,589
810,74	67,296
810,92	32,394
811,11	46,012
811,29	78,261
811,48	56,522
811,66	54,822
811,84	34,746
812,03	39,189
812,21	55,152
812,39	55,645
812,58	57,310
812,76	81,022
812,94	56,376
813,13	60,366
813,31	65,608
813,49	66,000
813,68	73,770
813,86	64,103
814,04	57,658
814,23	56,923
814,41	55,479
814,59	47,059
814,78	77,852
814,96	38,547
815,14	56,784
815,33	45,455
815,51	49,606
815,69	65,649
815,87	31,613
816,06	69,154
816,24	61,438
816,42	25,000
816,61	50,617
816,79	51,445
816,97	58,974
817,16	32,738
817,34	59,412
817,52	52,804
817,70	66,839
817,89	53,110
818,07	46,667
818,25	53,797
818,44	40,107
818,62	33,168
818,80	35,165
818,98	32,821
819,17	31,780
819,35	50,336
819,53	56,923
819,72	45,405
819,90	69,778
820,08	52,475
820,26	48,402
820,45	44,086
820,63	73,099
820,81	44,495
820,99	51,965
821,18	31,325
821,36	40,000
821,54	44,279
821,73	45,902
821,91	30,282
822,09	50,296
822,27	58,755
822,46	37,931
822,64	36,316
822,82	46,193
823,00	42,408
823,19	32,381
823,37	57,692
823,55	43,460
823,73	44,944
823,91	45,455
824,10	51,042
824,28	38,843
824,46	28,947
824,64	56,827
824,83	36,967
825,01	52,941
825,19	49,782
825,37	53,431
825,56	46,565
825,74	46,753
825,92	45,136
826,10	51,101
826,28	45,387
826,47	45,136
826,65	46,043
826,83	47,368
827,01	59,449
827,19	59,690
827,38	49,438
827,56	59,500
827,74	37,915
827,92	62,439
828,10	39,583
828,29	30,996
828,47	39,781
828,65	53,516
828,83	27,848
829,01	28,829
829,20	47,692
829,38	46,721
829,56	27,273
829,74	38,462
829,92	45,344
830,10	36,481
830,29	54,023
830,47	57,090
830,65	38,912
830,83	51,701
831,01	39,910
831,20	22,993
831,38	37,459
831,56	47,368
831,74	41,356
831,92	54,579
832,10	46,203
832,29	50,883
832,47	37,234
832,65	39,016
832,83	32,911
833,01	34,743
833,19	42,330
833,37	46,505
833,56	51,488
833,74	52,131
833,92	59,122
834,10	47,892
834,28	45,993
834,46	39,884
834,64	56,000
834,83	37,677
835,01	46,997
835,19	52,482
835,37	56,215
835,55	58,924
835,73	34,181
835,91	56,932
836,09	50,658
836,28	55,488
836,46	44,248
836,64	50,919
836,82	38,736
837,00	45,367
837,18	53,667
837,36	56,305
837,54	48,907
837,72	37,468
837,91	41,076
838,09	51,212
838,27	48,446
838,45	61,370
838,63	58,310
838,81	62,006
838,99	40,584
839,17	52,795
839,35	56,433
839,53	53,827
839,72	62,637
839,90	45,556
840,08	46,824
840,26	59,580
840,44	47,837
840,62	48,518
840,80	64,615
840,98	59,060
841,16	44,565
841,34	55,338
841,52	43,261
841,70	52,854
841,89	47,608
842,07	54,713
842,25	51,572
842,43	60,584
842,61	51,537
842,79	54,195
842,97	49,657
843,15	38,205
843,33	51,646
843,51	58,913
843,69	41,211
843,87	50,806
844,05	56,587
844,23	49,272
844,41	58,052
844,59	54,149
844,77	47,423
844,95	51,515
845,13	52,000
845,31	41,847
845,50	53,830
845,68	50,749
845,86	51,016
846,04	45,167
846,22	42,281
846,40	55,372
846,58	53,785
846,76	61,258
846,94	43,340
847,12	38,462
847,30	44,465
847,48	50,820
847,66	38,889
847,84	39,046
848,02	43,750
848,20	52,354
848,38	35,357
848,56	41,652
848,74	40,619
848,92	38,832
849,10	52,993
849,28	35,118
849,46	35,305
849,64	41,240
849,82	46,486
850,00	46,037
850,18	39,937
850,36	45,364
850,54	38,818
850,72	47,508
850,90	38,103
851,08	46,929
851,26	48,867
851,44	41,680
851,62	45,840
851,80	45,181
851,98	47,964
852,16	51,719
852,34	44,930
852,52	41,272
852,70	43,977
852,87	39,301
853,05	45,559
853,23	42,920
853,41	45,775
853,59	41,847
853,77	46,657
853,95	45,428
854,13	41,761
854,31	37,466
854,49	42,335
854,67	36,850
854,85	40,027
855,03	45,443
855,21	39,550
855,39	47,724
855,57	41,036
855,75	40,106
855,93	38,202
856,11	34,112
856,28	33,555
856,46	38,816
856,64	31,818
856,82	35,916
857,00	35,660
857,18	39,868
857,36	34,453
857,54	36,297
857,72	34,717
857,90	36,712
858,08	31,250
858,26	33,532
858,44	32,975
858,61	34,237
858,79	35,876
858,97	31,405
859,15	36,492
859,33	30,760
859,51	33,642
859,69	33,295
859,87	35,429
860,05	28,905
860,23	35,635
860,40	30,383
860,58	28,635
860,76	24,565
860,94	30,662
861,12	32,575
861,30	31,315
861,48	32,058
861,66	31,315
861,84	27,814
862,01	29,930
862,19	32,114
862,37	27,736
862,55	27,024
862,73	28,822
862,91	34,539
863,09	26,283
863,27	30,650
863,44	27,492
863,62	32,618
863,80	29,854
863,98	32,873
864,16	31,844
864,34	31,437
864,52	31,097
864,69	30,924
864,87	30,918
865,05	29,927
865,23	30,909
865,41	25,298
865,59	31,668
865,76	30,098
865,94	25,691
866,12	28,522
866,30	32,806
866,48	30,558
866,66	31,043
866,83	30,163
867,01	37,423
867,19	31,245
867,37	32,414
867,55	33,759
867,73	32,863
867,90	34,472
868,08	34,891
868,26	32,697
868,44	33,278
868,62	37,068
868,79	39,531
868,97	38,106
869,15	36,776
869,33	37,122
869,51	39,701
869,69	35,858
869,86	40,955
870,04	39,968
870,22	37,021
870,40	41,911
870,57	37,619
870,75	41,705
870,93	38,485
871,11	40,906
871,29	37,117
871,46	37,000
871,64	39,229
871,82	41,327
872,00	43,750
872,18	36,444
872,35	39,912
872,53	38,229
872,71	37,813
872,89	38,897
873,06	37,536
873,24	36,767
873,42	38,282
873,60	39,323
873,77	36,937
873,95	37,648
874,13	37,854
874,31	36,279
874,49	37,997
874,66	39,681
874,84	37,904
875,02	36,615
875,20	36,158
875,37	36,976
875,55	36,541
875,73	36,422
875,91	33,189
876,08	34,129
876,26	37,076
876,44	34,293
876,61	32,626
876,79	33,294
876,97	31,683
877,15	36,096
877,32	32,857
877,50	33,241
877,68	34,522
877,86	36,482
878,03	35,036
878,21	34,932
878,39	35,245
878,56	35,674
878,74	34,637
878,92	35,288
879,10	36,593
879,27	35,542
879,45	37,204
879,63	35,812
879,80	36,284
879,98	35,075
880,16	38,826
880,34	40,170
880,51	43,337
880,69	37,845
880,87	40,252
881,04	38,147
881,22	38,235
881,40	36,809
881,57	39,298
881,75	40,697
881,93	37,888
882,10	41,313
882,28	38,447
882,46	41,561
882,63	42,572
882,81	36,953
882,99	37,600
883,16	40,754
883,34	40,356
883,52	37,132
883,69	40,535
883,87	36,763
884,05	41,139
884,22	38,845
884,40	39,123
884,58	37,516
884,75	37,568
884,93	35,150
885,11	37,892
885,28	38,402
885,46	35,462
885,64	33,746
885,81	33,756
885,99	32,588
886,17	34,977
886,34	34,687
886,52	36,431
886,70	35,363
886,87	33,993
887,05	33,436
887,22	32,485
887,40	34,307
887,58	32,009
887,75	34,830
887,93	33,692
888,11	33,077
888,28	32,635
888,46	30,885
888,63	31,377
888,81	30,497
888,99	30,646
889,16	32,273
889,34	30,940
889,51	31,941
889,69	32,041
889,87	31,577
890,04	32,254
890,22	31,033
890,39	33,015
890,57	33,801
890,75	32,819
890,92	32,457
891,10	32,486
891,27	34,158
891,45	34,678
891,63	34,895
891,80	35,614
891,98	33,980
892,15	35,682
892,33	34,410
892,51	33,723
892,68	32,256
892,86	34,592
893,03	33,643
893,21	36,243
893,38	34,015
893,56	35,619
893,74	35,710
893,91	35,901
894,09	36,124
894,26	35,772
894,44	36,001
894,61	36,437
894,79	36,072
894,96	35,587
895,14	36,562
895,32	35,798
895,49	35,631
895,67	35,543
895,84	34,747
896,02	37,095
896,19	34,078
896,37	33,343
896,54	36,675
896,72	35,105
896,89	36,070
897,07	35,670
897,25	35,117
897,42	34,288
897,60	33,490
897,77	32,812
897,95	32,694
898,12	35,035
898,30	35,100
898,47	32,297
898,65	34,772
898,82	34,784
899,00	32,818
899,17	33,169
899,35	32,742
899,52	33,761
899,70	32,821
899,87	33,351
900,05	34,358
900,22	31,759
900,40	31,801
900,57	31,545
900,75	31,594
900,92	29,910
901,10	31,179
901,27	30,601
901,45	30,569
901,62	30,223
901,80	31,060
901,97	31,308
902,15	29,958
902,32	29,329
902,50	29,438
902,67	31,119
902,85	29,966
903,02	30,195
903,20	29,924
903,37	30,960
903,54	29,555
903,72	29,330
903,89	29,178
904,07	29,701
904,24	28,760
904,42	29,183
904,59	28,578
904,77	30,821
904,94	30,317
905,12	30,668
905,29	29,079
905,47	31,563
905,64	30,171
905,81	29,378
905,99	29,420
906,16	31,983
906,34	30,073
906,51	30,336
906,69	30,388
906,86	30,941
907,03	31,370
907,21	30,188
907,38	28,182
907,56	27,865
907,73	30,989
907,91	31,169
908,08	30,108
908,25	30,412
908,43	30,970
908,60	30,283
908,78	32,008
908,95	30,212
909,13	31,465
909,30	29,404
909,47	30,389
909,65	31,836
909,82	31,292
910,00	31,188
910,17	31,370
910,34	30,568
910,52	30,038
910,69	31,144
910,87	32,391
911,04	31,198
911,21	32,263
911,39	31,157
911,56	32,521
911,73	32,101
911,91	32,290
912,08	32,146
912,26	32,531
912,43	32,994
912,60	34,412
912,78	31,790
912,95	34,605
913,13	32,806
913,30	32,353
913,47	32,358
913,65	32,519
913,82	33,387
913,99	31,658
914,17	33,199
914,34	33,563
914,51	33,839
914,69	33,092
914,86	33,025
915,03	33,960
915,21	32,840
915,38	33,919
915,56	34,206
915,73	33,548
915,90	34,864
916,08	34,013
916,25	34,157
916,42	35,513
916,60	35,450
916,77	34,896
916,94	35,730
917,12	33,798
917,29	34,047
917,46	33,910
917,64	34,941
917,81	33,660
917,98	34,206
918,16	34,167
918,33	35,878
918,50	34,665
918,67	33,396
918,85	34,613
919,02	34,218
919,19	34,138
919,37	35,787
919,54	35,318
919,71	36,074
919,89	35,778
920,06	34,991
920,23	35,769
920,41	34,187
920,58	35,456
920,75	35,928
920,92	34,921
921,10	34,905
921,27	35,561
921,44	35,955
921,62	35,492
921,79	35,317
921,96	36,378
922,13	35,482
922,31	36,991
922,48	34,898
922,65	36,094
922,82	33,872
923,00	34,912
923,17	35,532
923,34	35,454
923,52	33,765
923,69	36,514
923,86	35,512
924,03	36,353
924,21	36,720
924,38	36,615
924,55	35,881
924,72	35,892
924,90	36,307
925,07	37,177
925,24	37,679
925,41	36,235
925,59	36,930
925,76	38,233
925,93	38,301
926,10	37,310
926,28	36,684
926,45	37,446
926,62	37,463
926,79	36,748
926,96	36,562
927,14	36,981
927,31	37,403
927,48	37,452
927,65	38,069
927,83	37,294
928,00	37,130
928,17	35,401
928,34	36,583
928,51	36,725
928,69	36,945
928,86	35,073
929,03	36,208
929,20	35,500
929,37	36,098
929,55	36,004
929,72	35,836
929,89	35,271
930,06	36,376
930,23	34,060
930,41	36,396
930,58	35,609
930,75	35,291
930,92	36,113
931,09	35,466
931,27	34,794
931,44	33,766
931,61	34,142
931,78	34,583
931,95	35,270
932,12	33,632
932,30	34,825
932,47	34,454
932,64	33,133
932,81	34,612
932,98	33,995
933,16	33,378
933,33	33,588
933,50	33,563
933,67	32,569
933,84	33,863
934,01	32,688
934,18	32,561
934,36	33,022
934,53	33,597
934,70	32,610
934,87	32,440
935,04	32,098
935,21	32,368
935,38	33,239
935,56	33,289
935,73	32,833
935,90	32,889
936,07	32,553
936,24	32,465
936,41	32,901
936,58	31,690
936,76	32,788
936,93	32,951
937,10	33,762
937,27	33,516
937,44	34,116
937,61	34,235
937,78	33,046
937,95	33,674
938,13	34,619
938,30	33,981
938,47	35,032
938,64	34,363
938,81	35,383
938,98	36,214
939,15	36,556
939,32	36,223
939,49	36,393
939,66	36,835
939,84	38,176
940,01	38,100
940,18	39,206
940,35	40,172
940,52	39,286
940,69	39,964
940,86	40,789
941,03	41,036
941,20	41,485
941,37	41,357
941,54	41,627
941,71	42,404
941,89	43,856
942,06	43,308
942,23	43,565
942,40	43,760
942,57	42,987
942,74	44,068
942,91	43,430
943,08	45,496
943,25	45,036
943,42	45,622
943,59	44,890
943,76	46,012
943,93	45,399
944,10	45,604
944,27	45,798
944,44	46,573
944,61	46,042
944,79	47,356
944,96	46,353
945,13	47,540
945,30	46,176
945,47	47,484
945,64	47,606
945,81	47,589
945,98	48,189
946,15	47,724
946,32	48,045
946,49	47,668
946,66	47,387
946,83	48,621
947,00	48,129
947,17	49,602
947,34	49,607
947,51	48,692
947,68	49,468
947,85	48,281
948,02	48,841
948,19	52,505
948,36	49,989
948,53	48,832
948,70	50,470
948,87	50,065
949,04	51,361
949,21	50,878
949,38	51,340
949,55	50,057
949,72	49,699
949,89	50,012
950,06	51,390
950,23	50,702
950,40	49,952
950,57	51,281
950,74	52,031
950,91	51,569
951,08	51,899
951,25	52,395
951,42	52,671
951,59	52,149
951,76	52,660
951,93	51,931
952,10	51,489
952,27	51,103
952,44	53,780
952,61	50,712
952,77	52,091
952,94	52,697
953,11	52,378
953,28	52,628
953,45	53,767
953,62	50,655
953,79	51,944
953,96	51,594
954,13	51,329
954,30	50,735
954,47	51,478
954,64	48,538
954,81	48,497
954,98	49,942
955,15	46,139
955,32	50,160
955,49	49,006
955,65	47,662
955,82	47,355
955,99	49,781
956,16	47,998
956,33	45,397
956,50	47,407
956,67	46,093
956,84	45,482
957,01	42,927
957,18	46,083
957,35	47,739
957,52	44,685
957,68	43,859
957,85	44,114
958,02	40,343
958,19	40,632
958,36	42,090
958,53	41,943
958,70	40,532
958,87	46,658
959,04	42,116
959,21	39,924
959,37	40,820
959,54	42,290
959,71	36,277
959,88	42,117
960,05	38,024
960,22	38,005
960,39	41,030
960,56	37,249
960,72	38,884
960,89	36,331
961,06	40,088
961,23	36,070
961,40	38,139
961,57	33,363
961,74	31,431
961,90	36,922
962,07	39,165
962,24	41,509
962,41	37,537
962,58	38,462
962,75	34,320
962,92	37,045
963,08	31,370
963,25	36,848
963,42	31,863
963,59	34,741
963,76	34,319
963,93	29,577
964,10	34,278
964,26	36,048
964,43	38,798
964,60	35,651
964,77	37,366
964,94	45,692
965,10	39,379
965,27	32,939
965,44	42,000
965,61	40,347
965,78	47,452
965,95	35,163
966,11	38,622
966,28	33,846
966,45	35,238
966,62	33,333
966,79	42,073
966,95	26,724
967,12	33,732
967,29	41,121
967,46	41,087
967,63	40,741
967,79	36,413
967,96	19,948
968,13	34,169
968,30	33,880
968,47	45,119
968,63	38,166
968,80	47,931
968,97	51,429
969,14	39,528
969,31	38,141
969,47	46,688
969,64	40,924
969,81	57,544
969,98	26,901
970,14	43,333
970,31	48,029
970,48	51,246
970,65	44,014
970,81	29,252
970,98	53,933
971,15	41,014
971,32	34,322
971,48	43,382
971,65	49,160
971,82	52,551
971,99	60,697
972,15	56,316
972,32	48,971
972,49	52,790
972,66	28,761
972,82	41,584
972,99	47,234
973,16	72,165
973,33	47,143
973,49	56,667
973,66	53,782
973,83	53,061
974,00	50,820
974,16	67,296
974,33	72,561
974,50	44,444
974,67	64,211
974,83	28,814
975,00	42,754
975,17	63,265
975,33	64,493
975,50	85,455
975,67	90,179
975,84	80,851
976,00	43,846
976,17	116,176
976,34	53,191
976,50	65,217
976,67	42,241
976,84	75,641
977,00	42,105
977,17	82,677
977,34	59,140
977,50	58,511
977,67	45,614
977,84	63,636
978,01	47,126
978,17	194,872
978,34	45,833
978,51	62,121
978,67	76,923
978,84	76,042
979,01	96,923
979,17	74,242
979,34	225,000
979,51	53,846
979,67	83,750
979,84	91,667
980,01	98,361
980,17	70,588
980,34	81,159
980,51	102,273
980,67	66,667
980,84	62,069
981,01	35,897
981,17	112,000
981,34	650,000
981,50	105,882
981,67	186,207
981,84	53,448
982,00	106,522
982,17	163,636
982,34	148,718
982,50	236,842
982,67	102,778
982,84	95,238
983,00	190,000
983,17	183,333
983,33	100,000
983,50	35,870
983,67	39,130
983,83	600,000
984,00	212,500
984,17	110,000
984,33	85,135
984,50	64,583
984,66	142,857
984,83	86,047
985,00	237,705
985,16	115,385
985,33	356,250
985,49	331,034
985,66	57,576
985,83	61,404
985,99	82,883
986,16	280,000
986,32	108,696
986,49	650,000
986,66	-32,558
986,82	85,965
986,99	178,571
987,15	141,379
987,32	127,778
987,49	208,333
987,65	-50,000
987,82	164,706
987,98	-41,176
988,15	250,000
988,31	64,000
988,48	-91,667
988,65	207,407
988,81	126,087
988,98	458,333
989,14	148,980
989,31	230,000
989,47	119,512
989,64	55,714
989,80	33,333
989,97	160,294
990,14	82,609
990,30	192,500
990,47	60,976
990,63	326,087
990,80	203,030
990,96	325,000
991,13	163,889
991,29	147,059
991,46	127,451
991,62	88,235
991,79	119,298
991,95	375,000
992,12	146,512
992,29	256,000
992,45	-223,077
992,62	-680,000
992,78	-129,630
992,95	227,778
993,11	176,667
993,28	80,247
993,44	126,087
993,61	1466,667
993,77	560,000
993,94	125,581
994,10	185,714
994,27	84,000
994,43	220,588
994,60	-45,455
994,76	257,895
994,93	172,727
995,09	-51,351
995,26	54,321
995,42	86,441
995,59	250,000
995,75	303,125
995,92	227,273
996,08	220,833
996,25	11,111
996,41	122,917
996,58	321,622
996,74	710,000
996,91	411,111
997,07	238,462
997,23	251,064
997,40	1333,333
997,56	346,667
997,73	0,000
997,89	207,407
998,06	-72,549
998,22	-400,000
998,39	221,739
998,55	-229,167
998,72	205,000
998,88	2866,667
999,05	130,769
999,21	200,000
999,37	-5400,000
999,54	-1350,000
999,70	84,615
999,87	-25,000
1000,03	253,125
1000,20	-1016,667
1000,36	1400,000
1000,52	105,556
1000,69	120,455
1000,85	125,862
1001,02	136,923
1001,18	102,273
1001,35	-117,778
1001,51	-285,714
1001,67	4,000
1001,84	550,000
1002,00	190,000
1002,17	204,545
1002,33	-35,294
1002,50	-11,111
1002,66	3200,000
1002,82	134,286
1002,99	-100,000
1003,15	226,087
1003,32	125,806
1003,48	-220,000
1003,64	-2,500
1003,81	-35,714
1003,97	354,545
1004,14	1433,333
1004,30	-742,857
1004,46	950,000
1004,63	363,158
1004,79	-360,000
1004,95	129,412
1005,12	-100,000
1005,28	362,069
1005,45	169,231
1005,61	-1700,000
1005,77	126,316
1005,94	200,000
1006,10	-4800,000
1006,26	75,000
1006,43	700,000
1006,59	-266,667
1006,76	48,000
1006,92	420,000
1007,08	290,000
1007,25	-63,889
1007,41	-416,667
1007,57	-412,500
1007,74	-217,391
1007,90	-640,000
1008,06	185,714
1008,23	190,741
1008,39	1000,000
1008,55	-207,143
1008,72	350,000
1008,88	182,000
1009,04	156,000
1009,21	-123,529
1009,37	-600,000
1009,53	-321,053
1009,70	-407,692
1009,86	75,000
1010,02	292,308
1010,19	0,000
1010,35	275,000
1010,51	744,444
1010,68	525,000
1010,84	-1300,000
1011,00	111,111
1011,17	-1380,000
1011,33	500,000
1011,49	165,625
1011,66	108,696
1011,82	-122,642
1011,98	25,000
1012,14	63,636
1012,31	-880,000
1012,47	-33,333
1012,63	666,667
1012,80	212,000
1012,96	-163,636
1013,12	76,744
1013,29	115,789
1013,45	144,444
1013,61	44,444
1013,77	294,444
1013,94	200,000
1014,10	-3,030
1014,26	750,000
1014,43	-196,970
1014,59	-400,000
1014,75	1750,000
1014,91	1000,000
1015,08	106,667
1015,24	-1300,000
1015,40	-288,235
1015,56	277,778
1015,73	148,889
1015,89	119,048
1016,05	640,000
1016,21	-644,444
1016,38	1060,000
1016,54	-53,846
1016,70	-51,852
1016,86	109,091
1017,03	189,744
1017,19	426,087
1017,35	-338,462
1017,51	85,714
1017,68	336,364
1017,84	5900,000
1018,00	814,286
1018,16	145,833
1018,33	-1271,429
1018,49	229,268
1018,65	44,118
1018,81	-0,000
1018,97	375,000
1019,14	250,000
1019,30	271,875
1019,46	833,333
1019,62	386,667
1019,79	41,667
1019,95	93,750
1020,11	-671,429
1020,27	600,000
1020,43	-557,143
1020,60	-215,789
1020,76	-150,000
1020,92	492,857
1021,08	4000,000
1021,24	430,000
1021,41	-100,000
1021,57	290,909
1021,73	-1325,000
1021,89	-164,286
1022,05	1275,000
1022,21	164,103
1022,38	-90,000
1022,54	400,000
1022,70	-109,091
1022,86	4100,000
1023,02	-105,882
1023,19	-444,444
1023,35	200,000
1023,51	82,143
1023,67	162,500
1023,83	966,667
1023,99	250,000
1024,16	171,429
1024,32	-68,000
1024,48	172,727
1024,64	966,667
1024,80	-183,333
1024,96	310,345
1025,12	-107,143
1025,29	71,429
1025,45	33,333
1025,61	-666,667
1025,77	-83,871
1025,93	590,000
1026,09	46,341
1026,26	352,632
1026,42	-64,583
1026,58	-108,696
1026,74	120,833
1026,90	161,111
1027,06	-71,795
1027,22	-239,130
1027,38	113,043
1027,55	733,333
1027,71	203,333
1027,87	-225,000
1028,03	-143,750
1028,19	-35,294
1028,35	-571,429
1028,51	256,000
1028,67	176,471
1028,83	148,889
1029,00	562,500
1029,16	170,270
1029,32	160,714
1029,48	14,286
1029,64	-284,615
1029,80	304,545
1029,96	100,000
1030,12	315,789
1030,28	-2000,000
1030,44	820,000
1030,61	172,727
1030,77	-450,000
1030,93	-500,000
1031,09	525,000
1031,25	0,000
1031,41	350,000
1031,57	-650,000
1031,73	-900,000
1031,89	-200,000
1032,05	-65,116
1032,21	-45,455
1032,37	91,071
1032,53	-41,379
1032,69	142,308
1032,86	-433,333
1033,02	-255,556
1033,18	258,333
1033,34	-1700,000
1033,50	462,500
1033,66	48,000
1033,82	100,000
1033,98	1700,000
1034,14	-192,857
1034,30	-140,000
1034,46	97,059
1034,62	261,538
1034,78	-134,783
1034,94	167,742
1035,10	-538,462
1035,26	844,444
1035,42	-80,000
1035,58	337,500
1035,74	102,703
1035,90	318,750
1036,06	62,745
1036,22	72,727
1036,38	-218,750
1036,54	25,000
1036,70	54,839
1036,86	170,000
1037,02	-14,286
1037,18	-135,294
1037,34	277,778
1037,50	-60,000
1037,66	-3700,000
1037,82	342,857
1037,98	937,500
1038,14	-1050,000
1038,30	203,448
1038,46	-71,429
1038,62	388,889
1038,78	-257,143
1038,94	790,000
1039,10	116,000
1039,26	-75,000
1039,42	226,087
1039,58	-925,000
1039,74	400,000
1039,90	-116,667
1040,06	-40,000
>>>>>End Processed Spectral Data<<<<<
