SpectraSuite Data File
++++++++++++++++++++++++++++++++++++
Date: Tue Jan 31 19:14:05 EET 2017
User: optolab
Dark Spectrum Present: Yes
Reference Spectrum Present: Yes
Number of Sampled Component Spectra: 1
Spectrometers: USB4C02475
Integration Time (usec): 100000 (USB4C02475)
Spectra Averaged: 1 (USB4C02475)
Boxcar Smoothing: 0 (USB4C02475)
Correct for Electrical Dark: No (USB4C02475)
Strobe/Lamp Enabled: No (USB4C02475)
Correct for Detector Non-linearity: No (USB4C02475)
Correct for Stray Light: No (USB4C02475)
Number of Pixels in Processed Spectrum: 3648
>>>>>Begin Processed Spectral Data<<<<<
344,91	130,769
345,13	130,769
345,35	130,769
345,57	0,000
345,79	316,667
346,00	650,000
346,22	-75,000
346,44	138,462
346,66	1800,000
346,87	700,000
347,09	-0,000
347,31	-2666,667
347,53	-283,333
347,74	-30,769
347,96	90,476
348,18	1966,667
348,40	-221,429
348,61	211,429
348,83	197,561
349,05	96,429
349,27	231,579
349,48	113,462
349,70	358,824
349,92	90,244
350,14	411,111
350,35	112,195
350,57	205,714
350,79	423,529
351,01	746,154
351,22	550,000
351,44	-400,000
351,66	253,846
351,87	103,846
352,09	103,030
352,31	537,500
352,53	191,111
352,74	266,667
352,96	102,326
353,18	112,963
353,40	136,957
353,61	160,000
353,83	533,333
354,05	130,303
354,26	117,857
354,48	-1675,000
354,70	175,610
354,92	72,727
355,13	285,294
355,35	0,000
355,57	8,333
355,78	97,059
356,00	61,765
356,22	255,556
356,44	-23,077
356,65	166,667
356,87	307,143
357,09	193,333
357,30	77,778
357,52	203,571
357,74	-2200,000
357,95	140,000
358,17	383,333
358,39	105,882
358,60	1080,000
358,82	370,588
359,04	50,000
359,26	84,375
359,47	134,783
359,69	-94,595
359,91	196,154
360,12	292,308
360,34	61,165
360,56	210,345
360,77	500,000
360,99	34,615
361,21	325,000
361,42	231,250
361,64	200,000
361,86	185,417
362,07	171,154
362,29	45,588
362,51	173,077
362,72	77,027
362,94	238,095
363,16	445,000
363,37	3,226
363,59	244,828
363,81	-200,000
364,02	63,529
364,24	230,435
364,46	218,919
364,67	164,444
364,89	115,000
365,11	1950,000
365,32	133,735
365,54	342,857
365,76	139,655
365,97	278,571
366,19	1250,000
366,41	215,385
366,62	134,211
366,84	142,105
367,05	110,769
367,27	-111,111
367,49	187,805
367,70	687,500
367,92	114,516
368,14	1950,000
368,35	133,803
368,57	192,308
368,79	117,647
369,00	0,000
369,22	350,000
369,43	290,909
369,65	138,806
369,87	107,042
370,08	942,857
370,30	182,353
370,51	53,704
370,73	76,923
370,95	185,714
371,16	550,000
371,38	113,636
371,60	126,923
371,81	110,811
372,03	342,105
372,24	754,545
372,46	73,171
372,68	114,063
372,89	157,143
373,11	166,667
373,32	346,667
373,54	100,000
373,76	112,766
373,97	68,817
374,19	175,676
374,40	188,889
374,62	-1200,000
374,84	364,000
375,05	143,243
375,27	122,642
375,48	167,442
375,70	72,727
375,92	216,667
376,13	104,444
376,35	1933,333
376,56	90,667
376,78	114,583
376,99	46,753
377,21	-6500,000
377,43	120,833
377,64	242,105
377,86	141,304
378,07	46,667
378,29	-0,000
378,51	100,000
378,72	180,000
378,94	73,529
379,15	305,714
379,37	144,643
379,58	150,000
379,80	223,077
380,01	1025,000
380,23	0,000
380,45	146,154
380,66	216,667
380,88	500,000
381,09	98,571
381,31	60,870
381,52	166,667
381,74	98,507
381,95	129,268
382,17	143,333
382,39	268,182
382,60	507,692
382,82	140,000
383,03	144,231
383,25	74,359
383,46	192,683
383,68	101,786
383,89	360,000
384,11	70,455
384,32	-775,000
384,54	100,000
384,76	5600,000
384,97	96,296
385,19	147,917
385,40	160,417
385,62	205,556
385,83	224,324
386,05	88,372
386,26	78,378
386,48	212,000
386,69	101,887
386,91	144,118
387,12	195,833
387,34	131,373
387,55	152,273
387,77	171,429
387,98	-957,143
388,20	212,903
388,41	197,436
388,63	141,860
388,84	124,615
389,06	117,949
389,27	107,143
389,49	150,000
389,70	61,905
389,92	78,125
390,13	-156,522
390,35	80,000
390,56	130,303
390,78	83,871
390,99	1266,667
391,21	191,071
391,42	188,525
391,64	222,222
391,85	81,667
392,07	44,000
392,28	75,000
392,50	110,526
392,71	151,852
392,93	191,892
393,14	-126,316
393,36	334,375
393,57	68,627
393,79	65,152
394,00	90,909
394,22	40,909
394,43	182,500
394,65	2500,000
394,86	131,818
395,08	106,849
395,29	125,581
395,50	500,000
395,72	97,222
395,93	166,667
396,15	111,268
396,36	135,849
396,58	296,296
396,79	96,364
397,01	104,819
397,22	194,444
397,44	300,000
397,65	47,368
397,87	115,385
398,08	58,000
398,29	25,000
398,51	254,167
398,72	78,000
398,94	75,676
399,15	136,735
399,37	61,538
399,58	135,484
399,80	71,875
400,01	71,014
400,22	89,796
400,44	493,333
400,65	306,667
400,87	98,361
401,08	68,421
401,30	78,000
401,51	134,848
401,72	51,163
401,94	90,323
402,15	83,051
402,37	39,394
402,58	191,111
402,80	130,357
403,01	103,191
403,22	46,667
403,44	120,000
403,65	-45,455
403,87	30,769
404,08	38,462
404,30	68,966
404,51	101,786
404,72	102,439
404,94	138,571
405,15	60,870
405,37	101,389
405,58	79,545
405,79	88,608
406,01	114,019
406,22	70,732
406,44	65,306
406,65	73,973
406,86	49,495
407,08	108,333
407,29	15,730
407,51	55,102
407,72	148,148
407,93	85,235
408,15	59,459
408,36	53,704
408,58	49,593
408,79	32,258
409,00	55,682
409,22	86,813
409,43	55,056
409,64	33,333
409,86	42,553
410,07	0,000
410,29	60,674
410,50	47,945
410,71	82,558
410,93	52,941
411,14	27,344
411,35	42,241
411,57	36,893
411,78	30,806
412,00	28,814
412,21	29,480
412,42	40,196
412,64	36,111
412,85	32,124
413,06	27,805
413,28	45,143
413,49	15,341
413,70	43,682
413,92	28,464
414,13	25,097
414,34	24,201
414,56	16,452
414,77	12,121
414,98	11,045
415,20	27,506
415,41	10,031
415,63	2,134
415,84	10,736
416,05	20,388
416,27	12,560
416,48	20,750
416,69	11,353
416,91	21,341
417,12	18,307
417,33	2,138
417,55	8,370
417,76	12,955
417,97	19,682
418,19	12,195
418,40	13,249
418,61	13,208
418,83	8,423
419,04	14,472
419,25	15,033
419,46	14,465
419,68	13,267
419,89	12,463
420,10	6,658
420,32	9,379
420,53	9,787
420,74	10,967
420,96	8,935
421,17	8,111
421,38	7,794
421,60	9,808
421,81	10,108
422,02	4,545
422,23	6,532
422,45	6,390
422,66	7,373
422,87	6,780
423,09	6,931
423,30	2,846
423,51	5,801
423,73	6,388
423,94	6,286
424,15	4,471
424,36	4,395
424,58	5,243
424,79	5,721
425,00	5,776
425,22	7,175
425,43	5,108
425,64	4,402
425,85	3,890
426,07	2,967
426,28	5,724
426,49	4,629
426,71	3,748
426,92	3,626
427,13	3,548
427,34	5,818
427,56	3,181
427,77	4,903
427,98	2,466
428,19	2,520
428,41	6,209
428,62	5,412
428,83	5,767
429,04	6,702
429,26	9,134
429,47	9,203
429,68	9,401
429,89	9,950
430,11	14,745
430,32	15,744
430,53	17,077
430,74	18,586
430,96	19,901
431,17	24,492
431,38	25,666
431,59	28,280
431,81	29,926
432,02	33,769
432,23	33,262
432,44	37,754
432,66	36,991
432,87	38,487
433,08	40,176
433,29	40,554
433,51	42,190
433,72	43,294
433,93	44,197
434,14	43,227
434,35	44,890
434,57	43,533
434,78	43,769
434,99	45,573
435,20	44,611
435,42	46,562
435,63	45,652
435,84	44,766
436,05	45,495
436,26	46,923
436,48	46,615
436,69	46,906
436,90	45,828
437,11	47,041
437,32	47,390
437,54	47,233
437,75	46,693
437,96	49,047
438,17	47,855
438,38	48,052
438,60	47,812
438,81	49,901
439,02	50,033
439,23	51,866
439,44	53,886
439,66	56,045
439,87	59,357
440,08	60,024
440,29	64,271
440,50	65,077
440,72	68,777
440,93	70,292
441,14	72,843
441,35	73,677
441,56	76,070
441,77	77,116
441,99	78,837
442,20	81,363
442,41	82,925
442,62	84,052
442,83	85,798
443,04	87,277
443,26	86,997
443,47	87,819
443,68	89,824
443,89	90,253
444,10	89,437
444,31	89,902
444,53	90,240
444,74	91,041
444,95	90,228
445,16	90,939
445,37	90,625
445,58	91,660
445,80	92,674
446,01	92,048
446,22	95,115
446,43	94,017
446,64	93,645
446,85	93,893
447,06	94,903
447,28	96,746
447,49	93,881
447,70	94,026
447,91	93,907
448,12	92,797
448,33	92,520
448,54	90,595
448,76	90,631
448,97	90,506
449,18	89,130
449,39	88,397
449,60	86,818
449,81	86,441
450,02	85,926
450,23	84,904
450,45	86,698
450,66	86,567
450,87	86,535
451,08	89,248
451,29	89,683
451,50	92,896
451,71	92,595
451,92	93,596
452,13	94,782
452,35	95,766
452,56	95,980
452,77	95,489
452,98	96,832
453,19	97,063
453,40	98,816
453,61	97,789
453,82	98,092
454,03	98,833
454,25	97,640
454,46	98,172
454,67	99,151
454,88	99,993
455,09	99,094
455,30	99,225
455,51	98,521
455,72	100,960
455,93	99,546
456,14	99,045
456,35	98,126
456,56	99,949
456,78	100,162
456,99	100,519
457,20	99,809
457,41	100,121
457,62	98,556
457,83	97,498
458,04	99,564
458,25	97,736
458,46	99,994
458,67	97,587
458,88	98,425
459,09	96,896
459,30	97,113
459,51	96,631
459,73	96,145
459,94	95,600
460,15	94,228
460,36	94,790
460,57	94,733
460,78	93,796
460,99	95,217
461,20	94,456
461,41	94,349
461,62	95,585
461,83	95,612
462,04	96,889
462,25	96,641
462,46	96,555
462,67	96,640
462,88	96,822
463,09	96,607
463,30	95,490
463,51	96,210
463,72	95,178
463,93	95,175
464,15	94,196
464,36	93,600
464,57	93,127
464,78	92,460
464,99	92,962
465,20	91,260
465,41	91,726
465,62	92,688
465,83	92,458
466,04	92,343
466,25	92,738
466,46	93,845
466,67	94,299
466,88	94,355
467,09	96,328
467,30	96,402
467,51	96,572
467,72	97,339
467,93	96,967
468,14	98,149
468,35	97,590
468,56	98,077
468,77	97,827
468,98	97,519
469,19	98,129
469,40	97,368
469,61	99,113
469,82	97,671
470,03	96,623
470,24	97,960
470,45	97,246
470,66	96,051
470,87	96,161
471,08	95,697
471,29	94,575
471,50	95,212
471,71	94,562
471,92	93,755
472,13	93,149
472,34	93,326
472,55	92,924
472,76	91,364
472,97	91,922
473,18	90,764
473,39	89,642
473,60	90,418
473,81	90,322
474,01	90,008
474,22	90,501
474,43	90,358
474,64	91,444
474,85	91,085
475,06	91,321
475,27	91,094
475,48	90,426
475,69	89,113
475,90	88,546
476,11	87,311
476,32	86,283
476,53	83,776
476,74	83,189
476,95	81,061
477,16	79,055
477,37	76,140
477,58	73,749
477,79	70,661
478,00	66,847
478,21	63,331
478,41	59,907
478,62	56,422
478,83	51,054
479,04	47,201
479,25	43,472
479,46	39,297
479,67	35,102
479,88	31,415
480,09	27,274
480,30	23,479
480,51	20,413
480,72	17,390
480,93	14,446
481,14	12,226
481,34	9,747
481,55	7,940
481,76	6,295
481,97	5,040
482,18	3,753
482,39	2,739
482,60	2,537
482,81	1,749
483,02	1,706
483,23	1,201
483,44	0,905
483,65	0,746
483,85	0,695
484,06	0,604
484,27	0,647
484,48	0,548
484,69	0,567
484,90	0,421
485,11	0,427
485,32	0,383
485,53	0,665
485,73	0,437
485,94	0,361
486,15	0,448
486,36	0,405
486,57	0,581
486,78	0,275
486,99	0,266
487,20	0,442
487,41	0,406
487,61	0,533
487,82	0,380
488,03	0,245
488,24	0,280
488,45	0,484
488,66	0,536
488,87	0,280
489,08	0,390
489,28	0,511
489,49	0,447
489,70	0,514
489,91	0,242
490,12	0,355
490,33	0,376
490,54	0,287
490,74	0,213
490,95	0,272
491,16	0,340
491,37	0,407
491,58	0,212
491,79	0,374
492,00	0,105
492,20	0,289
492,41	0,398
492,62	0,355
492,83	0,322
493,04	0,437
493,25	0,137
493,45	0,443
493,66	0,390
493,87	0,442
494,08	0,184
494,29	0,264
494,50	0,353
494,70	0,209
494,91	0,316
495,12	0,231
495,33	0,330
495,54	0,260
495,75	0,251
495,95	0,222
496,16	0,372
496,37	0,410
496,58	0,419
496,79	0,235
496,99	0,441
497,20	0,244
497,41	0,488
497,62	0,247
497,83	0,241
498,04	0,329
498,24	0,272
498,45	0,295
498,66	0,395
498,87	0,367
499,08	0,219
499,28	0,342
499,49	0,229
499,70	0,398
499,91	0,207
500,12	0,389
500,32	0,432
500,53	0,363
500,74	0,311
500,95	0,224
501,15	0,390
501,36	0,409
501,57	0,165
501,78	0,425
501,99	0,380
502,19	0,313
502,40	0,309
502,61	0,181
502,82	0,321
503,02	0,342
503,23	0,413
503,44	0,233
503,65	0,369
503,86	0,344
504,06	0,339
504,27	0,454
504,48	0,253
504,69	0,490
504,89	0,402
505,10	0,247
505,31	0,266
505,52	0,248
505,72	0,330
505,93	0,319
506,14	0,400
506,35	0,300
506,55	0,249
506,76	0,251
506,97	0,405
507,18	0,353
507,38	0,262
507,59	0,269
507,80	0,295
508,01	0,403
508,21	0,470
508,42	0,247
508,63	0,432
508,84	0,369
509,04	0,372
509,25	0,384
509,46	0,314
509,67	0,290
509,87	0,249
510,08	0,427
510,29	0,369
510,49	0,318
510,70	0,386
510,91	0,165
511,12	0,484
511,32	0,171
511,53	0,365
511,74	0,314
511,94	0,384
512,15	0,370
512,36	0,371
512,57	0,591
512,77	0,341
512,98	0,408
513,19	0,369
513,39	0,324
513,60	0,517
513,81	0,578
514,01	0,297
514,22	0,460
514,43	0,377
514,64	0,189
514,84	0,406
515,05	0,313
515,26	0,444
515,46	0,449
515,67	0,412
515,88	0,172
516,08	0,475
516,29	0,124
516,50	0,461
516,70	0,344
516,91	0,617
517,12	0,234
517,32	0,548
517,53	0,322
517,74	0,382
517,95	0,390
518,15	0,447
518,36	0,488
518,57	0,426
518,77	0,462
518,98	0,383
519,19	0,562
519,39	0,398
519,60	0,501
519,80	0,456
520,01	0,323
520,22	0,374
520,42	0,325
520,63	0,588
520,84	0,562
521,04	0,529
521,25	0,530
521,46	0,495
521,66	0,874
521,87	0,844
522,08	1,084
522,28	1,273
522,49	1,301
522,70	1,712
522,90	2,200
523,11	2,409
523,31	2,728
523,52	3,377
523,73	4,147
523,93	4,480
524,14	5,462
524,35	6,374
524,55	7,385
524,76	8,428
524,97	9,559
525,17	10,935
525,38	12,667
525,58	14,034
525,79	15,920
526,00	17,422
526,20	18,900
526,41	20,967
526,61	22,604
526,82	24,572
527,03	25,847
527,23	27,542
527,44	29,474
527,64	31,292
527,85	32,324
528,06	34,235
528,26	36,375
528,47	37,041
528,68	38,610
528,88	39,399
529,09	40,783
529,29	41,086
529,50	42,247
529,70	42,946
529,91	44,407
530,12	44,799
530,32	44,968
530,53	45,210
530,73	45,863
530,94	46,566
531,15	46,192
531,35	47,409
531,56	47,443
531,76	47,478
531,97	47,793
532,17	48,363
532,38	48,911
532,59	49,180
532,79	49,512
533,00	50,843
533,20	51,068
533,41	52,279
533,61	52,974
533,82	54,257
534,03	55,763
534,23	57,091
534,44	59,803
534,64	61,713
534,85	64,287
535,05	68,190
535,26	70,677
535,46	72,445
535,67	75,417
535,88	79,179
536,08	81,762
536,29	83,649
536,49	85,882
536,70	88,319
536,90	89,378
537,11	92,037
537,31	93,527
537,52	94,427
537,72	96,568
537,93	96,595
538,13	96,941
538,34	97,308
538,55	97,988
538,75	99,124
538,96	99,431
539,16	99,216
539,37	99,559
539,57	98,738
539,78	98,704
539,98	98,902
540,19	99,225
540,39	99,466
540,60	99,115
540,80	98,358
541,01	97,296
541,21	97,795
541,42	96,961
541,62	97,322
541,83	96,957
542,03	97,803
542,24	97,269
542,44	97,010
542,65	97,394
542,85	97,715
543,06	98,033
543,26	98,551
543,47	98,128
543,67	98,992
543,88	98,091
544,08	99,549
544,29	98,092
544,49	98,717
544,70	99,305
544,90	98,125
545,11	97,199
545,31	98,132
545,52	98,034
545,72	96,995
545,93	97,811
546,13	97,223
546,34	96,816
546,54	96,657
546,75	96,182
546,95	96,786
547,15	96,477
547,36	96,292
547,56	98,011
547,77	96,265
547,97	97,283
548,18	97,287
548,38	96,190
548,59	95,793
548,79	96,510
549,00	96,052
549,20	97,134
549,41	96,770
549,61	97,517
549,81	97,800
550,02	97,921
550,22	98,428
550,43	97,966
550,63	97,729
550,84	98,226
551,04	97,275
551,25	98,672
551,45	97,405
551,65	97,317
551,86	97,698
552,06	98,402
552,27	98,149
552,47	97,946
552,68	98,777
552,88	98,213
553,08	99,449
553,29	99,658
553,49	99,377
553,70	98,484
553,90	99,283
554,11	100,611
554,31	99,017
554,51	100,357
554,72	100,127
554,92	100,339
555,13	101,163
555,33	100,975
555,53	99,444
555,74	100,227
555,94	101,134
556,15	100,787
556,35	100,829
556,56	101,738
556,76	101,011
556,96	102,297
557,17	101,124
557,37	100,469
557,58	101,440
557,78	100,634
557,98	100,672
558,19	100,752
558,39	100,414
558,59	100,280
558,80	100,893
559,00	99,594
559,21	100,785
559,41	99,711
559,61	100,583
559,82	99,996
560,02	100,390
560,23	99,456
560,43	98,647
560,63	99,630
560,84	99,740
561,04	99,602
561,24	99,022
561,45	100,079
561,65	99,410
561,85	100,702
562,06	99,914
562,26	100,139
562,47	101,015
562,67	100,667
562,87	100,887
563,08	100,461
563,28	99,781
563,48	100,684
563,69	100,766
563,89	100,030
564,09	100,608
564,30	100,165
564,50	100,848
564,70	99,766
564,91	100,399
565,11	99,453
565,31	99,951
565,52	99,320
565,72	100,725
565,92	99,427
566,13	99,789
566,33	99,106
566,53	99,142
566,74	99,981
566,94	100,426
567,14	99,450
567,35	99,434
567,55	99,197
567,75	98,469
567,96	99,338
568,16	98,663
568,36	98,832
568,57	98,936
568,77	98,954
568,97	98,160
569,18	98,941
569,38	99,094
569,58	98,859
569,79	99,134
569,99	98,844
570,19	98,884
570,39	98,760
570,60	98,982
570,80	99,528
571,00	99,275
571,21	99,084
571,41	98,916
571,61	98,849
571,82	98,853
572,02	97,805
572,22	99,693
572,42	99,855
572,63	98,536
572,83	98,988
573,03	99,039
573,24	99,032
573,44	98,380
573,64	98,433
573,84	96,826
574,05	97,632
574,25	98,369
574,45	97,853
574,66	97,687
574,86	98,622
575,06	98,255
575,26	98,395
575,47	97,301
575,67	97,496
575,87	96,813
576,07	97,107
576,28	97,990
576,48	96,665
576,68	97,591
576,88	96,250
577,09	96,167
577,29	96,375
577,49	96,020
577,69	95,509
577,90	94,264
578,10	94,280
578,30	94,192
578,50	93,427
578,71	91,860
578,91	91,193
579,11	91,038
579,31	89,933
579,52	88,339
579,72	87,183
579,92	85,322
580,12	84,873
580,33	82,204
580,53	80,139
580,73	77,534
580,93	74,046
581,13	71,373
581,34	69,020
581,54	64,597
581,74	61,468
581,94	57,313
582,15	53,443
582,35	49,110
582,55	45,657
582,75	42,344
582,95	39,215
583,16	35,411
583,36	32,363
583,56	29,385
583,76	26,486
583,96	24,764
584,17	21,974
584,37	19,576
584,57	17,598
584,77	14,865
584,97	13,095
585,18	11,557
585,38	9,709
585,58	8,455
585,78	6,922
585,98	5,984
586,19	5,156
586,39	4,072
586,59	3,281
586,79	2,745
586,99	2,087
587,20	1,783
587,40	1,447
587,60	1,136
587,80	0,837
588,00	0,942
588,20	0,807
588,41	0,593
588,61	0,398
588,81	0,422
589,01	0,559
589,21	0,402
589,41	0,307
589,62	0,415
589,82	0,375
590,02	0,333
590,22	0,349
590,42	0,467
590,62	0,359
590,83	0,332
591,03	0,434
591,23	0,517
591,43	0,350
591,63	0,249
591,83	0,336
592,03	0,472
592,24	0,193
592,44	0,358
592,64	0,277
592,84	0,383
593,04	0,388
593,24	0,380
593,44	0,209
593,65	0,379
593,85	0,244
594,05	0,161
594,25	0,115
594,45	0,336
594,65	0,298
594,85	0,200
595,06	0,359
595,26	0,314
595,46	0,222
595,66	-0,018
595,86	0,307
596,06	0,285
596,26	0,281
596,46	0,196
596,66	0,166
596,87	0,302
597,07	0,310
597,27	0,388
597,47	0,355
597,67	0,300
597,87	0,377
598,07	0,283
598,27	0,350
598,47	0,316
598,67	0,271
598,88	0,251
599,08	0,335
599,28	0,456
599,48	0,296
599,68	0,305
599,88	0,229
600,08	0,224
600,28	0,247
600,48	0,214
600,68	0,196
600,88	0,200
601,09	0,304
601,29	0,287
601,49	0,254
601,69	0,146
601,89	0,354
602,09	0,145
602,29	0,178
602,49	0,311
602,69	0,332
602,89	0,256
603,09	0,252
603,29	0,306
603,49	0,372
603,69	0,293
603,90	0,263
604,10	0,281
604,30	0,083
604,50	0,153
604,70	0,129
604,90	0,225
605,10	0,180
605,30	0,391
605,50	0,178
605,70	0,288
605,90	0,258
606,10	0,300
606,30	0,154
606,50	0,175
606,70	0,273
606,90	0,475
607,10	0,431
607,30	0,147
607,50	0,361
607,70	0,417
607,90	0,287
608,10	0,319
608,30	0,138
608,50	0,502
608,70	0,210
608,90	0,174
609,11	0,475
609,31	0,370
609,51	0,310
609,71	0,423
609,91	0,317
610,11	0,256
610,31	0,313
610,51	0,259
610,71	0,281
610,91	0,291
611,11	0,481
611,31	0,235
611,51	0,309
611,71	0,166
611,91	0,189
612,11	0,313
612,31	0,353
612,51	0,254
612,71	0,183
612,91	0,146
613,11	0,424
613,31	0,481
613,51	0,459
613,71	0,267
613,91	0,393
614,11	0,441
614,31	0,472
614,50	0,388
614,70	0,513
614,90	0,622
615,10	0,337
615,30	0,424
615,50	0,661
615,70	0,740
615,90	0,692
616,10	0,969
616,30	1,026
616,50	1,173
616,70	1,280
616,90	1,694
617,10	1,754
617,30	2,279
617,50	2,630
617,70	2,852
617,90	3,452
618,10	4,032
618,30	4,468
618,50	5,053
618,70	6,152
618,90	6,701
619,10	7,927
619,30	9,148
619,49	10,398
619,69	11,702
619,89	12,882
620,09	13,778
620,29	15,230
620,49	16,989
620,69	18,218
620,89	19,565
621,09	21,506
621,29	22,262
621,49	23,806
621,69	24,726
621,89	26,360
622,09	27,298
622,29	28,693
622,48	30,084
622,68	31,280
622,88	32,170
623,08	32,507
623,28	33,766
623,48	34,405
623,68	34,895
623,88	35,840
624,08	35,731
624,28	37,115
624,48	37,263
624,67	37,362
624,87	38,568
625,07	38,943
625,27	39,785
625,47	40,028
625,67	40,750
625,87	41,580
626,07	42,319
626,27	42,103
626,47	43,272
626,66	42,630
626,86	43,540
627,06	44,170
627,26	44,955
627,46	44,777
627,66	46,108
627,86	46,811
628,06	46,885
628,25	48,596
628,45	49,189
628,65	49,914
628,85	51,425
629,05	53,035
629,25	54,534
629,45	55,611
629,65	57,760
629,84	60,222
630,04	62,910
630,24	65,104
630,44	67,269
630,64	70,913
630,84	72,184
631,04	75,895
631,23	79,533
631,43	81,228
631,63	83,752
631,83	86,914
632,03	87,728
632,23	89,519
632,42	91,516
632,62	92,750
632,82	93,592
633,02	94,366
633,22	95,365
633,42	97,328
633,62	97,145
633,81	97,664
634,01	97,411
634,21	98,478
634,41	97,942
634,61	98,595
634,80	98,488
635,00	98,177
635,20	99,613
635,40	99,911
635,60	98,629
635,80	99,768
635,99	99,236
636,19	98,910
636,39	100,205
636,59	99,488
636,79	98,869
636,98	98,378
637,18	98,323
637,38	98,278
637,58	97,649
637,78	97,891
637,97	98,005
638,17	98,379
638,37	98,007
638,57	98,252
638,77	98,184
638,96	97,290
639,16	96,402
639,36	95,991
639,56	96,760
639,76	96,494
639,95	95,885
640,15	96,562
640,35	95,521
640,55	96,189
640,75	96,241
640,94	96,030
641,14	95,385
641,34	94,832
641,54	95,179
641,73	94,699
641,93	94,852
642,13	94,109
642,33	94,847
642,53	93,873
642,72	94,333
642,92	94,994
643,12	95,136
643,32	94,106
643,51	94,019
643,71	94,059
643,91	94,239
644,11	95,780
644,30	96,054
644,50	95,081
644,70	94,824
644,90	95,223
645,09	94,400
645,29	95,453
645,49	94,389
645,69	94,913
645,88	94,616
646,08	95,127
646,28	94,808
646,48	94,812
646,67	94,582
646,87	95,481
647,07	94,164
647,26	94,942
647,46	94,881
647,66	94,627
647,86	94,765
648,05	91,358
648,25	94,099
648,45	92,851
648,65	93,275
648,84	94,064
649,04	92,935
649,24	93,303
649,43	92,052
649,63	93,856
649,83	95,065
650,03	94,911
650,22	93,899
650,42	94,176
650,62	93,327
650,81	93,178
651,01	94,300
651,21	93,889
651,40	93,455
651,60	93,110
651,80	93,979
652,00	94,398
652,19	93,069
652,39	95,252
652,59	95,188
652,78	94,034
652,98	94,175
653,18	95,033
653,37	96,088
653,57	93,244
653,77	94,337
653,96	95,660
654,16	96,763
654,36	95,650
654,55	96,065
654,75	96,106
654,95	95,297
655,14	96,246
655,34	96,193
655,54	95,665
655,73	97,242
655,93	97,912
656,13	96,202
656,32	95,623
656,52	95,767
656,72	96,916
656,91	96,160
657,11	93,875
657,31	95,274
657,50	97,019
657,70	96,257
657,90	95,876
658,09	95,599
658,29	95,361
658,49	95,508
658,68	93,357
658,88	95,021
659,07	94,128
659,27	95,170
659,47	96,433
659,66	94,163
659,86	95,528
660,06	94,380
660,25	93,535
660,45	93,642
660,64	95,825
660,84	94,555
661,04	93,425
661,23	94,922
661,43	94,296
661,63	94,165
661,82	93,366
662,02	94,322
662,21	94,389
662,41	94,004
662,61	92,424
662,80	93,386
663,00	93,544
663,19	94,118
663,39	94,290
663,59	94,802
663,78	92,840
663,98	93,434
664,17	91,982
664,37	93,060
664,57	93,016
664,76	94,664
664,96	91,777
665,15	94,683
665,35	94,387
665,55	92,850
665,74	93,841
665,94	94,097
666,13	92,994
666,33	91,310
666,53	92,750
666,72	91,511
666,92	93,115
667,11	92,960
667,31	91,245
667,50	91,426
667,70	92,199
667,90	91,867
668,09	93,439
668,29	91,712
668,48	90,530
668,68	91,196
668,87	91,592
669,07	90,989
669,26	90,872
669,46	89,800
669,66	89,327
669,85	89,360
670,05	87,385
670,24	87,930
670,44	86,897
670,63	85,736
670,83	84,113
671,02	85,025
671,22	82,862
671,42	80,917
671,61	81,242
671,81	81,139
672,00	77,152
672,20	75,643
672,39	74,040
672,59	72,580
672,78	71,162
672,98	69,580
673,17	66,393
673,37	65,996
673,56	63,666
673,76	59,896
673,95	59,112
674,15	55,615
674,34	54,011
674,54	51,060
674,73	48,708
674,93	46,483
675,13	44,376
675,32	41,851
675,52	39,259
675,71	35,873
675,91	34,203
676,10	31,475
676,30	29,420
676,49	27,311
676,69	25,054
676,88	23,141
677,08	20,662
677,27	18,747
677,47	17,380
677,66	15,291
677,86	14,126
678,05	12,291
678,24	10,964
678,44	9,552
678,63	8,811
678,83	8,125
679,02	7,023
679,22	6,215
679,41	5,220
679,61	4,801
679,80	4,363
680,00	3,555
680,19	3,291
680,39	2,780
680,58	2,237
680,78	2,392
680,97	1,997
681,17	1,767
681,36	1,318
681,56	1,274
681,75	1,186
681,94	0,889
682,14	0,901
682,33	1,068
682,53	0,497
682,72	0,762
682,92	0,270
683,11	0,425
683,31	0,147
683,50	0,284
683,69	0,303
683,89	0,116
684,08	0,232
684,28	0,332
684,47	0,127
684,67	0,059
684,86	0,155
685,06	0,199
685,25	0,075
685,44	0,228
685,64	0,284
685,83	-0,043
686,03	0,223
686,22	0,263
686,42	-0,063
686,61	0,167
686,80	0,275
687,00	0,107
687,19	0,200
687,39	0,205
687,58	0,032
687,77	0,100
687,97	0,140
688,16	-0,167
688,36	0,214
688,55	-0,008
688,74	0,116
688,94	0,307
689,13	0,012
689,33	0,122
689,52	0,133
689,71	0,181
689,91	0,045
690,10	0,063
690,30	0,052
690,49	-0,007
690,68	-0,011
690,88	0,098
691,07	0,025
691,27	0,309
691,46	0,253
691,65	0,147
691,85	0,122
692,04	-0,173
692,23	-0,022
692,43	0,068
692,62	0,065
692,82	0,171
693,01	0,097
693,20	-0,149
693,40	0,044
693,59	0,044
693,78	0,059
693,98	-0,141
694,17	0,075
694,36	0,079
694,56	-0,050
694,75	0,098
694,94	0,031
695,14	0,140
695,33	-0,004
695,53	-0,291
695,72	0,158
695,91	0,253
696,11	0,099
696,30	0,048
696,49	-0,009
696,69	0,175
696,88	0,244
697,07	0,252
697,27	0,005
697,46	0,000
697,65	-0,078
697,85	0,048
698,04	0,005
698,23	-0,136
698,43	0,399
698,62	0,101
698,81	-0,049
699,01	-0,038
699,20	0,395
699,39	0,040
699,58	0,117
699,78	0,021
699,97	0,133
700,16	-0,098
700,36	-0,072
700,55	0,466
700,74	0,250
700,94	0,257
701,13	0,159
701,32	0,307
701,52	0,311
701,71	0,610
701,90	-0,020
702,09	-0,082
702,29	0,293
702,48	0,096
702,67	0,871
702,87	-0,012
703,06	0,187
703,25	0,429
703,44	-0,111
703,64	0,504
703,83	0,416
704,02	0,205
704,22	0,269
704,41	0,281
704,60	1,040
704,79	-0,061
704,99	0,543
705,18	0,753
705,37	0,974
705,56	0,237
705,76	1,384
705,95	0,503
706,14	0,785
706,33	0,056
706,53	0,359
706,72	0,898
706,91	0,515
707,11	0,241
707,30	1,586
707,49	1,354
707,68	2,192
707,88	-0,273
708,07	0,998
708,26	1,126
708,45	0,335
708,64	0,341
708,84	1,327
709,03	0,570
709,22	0,053
709,41	1,914
709,61	-0,223
709,80	0,783
709,99	0,742
710,18	0,832
710,38	1,473
710,57	1,913
710,76	2,327
710,95	1,787
711,14	1,692
711,34	0,711
711,53	0,740
711,72	2,823
711,91	0,308
712,11	3,018
712,30	2,195
712,49	0,222
712,68	1,815
712,87	0,625
713,07	1,730
713,26	1,008
713,45	1,608
713,64	1,065
713,83	1,911
714,03	0,172
714,22	-0,392
714,41	1,206
714,60	1,917
714,79	0,917
714,99	2,772
715,18	0,611
715,37	1,356
715,56	3,667
715,75	1,514
715,94	-0,610
716,14	-2,261
716,33	1,295
716,52	1,716
716,71	0,759
716,90	0,211
717,10	4,450
717,29	2,691
717,48	1,361
717,67	2,484
717,86	0,572
718,05	0,806
718,24	1,272
718,44	2,749
718,63	3,767
718,82	4,774
719,01	0,922
719,20	0,361
719,39	1,886
719,59	3,357
719,78	1,792
719,97	5,534
720,16	0,210
720,35	4,824
720,54	6,116
720,73	1,827
720,93	2,437
721,12	-2,810
721,31	4,883
721,50	6,321
721,69	1,469
721,88	2,558
722,07	2,350
722,27	-1,558
722,46	-3,888
722,65	1,215
722,84	3,236
723,03	0,940
723,22	0,407
723,41	3,387
723,60	1,852
723,79	2,085
723,99	5,844
724,18	1,670
724,37	-0,532
724,56	3,662
724,75	2,946
724,94	6,050
725,13	7,244
725,32	4,148
725,51	0,896
725,71	1,623
725,90	1,681
726,09	2,471
726,28	2,825
726,47	3,401
726,66	0,779
726,85	6,329
727,04	7,136
727,23	3,418
727,42	2,689
727,61	1,143
727,81	3,359
728,00	2,006
728,19	0,317
728,38	2,778
728,57	5,161
728,76	6,475
728,95	3,388
729,14	5,466
729,33	5,316
729,52	6,865
729,71	4,075
729,90	0,815
730,09	1,538
730,28	4,610
730,48	1,695
730,67	5,176
730,86	5,652
731,05	-1,227
731,24	-3,062
731,43	6,421
731,62	7,160
731,81	8,009
732,00	3,113
732,19	3,383
732,38	1,697
732,57	1,005
732,76	-2,537
732,95	5,006
733,14	8,869
733,33	-1,389
733,52	3,523
733,71	4,654
733,90	1,936
734,09	6,676
734,28	7,480
734,47	-0,735
734,66	7,433
734,85	-4,795
735,04	13,773
735,23	6,233
735,42	1,986
735,61	5,956
735,81	1,278
736,00	5,263
736,19	0,150
736,38	10,226
736,57	5,854
736,76	0,000
736,95	6,220
737,14	6,595
737,33	1,869
737,52	5,927
737,71	6,555
737,90	1,757
738,09	-5,345
738,28	1,948
738,47	7,556
738,66	2,881
738,85	-1,575
739,04	4,348
739,22	3,087
739,41	2,443
739,60	8,977
739,79	4,973
739,98	2,825
740,17	3,209
740,36	6,818
740,55	6,557
740,74	-1,115
740,93	8,769
741,12	10,381
741,31	-6,135
741,50	5,575
741,69	-0,370
741,88	5,604
742,07	-2,650
742,26	-2,486
742,45	9,964
742,64	3,469
742,83	12,088
743,02	-1,205
743,21	6,772
743,40	9,770
743,59	4,912
743,78	-7,595
743,97	10,816
744,16	-0,431
744,34	5,579
744,53	6,897
744,72	6,794
744,91	4,928
745,10	7,586
745,29	3,052
745,48	8,079
745,67	5,333
745,86	2,075
746,05	9,172
746,24	3,448
746,43	12,018
746,62	8,481
746,81	2,370
747,00	11,458
747,18	8,182
747,37	4,091
747,56	5,263
747,75	5,627
747,94	9,848
748,13	3,271
748,32	4,878
748,51	4,215
748,70	11,271
748,89	11,559
749,08	14,039
749,26	-0,267
749,45	0,000
749,64	7,235
749,83	4,914
750,02	1,340
750,21	7,812
750,40	2,375
750,59	12,234
750,78	13,012
750,96	14,713
751,15	1,609
751,34	8,354
751,53	8,056
751,72	10,456
751,91	7,087
752,10	4,225
752,29	-4,928
752,47	6,034
752,66	15,680
752,85	6,878
753,04	8,919
753,23	15,335
753,42	11,471
753,61	20,061
753,80	-4,805
753,98	4,375
754,17	6,516
754,36	10,458
754,55	-2,280
754,74	11,081
754,93	23,226
755,12	-1,538
755,30	-7,749
755,49	4,985
755,68	14,521
755,87	2,389
756,06	20,749
756,25	-4,290
756,43	10,072
756,62	3,971
756,81	-1,569
757,00	18,132
757,19	20,552
757,38	12,704
757,56	15,203
757,75	-10,687
757,94	13,362
758,13	14,968
758,32	0,758
758,51	13,226
758,69	11,859
758,88	10,492
759,07	22,776
759,26	10,204
759,45	6,071
759,63	2,372
759,82	26,277
760,01	-5,556
760,20	16,423
760,39	11,494
760,57	-0,858
760,76	-4,580
760,95	8,429
761,14	-6,154
761,33	6,250
761,51	15,185
761,70	11,034
761,89	11,628
762,08	-6,897
762,27	5,769
762,45	10,377
762,64	6,637
762,83	26,394
763,02	18,685
763,21	6,690
763,39	-2,715
763,58	19,184
763,77	1,064
763,96	29,825
764,14	5,394
764,33	18,045
764,52	26,786
764,71	1,478
764,89	10,473
765,08	19,101
765,27	-8,416
765,46	-3,182
765,65	2,538
765,83	4,286
766,02	5,495
766,21	17,722
766,40	24,186
766,58	23,077
766,77	-2,260
766,96	10,769
767,15	22,222
767,33	2,404
767,52	5,213
767,71	-5,000
767,90	15,000
768,08	27,039
768,27	4,186
768,46	17,143
768,64	16,505
768,83	12,973
769,02	0,952
769,21	23,958
769,39	14,094
769,58	20,000
769,77	5,978
769,96	-1,987
770,14	26,336
770,33	14,973
770,52	0,000
770,70	19,802
770,89	9,184
771,08	19,271
771,27	-0,515
771,45	6,358
771,64	65,789
771,83	6,989
772,01	19,084
772,20	28,283
772,39	7,006
772,57	50,521
772,76	47,586
772,95	11,168
773,14	30,233
773,32	23,077
773,51	22,326
773,70	3,974
773,88	20,101
774,07	25,523
774,26	25,610
774,44	22,111
774,63	18,987
774,82	34,940
775,00	27,074
775,19	21,264
775,38	5,333
775,56	45,122
775,75	-2,395
775,94	16,418
776,12	25,000
776,31	19,162
776,50	-8,485
776,68	26,543
776,87	9,091
777,06	27,397
777,24	-5,738
777,43	27,642
777,62	46,667
777,80	33,696
777,99	39,490
778,18	16,561
778,36	12,214
778,55	33,333
778,74	18,939
778,92	54,299
779,11	20,645
779,29	37,908
779,48	27,273
779,67	15,108
779,85	39,200
780,04	40,845
780,23	25,874
780,41	25,882
780,60	5,848
780,79	29,167
780,97	18,571
781,16	48,000
781,34	21,970
781,53	32,051
781,72	24,074
781,90	50,962
782,09	7,377
782,28	53,659
782,46	11,382
782,65	32,168
782,83	27,481
783,02	11,200
783,21	23,256
783,39	6,410
783,58	60,667
783,76	18,919
783,95	7,285
784,14	-27,368
784,32	5,505
784,51	32,584
784,69	3,185
784,88	30,968
785,06	36,879
785,25	3,759
785,44	37,162
785,62	26,429
785,81	29,851
785,99	18,367
786,18	37,705
786,37	57,931
786,55	6,716
786,74	51,553
786,92	1,744
787,11	24,000
787,29	2,353
787,48	-35,000
787,67	15,306
787,85	-31,250
788,04	30,822
788,22	12,963
788,41	29,605
788,59	51,020
788,78	54,167
788,96	38,095
789,15	31,148
789,34	62,195
789,52	27,612
789,71	0,000
789,89	25,439
790,08	4,902
790,26	44,444
790,45	29,197
790,63	10,526
790,82	35,484
791,00	18,254
791,19	48,571
791,38	19,178
791,56	43,421
791,75	12,162
791,93	-10,784
792,12	1,515
792,30	15,789
792,49	27,103
792,67	35,714
792,86	-21,622
793,04	11,905
793,23	55,921
793,41	33,548
793,60	37,342
793,78	32,886
793,97	30,172
794,15	12,418
794,34	-2,041
794,52	50,388
794,71	48,765
794,89	30,000
795,08	50,000
795,26	38,000
795,45	32,979
795,63	18,239
795,82	31,933
796,00	46,154
796,19	45,455
796,37	42,373
796,56	-62,963
796,74	43,750
796,93	31,933
797,11	15,000
797,30	54,198
797,48	49,650
797,67	37,097
797,85	36,957
798,04	49,550
798,22	41,007
798,41	72,034
798,59	13,571
798,77	39,316
798,96	45,161
799,14	47,222
799,33	31,858
799,51	6,931
799,70	21,978
799,88	32,110
800,07	23,022
800,25	55,725
800,44	41,584
800,62	15,108
800,80	28,409
800,99	58,974
801,17	30,345
801,36	6,250
801,54	25,581
801,73	9,091
801,91	57,303
802,10	61,176
802,28	34,646
802,46	40,323
802,65	22,517
802,83	12,397
803,02	53,061
803,20	6,780
803,39	-11,009
803,57	-21,831
803,75	35,714
803,94	39,865
804,12	40,373
804,31	-3,846
804,49	58,710
804,67	-13,514
804,86	48,447
805,04	6,977
805,23	30,657
805,41	31,373
805,59	30,723
805,78	42,143
805,96	39,157
806,15	59,200
806,33	2,190
806,51	45,513
806,70	-16,279
806,88	0,909
807,07	49,180
807,25	20,000
807,43	6,667
807,62	14,844
807,80	19,512
807,99	39,568
808,17	13,194
808,35	28,302
808,54	21,788
808,72	21,154
808,90	13,821
809,09	30,657
809,27	63,107
809,46	50,467
809,64	30,058
809,82	11,034
810,01	22,581
810,19	20,909
810,37	23,864
810,56	17,219
810,74	23,899
810,92	19,718
811,11	18,405
811,29	37,267
811,48	-0,870
811,66	24,873
811,84	-1,695
812,03	43,919
812,21	31,515
812,39	47,581
812,58	36,842
812,76	40,876
812,94	6,711
813,13	17,683
813,31	40,741
813,49	22,000
813,68	28,689
813,86	16,667
814,04	18,018
814,23	29,231
814,41	7,534
814,59	13,725
814,78	40,940
814,96	30,168
815,14	14,070
815,33	12,397
815,51	18,110
815,69	42,748
815,87	8,387
816,06	38,806
816,24	6,536
816,42	7,143
816,61	19,753
816,79	16,763
816,97	20,513
817,16	16,071
817,34	27,059
817,52	25,701
817,70	17,617
817,89	22,967
818,07	34,000
818,25	27,848
818,44	19,786
818,62	30,693
818,80	20,879
818,98	5,128
819,17	23,305
819,35	24,161
819,53	15,385
819,72	20,000
819,90	13,778
820,08	19,802
820,26	14,612
820,45	11,290
820,63	36,842
820,81	31,193
820,99	45,852
821,18	23,494
821,36	5,625
821,54	13,433
821,73	13,661
821,91	23,944
822,09	29,586
822,27	26,070
822,46	23,645
822,64	-4,211
822,82	20,305
823,00	8,377
823,19	38,571
823,37	38,462
823,55	30,380
823,73	30,899
823,91	22,460
824,10	42,187
824,28	38,430
824,46	-7,895
824,64	27,675
824,83	22,275
825,01	14,118
825,19	27,074
825,37	19,118
825,56	31,298
825,74	37,662
825,92	28,016
826,10	5,286
826,28	37,269
826,47	22,957
826,65	25,899
826,83	42,982
827,01	36,220
827,19	50,000
827,38	20,974
827,56	44,000
827,74	7,583
827,92	16,098
828,10	30,208
828,29	17,343
828,47	29,197
828,65	26,172
828,83	16,878
829,01	35,135
829,20	31,154
829,38	37,295
829,56	39,394
829,74	30,000
829,92	28,340
830,10	33,047
830,29	45,211
830,47	34,701
830,65	12,971
830,83	38,435
831,01	29,596
831,20	20,803
831,38	29,967
831,56	31,579
831,74	30,169
831,92	34,066
832,10	26,266
832,29	38,516
832,47	31,206
832,65	33,770
832,83	23,101
833,01	34,139
833,19	29,261
833,37	28,875
833,56	24,702
833,74	39,344
833,92	25,676
834,10	28,012
834,28	18,467
834,46	17,341
834,64	37,867
834,83	23,229
835,01	32,376
835,19	30,142
835,37	20,904
835,55	35,127
835,73	11,299
835,91	21,829
836,09	41,447
836,28	31,707
836,46	17,699
836,64	26,509
836,82	25,824
837,00	-0,958
837,18	5,667
837,36	33,138
837,54	16,120
837,72	19,494
837,91	19,830
838,09	19,091
838,27	16,580
838,45	26,027
838,63	3,099
838,81	15,805
838,99	16,711
839,17	6,211
839,35	23,025
839,53	18,112
839,72	14,835
839,90	20,222
840,08	10,824
840,26	4,987
840,44	16,031
840,62	6,739
840,80	31,209
840,98	33,110
841,16	8,967
841,34	14,597
841,52	5,435
841,70	10,670
841,89	26,651
842,07	21,379
842,25	17,610
842,43	23,844
842,61	23,404
842,79	20,862
842,97	3,661
843,15	12,735
843,33	12,551
843,51	21,304
843,69	23,047
843,87	18,750
844,05	16,631
844,23	16,424
844,41	25,249
844,59	17,842
844,77	16,495
844,95	20,346
845,13	25,474
845,31	17,682
845,50	13,665
845,68	27,195
845,86	14,431
846,04	21,793
846,22	23,684
846,40	21,694
846,58	33,068
846,76	22,110
846,94	18,290
847,12	27,115
847,30	27,955
847,48	31,330
847,66	26,955
847,84	26,678
848,02	14,154
848,20	33,898
848,38	30,000
848,56	31,957
848,74	23,133
848,92	26,460
849,10	30,634
849,28	25,669
849,46	21,257
849,64	26,977
849,82	33,387
850,00	25,970
850,18	21,236
850,36	26,159
850,54	24,920
850,72	16,355
850,90	25,505
851,08	21,102
851,26	17,799
851,44	18,901
851,62	29,984
851,80	21,837
851,98	26,998
852,16	26,906
852,34	23,099
852,52	17,604
852,70	29,173
852,87	19,796
853,05	31,805
853,23	25,811
853,41	28,451
853,59	20,924
853,77	25,000
853,95	26,844
854,13	20,455
854,31	21,563
854,49	26,020
854,67	32,771
854,85	22,237
855,03	29,747
855,21	28,175
855,39	25,358
855,57	29,972
855,75	23,506
855,93	17,697
856,11	18,158
856,28	20,639
856,46	23,289
856,64	19,610
856,82	24,969
857,00	24,492
857,18	24,901
857,36	24,876
857,54	27,649
857,72	25,786
857,90	23,857
858,08	20,573
858,26	25,922
858,44	26,882
858,61	23,390
858,79	23,242
858,97	26,860
859,15	26,580
859,33	23,392
859,51	21,503
859,69	23,750
859,87	22,007
860,05	18,327
860,23	17,263
860,40	11,803
860,58	16,537
860,76	19,891
860,94	16,453
861,12	19,442
861,30	20,877
861,48	22,441
861,66	15,240
861,84	13,961
862,01	20,821
862,19	19,106
862,37	13,759
862,55	15,891
862,73	13,430
862,91	22,550
863,09	13,963
863,27	13,106
863,44	19,235
863,62	17,178
863,80	14,049
863,98	19,982
864,16	18,916
864,34	17,964
864,52	19,220
864,69	13,956
864,87	18,469
865,05	15,876
865,23	14,141
865,41	11,409
865,59	19,804
865,76	20,392
865,94	19,705
866,12	18,696
866,30	17,678
866,48	25,066
866,66	19,217
866,83	22,622
867,01	19,153
867,19	20,363
867,37	21,983
867,55	27,551
867,73	18,174
867,90	25,041
868,08	27,295
868,26	23,764
868,44	22,157
868,62	27,924
868,79	25,796
868,97	30,673
869,15	27,708
869,33	26,073
869,51	33,962
869,69	30,056
869,86	27,722
870,04	29,976
870,22	29,277
870,40	30,894
870,57	29,444
870,75	29,756
870,93	30,451
871,11	29,931
871,29	25,990
871,46	29,692
871,64	28,723
871,82	29,261
872,00	32,455
872,18	29,778
872,35	27,614
872,53	29,302
872,71	25,947
872,89	26,397
873,06	26,594
873,24	29,195
873,42	28,110
873,60	31,501
873,77	29,245
873,95	29,367
874,13	26,653
874,31	28,106
874,49	26,724
874,66	34,041
874,84	28,807
875,02	31,532
875,20	33,773
875,37	29,843
875,55	28,934
875,73	31,982
875,91	29,653
876,08	29,038
876,26	31,400
876,44	28,777
876,61	30,625
876,79	27,397
876,97	29,004
877,15	34,595
877,32	29,821
877,50	32,131
877,68	32,566
877,86	30,778
878,03	26,853
878,21	30,194
878,39	31,069
878,56	33,090
878,74	31,553
878,92	28,465
879,10	30,306
879,27	34,868
879,45	33,158
879,63	30,804
879,80	33,505
879,98	33,890
880,16	31,771
880,34	33,581
880,51	34,968
880,69	33,885
880,87	37,736
881,04	36,422
881,22	35,487
881,40	35,992
881,57	34,236
881,75	38,341
881,93	35,711
882,10	38,610
882,28	36,576
882,46	37,000
882,63	38,064
882,81	39,727
882,99	37,225
883,16	39,346
883,34	37,574
883,52	37,960
883,69	38,263
883,87	37,839
884,05	37,995
884,22	36,919
884,40	40,510
884,58	35,921
884,75	35,896
884,93	38,798
885,11	41,113
885,28	38,701
885,46	36,804
885,64	37,096
885,81	35,761
885,99	37,300
886,17	36,776
886,34	36,519
886,52	36,041
886,70	36,621
886,87	35,390
887,05	34,977
887,22	34,536
887,40	37,967
887,58	37,524
887,75	35,245
887,93	36,346
888,11	35,229
888,28	37,500
888,46	32,978
888,63	35,507
888,81	34,953
888,99	35,916
889,16	34,868
889,34	35,727
889,51	36,499
889,69	37,822
889,87	38,602
890,04	38,210
890,22	37,390
890,39	36,770
890,57	38,151
890,75	40,027
890,92	39,987
891,10	39,360
891,27	41,778
891,45	39,596
891,63	40,808
891,80	41,153
891,98	40,414
892,15	43,545
892,33	40,742
892,51	41,846
892,68	42,505
892,86	42,884
893,03	43,101
893,21	44,466
893,38	44,600
893,56	44,772
893,74	46,056
893,91	44,584
894,09	44,738
894,26	45,890
894,44	45,313
894,61	43,873
894,79	45,357
894,96	46,529
895,14	47,218
895,32	47,967
895,49	47,717
895,67	45,689
895,84	46,563
896,02	46,730
896,19	45,164
896,37	45,156
896,54	46,903
896,72	47,258
896,89	45,199
897,07	44,111
897,25	43,417
897,42	43,376
897,60	43,067
897,77	45,015
897,95	43,369
898,12	45,557
898,30	42,748
898,47	41,871
898,65	45,880
898,82	43,762
899,00	44,544
899,17	44,508
899,35	41,245
899,52	43,403
899,70	43,642
899,87	42,408
900,05	43,399
900,22	43,517
900,40	41,950
900,57	42,406
900,75	42,554
900,92	42,443
901,10	41,500
901,27	41,521
901,45	45,149
901,62	41,996
901,80	45,096
901,97	44,042
902,15	46,138
902,32	43,813
902,50	44,582
902,67	43,647
902,85	45,299
903,02	42,188
903,20	45,455
903,37	45,201
903,54	43,798
903,72	43,573
903,89	47,248
904,07	45,647
904,24	46,822
904,42	45,015
904,59	45,909
904,77	47,264
904,94	46,946
905,12	48,193
905,29	43,876
905,47	46,876
905,64	46,521
905,81	45,047
905,99	44,361
906,16	44,407
906,34	44,199
906,51	43,397
906,69	43,510
906,86	45,199
907,03	42,800
907,21	43,689
907,38	41,677
907,56	40,520
907,73	41,468
907,91	43,341
908,08	41,166
908,25	39,851
908,43	41,676
908,60	39,668
908,78	40,457
908,95	37,915
909,13	39,014
909,30	37,085
909,47	37,874
909,65	37,909
909,82	37,647
910,00	36,319
910,17	36,267
910,34	34,500
910,52	34,647
910,69	32,536
910,87	34,817
911,04	33,377
911,21	33,846
911,39	33,026
911,56	31,716
911,73	33,558
911,91	33,181
912,08	33,069
912,26	33,660
912,43	32,274
912,60	31,641
912,78	32,397
912,95	32,719
913,13	32,128
913,30	32,374
913,47	31,581
913,65	31,719
913,82	30,554
913,99	32,031
914,17	32,654
914,34	30,477
914,51	32,443
914,69	30,473
914,86	31,138
915,03	33,280
915,21	34,779
915,38	31,807
915,56	31,608
915,73	32,602
915,90	32,172
916,08	32,259
916,25	32,882
916,42	35,095
916,60	33,647
916,77	33,497
916,94	34,186
917,12	33,366
917,29	33,171
917,46	33,487
917,64	33,541
917,81	32,988
917,98	33,308
918,16	33,636
918,33	33,188
918,50	33,513
918,67	33,509
918,85	33,103
919,02	32,872
919,19	32,262
919,37	33,837
919,54	34,120
919,71	32,535
919,89	33,437
920,06	32,936
920,23	34,025
920,41	32,167
920,58	32,604
920,75	33,186
920,92	32,504
921,10	31,404
921,27	32,030
921,44	30,433
921,62	29,965
921,79	31,261
921,96	32,260
922,13	30,237
922,31	31,575
922,48	29,479
922,65	30,905
922,82	30,181
923,00	29,949
923,17	30,016
923,34	29,490
923,52	29,451
923,69	29,123
923,86	29,633
924,03	28,366
924,21	28,148
924,38	29,350
924,55	29,449
924,72	29,068
924,90	28,013
925,07	29,966
925,24	28,721
925,41	28,526
925,59	28,519
925,76	28,118
925,93	29,339
926,10	29,081
926,28	29,646
926,45	30,582
926,62	29,757
926,79	29,750
926,96	30,174
927,14	29,669
927,31	28,868
927,48	30,096
927,65	30,973
927,83	30,066
928,00	30,572
928,17	30,877
928,34	31,905
928,51	30,946
928,69	31,290
928,86	31,980
929,03	32,558
929,20	33,620
929,37	33,474
929,55	33,665
929,72	34,303
929,89	34,405
930,06	34,267
930,23	35,616
930,41	36,893
930,58	36,895
930,75	35,396
930,92	38,159
931,09	38,002
931,27	38,790
931,44	39,743
931,61	39,885
931,78	41,911
931,95	41,920
932,12	40,686
932,30	42,386
932,47	44,131
932,64	44,109
932,81	44,145
932,98	45,393
933,16	45,186
933,33	46,167
933,50	45,799
933,67	46,785
933,84	47,027
934,01	47,312
934,18	48,000
934,36	47,471
934,53	48,403
934,70	49,042
934,87	49,754
935,04	49,236
935,21	49,769
935,38	49,464
935,56	48,691
935,73	47,735
935,90	49,136
936,07	49,776
936,24	49,648
936,41	49,580
936,58	48,497
936,76	49,606
936,93	49,211
937,10	49,106
937,27	50,178
937,44	49,629
937,61	49,992
937,78	48,506
937,95	49,157
938,13	50,166
938,30	50,175
938,47	48,324
938,64	48,849
938,81	49,192
938,98	48,905
939,15	48,207
939,32	49,750
939,49	49,065
939,66	46,547
939,84	47,632
940,01	47,771
940,18	48,454
940,35	47,869
940,52	48,392
940,69	47,987
940,86	48,706
941,03	47,600
941,20	46,846
941,37	47,077
941,54	47,812
941,71	46,221
941,89	47,407
942,06	48,337
942,23	47,447
942,40	47,109
942,57	48,334
942,74	47,645
942,91	45,993
943,08	48,422
943,25	48,819
943,42	47,301
943,59	47,746
943,76	48,407
943,93	49,003
944,10	49,571
944,27	49,690
944,44	49,755
944,61	49,562
944,79	49,564
944,96	49,965
945,13	50,826
945,30	49,740
945,47	50,248
945,64	50,639
945,81	51,192
945,98	50,653
946,15	50,426
946,32	50,438
946,49	49,410
946,66	50,946
946,83	51,304
947,00	49,537
947,17	51,254
947,34	52,536
947,51	50,521
947,68	52,598
947,85	51,352
948,02	50,790
948,19	52,463
948,36	52,156
948,53	49,812
948,70	49,253
948,87	48,624
949,04	51,114
949,21	50,944
949,38	49,273
949,55	49,354
949,72	49,398
949,89	49,564
950,06	48,373
950,23	48,131
950,40	44,644
950,57	46,790
950,74	48,191
950,91	47,104
951,08	46,304
951,25	46,203
951,42	45,477
951,59	43,633
951,76	44,720
951,93	44,516
952,10	43,000
952,27	43,279
952,44	44,308
952,61	43,056
952,77	40,711
952,94	41,690
953,11	39,942
953,28	43,030
953,45	41,904
953,62	41,188
953,79	40,894
953,96	40,610
954,13	41,940
954,30	39,584
954,47	37,812
954,64	38,726
954,81	37,415
954,98	38,005
955,15	35,225
955,32	36,287
955,49	37,039
955,65	39,296
955,82	35,155
955,99	38,276
956,16	35,504
956,33	35,147
956,50	36,019
956,67	36,246
956,84	34,558
957,01	35,487
957,18	35,402
957,35	35,489
957,52	33,739
957,68	33,315
957,85	33,553
958,02	35,029
958,19	33,932
958,36	31,407
958,53	33,313
958,70	36,696
958,87	34,478
959,04	36,071
959,21	33,207
959,37	34,095
959,54	35,488
959,71	35,734
959,88	32,613
960,05	33,234
960,22	31,226
960,39	33,697
960,56	32,663
960,72	34,764
960,89	35,708
961,06	37,181
961,23	33,013
961,40	35,401
961,57	28,609
961,74	35,828
961,90	34,750
962,07	32,803
962,24	36,688
962,41	32,063
962,58	31,996
962,75	32,544
962,92	33,636
963,08	34,655
963,25	30,095
963,42	26,348
963,59	27,503
963,76	28,278
963,93	29,449
964,10	29,124
964,26	29,640
964,43	34,290
964,60	28,254
964,77	31,394
964,94	41,846
965,10	34,477
965,27	27,872
965,44	33,833
965,61	31,660
965,78	35,677
965,95	33,962
966,11	27,975
966,28	32,088
966,45	27,810
966,62	16,667
966,79	36,585
966,95	27,586
967,12	24,880
967,29	32,009
967,46	23,913
967,63	22,469
967,79	33,424
967,96	25,984
968,13	29,467
968,30	35,792
968,47	29,288
968,63	25,148
968,80	34,138
968,97	42,857
969,14	15,044
969,31	33,654
969,47	26,183
969,64	42,574
969,81	31,930
969,98	31,287
970,14	33,704
970,31	32,258
970,48	41,281
970,65	39,085
970,81	35,374
970,98	46,442
971,15	26,267
971,32	25,000
971,48	34,559
971,65	44,958
971,82	46,429
971,99	45,274
972,15	33,684
972,32	34,979
972,49	30,901
972,66	28,319
972,82	30,693
972,99	44,681
973,16	57,216
973,33	48,571
973,49	55,556
973,66	31,092
973,83	43,537
974,00	32,787
974,16	40,881
974,33	68,902
974,50	29,861
974,67	56,316
974,83	36,158
975,00	63,043
975,17	38,776
975,33	35,507
975,50	44,242
975,67	58,929
975,84	70,213
976,00	47,692
976,17	104,412
976,34	43,262
976,50	50,435
976,67	43,966
976,84	88,462
977,00	31,579
977,17	50,394
977,34	84,946
977,50	57,447
977,67	54,386
977,84	54,545
978,01	64,368
978,17	89,744
978,34	16,667
978,51	3,030
978,67	48,352
978,84	70,833
979,01	81,538
979,17	100,000
979,34	93,750
979,51	46,154
979,67	111,250
979,84	71,429
980,01	116,393
980,17	41,176
980,34	120,290
980,51	134,091
980,67	18,667
980,84	79,310
981,01	-94,872
981,17	84,000
981,34	425,000
981,50	42,647
981,67	136,207
981,84	8,621
982,00	136,957
982,17	286,364
982,34	117,949
982,50	189,474
982,67	100,000
982,84	80,952
983,00	142,000
983,17	-45,833
983,33	104,839
983,50	43,478
983,67	82,609
983,83	433,333
984,00	215,625
984,17	80,000
984,33	117,568
984,50	58,333
984,66	242,857
984,83	40,698
985,00	145,902
985,16	82,051
985,33	200,000
985,49	165,517
985,66	221,212
985,83	136,842
985,99	39,640
986,16	196,000
986,32	134,783
986,49	433,333
986,66	37,209
986,82	28,070
986,99	226,190
987,15	37,931
987,32	79,630
987,49	91,667
987,65	440,000
987,82	-47,059
987,98	147,059
988,15	217,857
988,31	48,000
988,48	-104,167
988,65	100,000
988,81	163,043
988,98	391,667
989,14	132,653
989,31	223,333
989,47	43,902
989,64	48,571
989,80	300,000
989,97	135,294
990,14	-95,652
990,30	152,500
990,47	129,268
990,63	291,304
990,80	187,879
990,96	254,167
991,13	100,000
991,29	145,098
991,46	184,314
991,62	129,412
991,79	56,140
991,95	350,000
992,12	102,326
992,29	44,000
992,45	-284,615
992,62	-360,000
992,78	-177,778
992,95	138,889
993,11	293,333
993,28	62,963
993,44	360,870
993,61	1533,333
993,77	1020,000
993,94	244,186
994,10	157,143
994,27	184,000
994,43	208,824
994,60	-69,697
994,76	389,474
994,93	372,727
995,09	-64,865
995,26	75,309
995,42	150,847
995,59	235,714
995,75	281,250
995,92	350,000
996,08	258,333
996,25	66,667
996,41	195,833
996,58	240,541
996,74	-10,000
996,91	283,333
997,07	257,692
997,23	236,170
997,40	1966,667
997,56	186,667
997,73	0,000
997,89	111,111
998,06	-43,137
998,22	3100,000
998,39	386,957
998,55	29,167
998,72	240,000
998,88	2066,667
999,05	-223,077
999,21	221,739
999,37	-4200,000
999,54	-1250,000
999,70	69,231
999,87	-243,750
1000,03	115,625
1000,20	100,000
1000,36	4600,000
1000,52	222,222
1000,69	127,273
1000,85	156,897
1001,02	161,538
1001,18	102,273
1001,35	-104,444
1001,51	-478,571
1001,67	-21,333
1001,84	750,000
1002,00	80,000
1002,17	268,182
1002,33	-147,059
1002,50	33,333
1002,66	6600,000
1002,82	254,286
1002,99	-280,769
1003,15	278,261
1003,32	180,645
1003,48	-660,000
1003,64	102,500
1003,81	-71,429
1003,97	259,091
1004,14	1366,667
1004,30	-914,286
1004,46	1000,000
1004,63	357,895
1004,79	46,667
1004,95	108,824
1005,12	-214,286
1005,28	258,621
1005,45	82,692
1005,61	-2233,333
1005,77	134,211
1005,94	232,258
1006,10	-2800,000
1006,26	155,357
1006,43	144,444
1006,59	-55,556
1006,76	-180,000
1006,92	1400,000
1007,08	260,000
1007,25	-30,556
1007,41	-333,333
1007,57	-256,250
1007,74	69,565
1007,90	-500,000
1008,06	254,286
1008,23	153,704
1008,39	2350,000
1008,55	-142,857
1008,72	243,750
1008,88	160,000
1009,04	240,000
1009,21	-70,588
1009,37	-312,500
1009,53	-242,105
1009,70	-453,846
1009,86	131,818
1010,02	423,077
1010,19	0,000
1010,35	318,750
1010,51	366,667
1010,68	650,000
1010,84	-966,667
1011,00	175,556
1011,17	-660,000
1011,33	205,882
1011,49	190,625
1011,66	195,652
1011,82	-7,547
1011,98	-20,455
1012,14	69,697
1012,31	-120,000
1012,47	1466,667
1012,63	733,333
1012,80	328,000
1012,96	-345,455
1013,12	160,465
1013,29	157,895
1013,45	57,778
1013,61	22,222
1013,77	205,556
1013,94	137,500
1014,10	-96,970
1014,26	3650,000
1014,43	-115,152
1014,59	-625,000
1014,75	1500,000
1014,91	1766,667
1015,08	333,333
1015,24	-1433,333
1015,40	-394,118
1015,56	422,222
1015,73	193,333
1015,89	9,524
1016,05	1340,000
1016,21	-411,111
1016,38	1060,000
1016,54	-384,615
1016,70	-37,037
1016,86	60,606
1017,03	215,385
1017,19	286,957
1017,35	7,692
1017,51	200,000
1017,68	281,818
1017,84	5500,000
1018,00	228,571
1018,16	68,750
1018,33	-642,857
1018,49	168,293
1018,65	-135,294
1018,81	35,000
1018,97	-725,000
1019,14	260,000
1019,30	121,875
1019,46	133,333
1019,62	380,000
1019,79	316,667
1019,95	147,917
1020,11	-828,571
1020,27	383,333
1020,43	-471,429
1020,60	-300,000
1020,76	-111,111
1020,92	450,000
1021,08	4100,000
1021,24	175,000
1021,41	-100,000
1021,57	245,455
1021,73	-750,000
1021,89	-464,286
1022,05	1225,000
1022,21	138,462
1022,38	200,000
1022,54	1600,000
1022,70	-159,091
1022,86	2300,000
1023,02	-176,471
1023,19	-155,556
1023,35	170,968
1023,51	-82,143
1023,67	175,000
1023,83	1700,000
1023,99	155,556
1024,16	121,429
1024,32	-4,000
1024,48	272,727
1024,64	800,000
1024,80	-133,333
1024,96	24,138
1025,12	-192,857
1025,29	17,857
1025,45	105,556
1025,61	-733,333
1025,77	-19,355
1025,93	190,000
1026,09	95,122
1026,26	289,474
1026,42	-62,500
1026,58	-182,609
1026,74	220,833
1026,90	205,556
1027,06	5,128
1027,22	-282,609
1027,38	173,913
1027,55	1233,333
1027,71	203,333
1027,87	-37,500
1028,03	-106,250
1028,19	-100,000
1028,35	-657,143
1028,51	212,000
1028,67	258,824
1028,83	93,333
1029,00	187,500
1029,16	129,730
1029,32	296,429
1029,48	-357,143
1029,64	-276,923
1029,80	163,636
1029,96	1333,333
1030,12	410,526
1030,28	-450,000
1030,44	1280,000
1030,61	231,818
1030,77	-433,333
1030,93	-181,250
1031,09	675,000
1031,25	0,000
1031,41	120,000
1031,57	-875,000
1031,73	-1875,000
1031,89	-54,545
1032,05	-97,674
1032,21	-145,455
1032,37	126,786
1032,53	-124,138
1032,69	188,462
1032,86	-300,000
1033,02	-22,222
1033,18	266,667
1033,34	-1700,000
1033,50	306,250
1033,66	-160,000
1033,82	122,222
1033,98	2850,000
1034,14	-235,714
1034,30	-340,000
1034,46	97,059
1034,62	179,487
1034,78	-191,304
1034,94	270,968
1035,10	-692,308
1035,26	666,667
1035,42	-23,333
1035,58	416,667
1035,74	143,243
1035,90	275,000
1036,06	43,137
1036,22	127,273
1036,38	-206,250
1036,54	-175,000
1036,70	112,903
1036,86	45,000
1037,02	-78,571
1037,18	-100,000
1037,34	488,889
1037,50	80,000
1037,66	-300,000
1037,82	180,952
1037,98	650,000
1038,14	-1050,000
1038,30	93,103
1038,46	-200,000
1038,62	244,444
1038,78	-542,857
1038,94	260,000
1039,10	288,000
1039,26	12,500
1039,42	200,000
1039,58	-600,000
1039,74	750,000
1039,90	-233,333
1040,06	-12,308
>>>>>End Processed Spectral Data<<<<<
