SpectraSuite Data File
++++++++++++++++++++++++++++++++++++
Date: Tue Jan 31 19:15:10 EET 2017
User: optolab
Dark Spectrum Present: Yes
Reference Spectrum Present: Yes
Number of Sampled Component Spectra: 1
Spectrometers: USB4C02475
Integration Time (usec): 100000 (USB4C02475)
Spectra Averaged: 1 (USB4C02475)
Boxcar Smoothing: 0 (USB4C02475)
Correct for Electrical Dark: No (USB4C02475)
Strobe/Lamp Enabled: No (USB4C02475)
Correct for Detector Non-linearity: No (USB4C02475)
Correct for Stray Light: No (USB4C02475)
Number of Pixels in Processed Spectrum: 3648
>>>>>Begin Processed Spectral Data<<<<<
344,91	161,538
345,13	161,538
345,35	161,538
345,57	0,000
345,79	500,000
346,00	460,000
346,22	-163,889
346,44	223,077
346,66	2000,000
346,87	266,667
347,09	-11,111
347,31	-2000,000
347,53	-183,333
347,74	-153,846
347,96	133,333
348,18	1466,667
348,40	-357,143
348,61	262,857
348,83	85,366
349,05	103,571
349,27	178,947
349,48	94,231
349,70	223,529
349,92	214,634
350,14	666,667
350,35	136,585
350,57	142,857
350,79	205,882
351,01	615,385
351,22	575,000
351,44	-550,000
351,66	300,000
351,87	102,564
352,09	215,152
352,31	400,000
352,53	200,000
352,74	180,952
352,96	137,209
353,18	164,815
353,40	117,391
353,61	138,333
353,83	700,000
354,05	248,485
354,26	325,000
354,48	-1000,000
354,70	92,683
354,92	109,091
355,13	185,294
355,35	0,000
355,57	113,889
355,78	152,941
356,00	114,706
356,22	322,222
356,44	-384,615
356,65	136,364
356,87	121,429
357,09	220,000
357,30	107,937
357,52	183,929
357,74	-3000,000
357,95	820,000
358,17	366,667
358,39	258,824
358,60	390,000
358,82	358,824
359,04	-125,000
359,26	184,375
359,47	152,174
359,69	-24,324
359,91	65,385
360,12	453,846
360,34	113,592
360,56	186,207
360,77	885,714
360,99	121,154
361,21	262,500
361,42	46,875
361,64	161,538
361,86	160,417
362,07	161,538
362,29	126,471
362,51	303,846
362,72	41,892
362,94	276,190
363,16	445,000
363,37	-22,581
363,59	327,586
363,81	-294,444
364,02	42,353
364,24	343,478
364,46	191,892
364,67	202,222
364,89	325,000
365,11	1250,000
365,32	97,590
365,54	507,143
365,76	98,276
365,97	278,571
366,19	600,000
366,41	242,308
366,62	165,789
366,84	234,211
367,05	121,538
367,27	44,444
367,49	212,195
367,70	950,000
367,92	143,548
368,14	1400,000
368,35	140,845
368,57	161,538
368,79	111,765
369,00	0,000
369,22	333,333
369,43	281,818
369,65	76,119
369,87	67,606
370,08	857,143
370,30	329,412
370,51	-22,222
370,73	128,846
370,95	285,714
371,16	1016,667
371,38	265,909
371,60	115,385
371,81	256,757
372,03	305,263
372,24	536,364
372,46	45,122
372,68	132,813
372,89	111,429
373,11	276,190
373,32	360,000
373,54	178,000
373,76	65,957
373,97	60,215
374,19	143,243
374,40	350,000
374,62	-500,000
374,84	368,000
375,05	108,108
375,27	94,340
375,48	132,558
375,70	81,818
375,92	191,667
376,13	104,444
376,35	3366,667
376,56	77,333
376,78	64,583
376,99	53,247
377,21	-4800,000
377,43	43,750
377,64	194,737
377,86	145,652
378,07	223,333
378,29	-96,774
378,51	166,667
378,72	111,111
378,94	63,235
379,15	257,143
379,37	108,929
379,58	116,071
379,80	346,154
380,01	862,500
380,23	168,421
380,45	165,385
380,66	422,222
380,88	-950,000
381,09	81,429
381,31	102,899
381,52	138,889
381,74	140,299
381,95	182,927
382,17	143,333
382,39	254,545
382,60	492,308
382,82	165,714
383,03	136,538
383,25	76,923
383,46	117,073
383,68	130,357
383,89	380,000
384,11	147,727
384,32	-500,000
384,54	153,333
384,76	5600,000
384,97	60,494
385,19	137,500
385,40	137,500
385,62	227,778
385,83	137,838
386,05	130,233
386,26	64,865
386,48	144,000
386,69	169,811
386,91	323,529
387,12	237,500
387,34	52,941
387,55	86,364
387,77	185,714
387,98	-414,286
388,20	122,581
388,41	112,821
388,63	132,558
388,84	146,154
389,06	89,744
389,27	103,571
389,49	190,625
389,70	70,238
389,92	54,687
390,13	-195,652
390,35	124,000
390,56	115,152
390,78	222,581
390,99	2166,667
391,21	205,357
391,42	114,754
391,64	48,148
391,85	86,667
392,07	82,000
392,28	50,000
392,50	70,175
392,71	62,963
392,93	224,324
393,14	-121,053
393,36	300,000
393,57	115,686
393,79	78,788
394,00	140,000
394,22	75,000
394,43	87,500
394,65	2150,000
394,86	133,333
395,08	87,671
395,29	209,302
395,50	337,500
395,72	172,222
395,93	200,000
396,15	84,507
396,36	167,925
396,58	233,333
396,79	61,818
397,01	100,000
397,22	344,444
397,44	-1320,000
397,65	107,895
397,87	64,103
398,08	132,000
398,29	118,750
398,51	45,833
398,72	88,000
398,94	71,622
399,15	146,939
399,37	61,538
399,58	238,710
399,80	-6,250
400,01	65,217
400,22	108,163
400,44	286,667
400,65	373,333
400,87	70,492
401,08	35,526
401,30	85,000
401,51	75,758
401,72	88,372
401,94	62,903
402,15	96,610
402,37	184,848
402,58	175,556
402,80	117,857
403,01	94,681
403,22	111,667
403,44	56,250
403,65	63,636
403,87	197,436
404,08	30,769
404,30	-34,483
404,51	130,357
404,72	118,293
404,94	125,714
405,15	-5,797
405,37	120,833
405,58	90,909
405,79	17,722
406,01	87,850
406,22	4,878
406,44	77,551
406,65	75,342
406,86	17,172
407,08	211,111
407,29	59,551
407,51	65,306
407,72	98,148
407,93	75,168
408,15	70,270
408,36	87,037
408,58	100,813
408,79	70,968
409,00	52,273
409,22	95,604
409,43	102,247
409,64	33,333
409,86	45,390
410,07	61,111
410,29	44,944
410,50	47,945
410,71	61,628
410,93	42,353
411,14	36,719
411,35	7,759
411,57	35,437
411,78	32,701
412,00	50,847
412,21	39,884
412,42	36,275
412,64	30,556
412,85	34,197
413,06	28,780
413,28	32,571
413,49	12,500
413,70	48,014
413,92	12,734
414,13	37,066
414,34	18,265
414,56	22,258
414,77	19,318
414,98	15,821
415,20	22,879
415,41	16,301
415,63	3,659
415,84	16,564
416,05	20,874
416,27	15,217
416,48	17,750
416,69	18,841
416,91	30,285
417,12	10,297
417,33	18,052
417,55	5,286
417,76	17,814
417,97	20,080
418,19	9,408
418,40	7,985
418,61	11,492
418,83	12,366
419,04	2,764
419,25	7,843
419,46	8,805
419,68	12,126
419,89	8,457
420,10	6,030
420,32	9,379
420,53	8,030
420,74	11,321
420,96	11,226
421,17	8,111
421,38	7,355
421,60	5,650
421,81	7,204
422,02	6,263
422,23	12,680
422,45	9,413
422,66	7,627
422,87	9,847
423,09	13,240
423,30	8,862
423,51	12,400
423,73	11,483
423,94	13,945
424,15	13,675
424,36	17,715
424,58	18,252
424,79	18,016
425,00	22,462
425,22	25,650
425,43	24,375
425,64	30,000
425,85	33,699
426,07	30,415
426,28	33,268
426,49	34,957
426,71	33,775
426,92	40,662
427,13	38,020
427,34	38,303
427,56	41,191
427,77	39,222
427,98	41,918
428,19	39,737
428,41	42,338
428,62	42,608
428,83	44,181
429,04	44,481
429,26	44,075
429,47	44,973
429,68	44,559
429,89	45,244
430,11	46,518
430,32	43,689
430,53	46,947
430,74	46,327
430,96	45,819
431,17	48,240
431,38	46,105
431,59	45,803
431,81	46,314
432,02	46,964
432,23	47,083
432,44	49,091
432,66	47,164
432,87	47,830
433,08	48,047
433,29	48,363
433,51	48,857
433,72	46,651
433,93	48,749
434,14	48,601
434,35	48,044
434,57	48,314
434,78	48,491
434,99	49,429
435,20	49,057
435,42	50,331
435,63	50,547
435,84	51,165
436,05	52,537
436,26	53,959
436,48	56,239
436,69	57,866
436,90	59,590
437,11	63,644
437,32	66,001
437,54	66,600
437,75	71,762
437,96	74,712
438,17	78,425
438,38	80,306
438,60	81,938
438,81	82,978
439,02	85,395
439,23	86,485
439,44	87,849
439,66	86,634
439,87	88,484
440,08	87,594
440,29	87,581
440,50	86,940
440,72	87,352
440,93	89,268
441,14	89,871
441,35	90,906
441,56	89,498
441,77	89,964
441,99	90,915
442,20	91,544
442,41	90,901
442,62	89,318
442,83	89,342
443,04	89,964
443,26	89,704
443,47	87,533
443,68	86,899
443,89	85,404
444,10	83,941
444,31	82,717
444,53	81,473
444,74	82,227
444,95	80,456
445,16	80,651
445,37	80,492
445,58	79,883
445,80	80,137
446,01	80,791
446,22	82,636
446,43	82,786
446,64	82,691
446,85	84,520
447,06	85,431
447,28	86,677
447,49	86,181
447,70	87,554
447,91	87,604
448,12	86,960
448,33	88,090
448,54	88,460
448,76	90,080
448,97	92,218
449,18	92,301
449,39	93,082
449,60	94,768
449,81	95,030
450,02	95,496
450,23	96,088
450,45	97,616
450,66	98,700
450,87	96,768
451,08	98,223
451,29	98,960
451,50	100,216
451,71	99,802
451,92	99,723
452,13	98,702
452,35	97,462
452,56	98,546
452,77	96,891
452,98	98,429
453,19	97,785
453,40	97,587
453,61	96,821
453,82	95,472
454,03	95,647
454,25	94,068
454,46	93,375
454,67	94,088
454,88	94,195
455,09	92,671
455,30	91,772
455,51	92,746
455,72	93,236
455,93	92,967
456,14	92,813
456,35	92,700
456,56	94,177
456,78	94,292
456,99	94,063
457,20	93,189
457,41	93,688
457,62	92,213
457,83	91,700
458,04	92,902
458,25	90,127
458,46	91,472
458,67	89,156
458,88	89,669
459,09	87,721
459,30	87,137
459,51	87,359
459,73	85,708
459,94	85,984
460,15	85,593
460,36	86,487
460,57	86,548
460,78	87,375
460,99	88,478
461,20	88,118
461,41	88,113
461,62	90,256
461,83	90,548
462,04	91,667
462,25	90,894
462,46	92,262
462,67	92,345
462,88	93,143
463,09	92,933
463,30	91,792
463,51	92,038
463,72	92,344
463,93	92,425
464,15	91,363
464,36	91,473
464,57	90,351
464,78	90,670
464,99	91,449
465,20	89,669
465,41	89,816
465,62	89,979
465,83	89,931
466,04	88,910
466,25	88,857
466,46	87,654
466,67	86,999
466,88	86,250
467,09	85,126
467,30	84,827
467,51	83,689
467,72	83,719
467,93	82,568
468,14	82,834
468,35	81,391
468,56	82,336
468,77	80,369
468,98	79,653
469,19	80,241
469,40	78,816
469,61	79,367
469,82	78,155
470,03	77,166
470,24	76,507
470,45	74,237
470,66	71,685
470,87	70,015
471,08	67,342
471,29	64,291
471,50	61,507
471,71	58,001
471,92	54,725
472,13	51,106
472,34	47,845
472,55	43,712
472,76	40,246
472,97	36,412
473,18	33,502
473,39	29,363
473,60	26,089
473,81	22,851
474,01	19,462
474,22	16,270
474,43	13,949
474,64	11,597
474,85	9,658
475,06	7,844
475,27	6,184
475,48	5,442
475,69	4,112
475,90	3,533
476,11	2,854
476,32	2,516
476,53	2,099
476,74	1,739
476,95	1,316
477,16	1,152
477,37	1,067
477,58	0,807
477,79	0,496
478,00	0,744
478,21	0,663
478,41	0,796
478,62	0,540
478,83	0,534
479,04	0,455
479,25	0,480
479,46	0,527
479,67	0,573
479,88	0,554
480,09	0,565
480,30	0,475
480,51	0,374
480,72	0,506
480,93	0,285
481,14	0,732
481,34	0,457
481,55	0,427
481,76	0,560
481,97	0,725
482,18	0,389
482,39	0,246
482,60	0,477
482,81	0,515
483,02	0,701
483,23	0,358
483,44	0,179
483,65	0,428
483,85	0,520
484,06	0,339
484,27	0,375
484,48	0,379
484,69	0,563
484,90	0,159
485,11	0,298
485,32	0,138
485,53	0,523
485,73	0,310
485,94	0,136
486,15	0,312
486,36	0,371
486,57	0,365
486,78	0,452
486,99	0,303
487,20	0,392
487,41	0,385
487,61	0,422
487,82	0,319
488,03	0,178
488,24	0,337
488,45	0,201
488,66	0,552
488,87	0,300
489,08	0,280
489,28	0,568
489,49	0,383
489,70	0,371
489,91	0,194
490,12	0,279
490,33	0,380
490,54	0,535
490,74	0,299
490,95	0,171
491,16	0,328
491,37	0,223
491,58	0,177
491,79	0,347
492,00	0,097
492,20	0,385
492,41	0,305
492,62	0,321
492,83	0,276
493,04	0,243
493,25	0,160
493,45	0,317
493,66	0,394
493,87	0,377
494,08	0,281
494,29	0,145
494,50	0,304
494,70	0,190
494,91	0,375
495,12	0,339
495,33	0,341
495,54	0,267
495,75	0,387
495,95	0,233
496,16	0,357
496,37	0,432
496,58	0,353
496,79	0,140
496,99	0,331
497,20	0,350
497,41	0,496
497,62	0,243
497,83	0,168
498,04	0,241
498,24	0,232
498,45	0,277
498,66	0,333
498,87	0,443
499,08	0,295
499,28	0,237
499,49	0,348
499,70	0,450
499,91	0,327
500,12	0,389
500,32	0,240
500,53	0,261
500,74	0,088
500,95	0,271
501,15	0,343
501,36	0,519
501,57	0,206
501,78	0,421
501,99	0,129
502,19	0,316
502,40	0,266
502,61	0,222
502,82	0,270
503,02	0,350
503,23	0,468
503,44	0,329
503,65	0,332
503,86	0,243
504,06	0,403
504,27	0,390
504,48	0,231
504,69	0,380
504,89	0,307
505,10	0,334
505,31	0,409
505,52	0,399
505,72	0,345
505,93	0,372
506,14	0,283
506,35	0,399
506,55	0,412
506,76	0,293
506,97	0,531
507,18	0,273
507,38	0,304
507,59	0,357
507,80	0,479
508,01	0,337
508,21	0,435
508,42	0,344
508,63	0,521
508,84	0,513
509,04	0,345
509,25	0,403
509,46	0,321
509,67	0,270
509,87	0,237
510,08	0,489
510,29	0,266
510,49	0,385
510,70	0,466
510,91	0,504
511,12	0,532
511,32	0,441
511,53	0,441
511,74	0,505
511,94	0,408
512,15	0,601
512,36	0,387
512,57	0,666
512,77	0,679
512,98	0,730
513,19	0,610
513,39	0,790
513,60	0,918
513,81	1,203
514,01	1,144
514,22	1,328
514,43	1,624
514,64	1,661
514,84	2,318
515,05	2,586
515,26	3,246
515,46	3,905
515,67	4,249
515,88	4,801
516,08	5,545
516,29	5,929
516,50	7,095
516,70	8,223
516,91	9,345
517,12	10,287
517,32	11,697
517,53	12,592
517,74	13,962
517,95	15,810
518,15	16,771
518,36	18,216
518,57	19,729
518,77	21,368
518,98	22,375
519,19	24,440
519,39	26,076
519,60	26,545
519,80	28,654
520,01	29,727
520,22	31,110
520,42	32,884
520,63	34,041
520,84	35,457
521,04	36,579
521,25	37,539
521,46	38,632
521,66	39,535
521,87	40,561
522,08	41,883
522,28	42,847
522,49	42,688
522,70	44,080
522,90	44,290
523,11	45,180
523,31	44,643
523,52	46,121
523,73	45,997
523,93	46,645
524,14	47,064
524,35	47,334
524,55	47,694
524,76	47,726
524,97	48,069
525,17	48,411
525,38	47,910
525,58	48,503
525,79	49,822
526,00	49,877
526,20	50,042
526,41	50,101
526,61	50,368
526,82	50,233
527,03	50,342
527,23	51,416
527,44	52,010
527,64	51,680
527,85	52,896
528,06	53,712
528,26	55,047
528,47	55,448
528,68	57,037
528,88	59,123
529,09	60,700
529,29	62,610
529,50	64,804
529,70	66,685
529,91	69,129
530,12	72,582
530,32	74,892
530,53	75,834
530,73	78,507
530,94	81,347
531,15	82,835
531,35	85,017
531,56	86,793
531,76	87,739
531,97	91,496
532,17	91,383
532,38	92,912
532,59	92,952
532,79	93,370
533,00	95,772
533,20	95,522
533,41	96,839
533,61	95,762
533,82	96,436
534,03	95,707
534,23	96,054
534,44	95,698
534,64	96,133
534,85	95,580
535,05	95,572
535,26	95,428
535,46	95,135
535,67	94,436
535,88	95,028
536,08	96,229
536,29	95,060
536,49	95,673
536,70	95,394
536,90	95,710
537,11	95,806
537,31	96,428
537,52	97,366
537,72	96,580
537,93	96,623
538,13	96,477
538,34	96,106
538,55	95,658
538,75	96,282
538,96	96,246
539,16	94,890
539,37	94,633
539,57	94,082
539,78	94,331
539,98	94,124
540,19	94,459
540,39	94,385
540,60	94,354
540,80	93,393
541,01	92,694
541,21	92,896
541,42	92,007
541,62	93,084
541,83	92,896
542,03	93,310
542,24	93,380
542,44	92,088
542,65	92,276
542,85	93,368
543,06	93,855
543,26	94,708
543,47	94,920
543,67	94,793
543,88	94,790
544,08	96,631
544,29	96,307
544,49	96,759
544,70	96,561
544,90	96,361
545,11	95,590
545,31	97,176
545,52	97,022
545,72	95,876
545,93	98,093
546,13	97,963
546,34	97,864
546,54	97,903
546,75	97,494
546,95	98,535
547,15	98,911
547,36	98,499
547,56	99,796
547,77	99,049
547,97	99,232
548,18	99,676
548,38	99,088
548,59	100,144
548,79	98,774
549,00	99,150
549,20	99,824
549,41	99,563
549,61	99,540
549,81	100,172
550,02	99,705
550,22	100,346
550,43	99,569
550,63	99,361
550,84	99,816
551,04	98,535
551,25	99,779
551,45	98,136
551,65	99,324
551,86	98,680
552,06	99,385
552,27	98,960
552,47	98,545
552,68	99,157
552,88	99,099
553,08	99,684
553,29	99,177
553,49	98,608
553,70	99,493
553,90	98,903
554,11	99,662
554,31	98,450
554,51	100,636
554,72	99,946
554,92	99,827
555,13	100,655
555,33	100,143
555,53	99,777
555,74	100,346
555,94	100,320
556,15	100,595
556,35	99,635
556,56	101,440
556,76	100,073
556,96	101,112
557,17	100,379
557,37	99,600
557,58	99,894
557,78	99,795
557,98	99,650
558,19	99,358
558,39	98,680
558,59	99,246
558,80	98,862
559,00	98,801
559,21	98,824
559,41	98,662
559,61	98,879
559,82	98,789
560,02	98,475
560,23	98,771
560,43	97,237
560,63	98,236
560,84	97,763
561,04	98,525
561,24	97,841
561,45	98,538
561,65	98,201
561,85	98,371
562,06	97,564
562,26	98,311
562,47	98,182
562,67	97,143
562,87	99,049
563,08	97,295
563,28	97,861
563,48	97,470
563,69	97,477
563,89	97,014
564,09	97,961
564,30	98,055
564,50	97,827
564,70	96,865
564,91	96,569
565,11	95,737
565,31	97,403
565,52	95,770
565,72	96,851
565,92	96,321
566,13	96,344
566,33	95,151
566,53	95,888
566,74	96,421
566,94	96,460
567,14	96,279
567,35	94,929
567,55	95,192
567,75	94,786
567,96	95,434
568,16	94,738
568,36	94,917
568,57	95,191
568,77	94,471
568,97	93,318
569,18	92,858
569,38	93,228
569,58	92,697
569,79	90,861
569,99	91,345
570,19	90,116
570,39	88,723
570,60	87,787
570,80	87,083
571,00	85,410
571,21	84,939
571,41	82,966
571,61	82,546
571,82	79,924
572,02	76,973
572,22	75,969
572,42	73,629
572,63	69,554
572,83	67,626
573,03	63,245
573,24	60,000
573,44	55,595
573,64	52,985
573,84	48,378
574,05	45,075
574,25	41,741
574,45	37,789
574,66	34,112
574,86	31,705
575,06	28,051
575,26	25,127
575,47	22,741
575,67	20,239
575,87	18,345
576,07	16,240
576,28	14,834
576,48	13,157
576,68	11,760
576,88	10,247
577,09	9,032
577,29	7,955
577,49	7,263
577,69	6,297
577,90	5,455
578,10	4,582
578,30	3,815
578,50	3,315
578,71	2,800
578,91	2,619
579,11	2,275
579,31	1,599
579,52	1,358
579,72	1,331
579,92	1,024
580,12	0,946
580,33	0,900
580,53	0,493
580,73	0,547
580,93	0,357
581,13	0,509
581,34	0,431
581,54	0,406
581,74	0,478
581,94	0,563
582,15	0,347
582,35	0,361
582,55	0,145
582,75	0,414
582,95	0,596
583,16	0,196
583,36	0,332
583,56	0,419
583,76	0,191
583,96	0,182
584,17	0,321
584,37	0,384
584,57	0,352
584,77	0,246
584,97	0,286
585,18	0,408
585,38	0,297
585,58	0,402
585,78	0,256
585,98	0,287
586,19	0,450
586,39	0,293
586,59	0,432
586,79	0,291
586,99	0,160
587,20	0,318
587,40	0,377
587,60	0,199
587,80	0,334
588,00	0,294
588,20	0,483
588,41	0,272
588,61	0,143
588,81	0,247
589,01	0,171
589,21	0,255
589,41	0,196
589,62	0,278
589,82	0,325
590,02	0,183
590,22	0,252
590,42	0,378
590,62	0,262
590,83	0,285
591,03	0,192
591,23	0,291
591,43	0,375
591,63	0,159
591,83	0,272
592,03	0,325
592,24	0,150
592,44	0,379
592,64	0,238
592,84	0,300
593,04	0,430
593,24	0,572
593,44	0,096
593,65	0,297
593,85	0,272
594,05	0,214
594,25	0,101
594,45	0,400
594,65	0,284
594,85	0,200
595,06	0,259
595,26	0,282
595,46	0,286
595,66	0,046
595,86	0,453
596,06	0,267
596,26	0,228
596,46	0,111
596,66	0,210
596,87	0,256
597,07	0,175
597,27	0,320
597,47	0,337
597,67	0,207
597,87	0,311
598,07	0,305
598,27	0,328
598,47	0,352
598,67	0,286
598,88	0,381
599,08	0,295
599,28	0,405
599,48	0,413
599,68	0,493
599,88	0,160
600,08	0,348
600,28	0,284
600,48	0,328
600,68	0,244
600,88	0,315
601,09	0,204
601,29	0,377
601,49	0,243
601,69	0,277
601,89	0,417
602,09	0,470
602,29	0,359
602,49	0,334
602,69	0,242
602,89	0,316
603,09	0,318
603,29	0,347
603,49	0,245
603,69	0,165
603,90	0,255
604,10	0,330
604,30	0,268
604,50	0,354
604,70	0,371
604,90	0,585
605,10	0,498
605,30	0,610
605,50	0,595
605,70	0,795
605,90	0,845
606,10	1,009
606,30	1,167
606,50	1,240
606,70	1,373
606,90	1,770
607,10	2,083
607,30	2,175
607,50	2,697
607,70	3,132
607,90	3,348
608,10	3,793
608,30	4,576
608,50	5,343
608,70	6,256
608,90	6,623
609,11	7,686
609,31	8,751
609,51	9,614
609,71	11,104
609,91	11,846
610,11	12,851
610,31	14,383
610,51	15,169
610,71	16,693
610,91	17,792
611,11	19,042
611,31	20,427
611,51	21,355
611,71	22,714
611,91	23,743
612,11	25,103
612,31	26,237
612,51	27,043
612,71	28,270
612,91	29,031
613,11	30,212
613,31	31,186
613,51	32,068
613,71	31,585
613,91	32,637
614,11	34,511
614,31	34,144
614,50	35,219
614,70	35,808
614,90	36,384
615,10	36,933
615,30	37,278
615,50	37,823
615,70	38,551
615,90	39,238
616,10	39,404
616,30	40,727
616,50	40,616
616,70	41,565
616,90	42,204
617,10	42,650
617,30	43,279
617,50	43,349
617,70	43,799
617,90	44,128
618,10	44,232
618,30	44,433
618,50	44,619
618,70	45,367
618,90	45,078
619,10	45,538
619,30	45,576
619,49	46,574
619,69	46,263
619,89	46,615
620,09	46,610
620,29	46,794
620,49	47,492
620,69	47,725
620,89	48,860
621,09	49,709
621,29	50,239
621,49	50,765
621,69	52,218
621,89	53,032
622,09	53,957
622,29	56,121
622,48	57,893
622,68	60,185
622,88	62,393
623,08	64,022
623,28	65,748
623,48	68,072
623,68	69,759
623,88	72,671
624,08	73,874
624,28	76,370
624,48	78,114
624,67	80,041
624,87	81,990
625,07	82,200
625,27	83,464
625,47	84,777
625,67	85,775
625,87	85,865
626,07	86,944
626,27	86,912
626,47	87,286
626,66	88,066
626,86	88,973
627,06	87,652
627,26	88,603
627,46	89,478
627,66	88,804
627,86	90,005
628,06	89,190
628,25	90,553
628,45	89,794
628,65	91,064
628,85	90,438
629,05	90,928
629,25	90,751
629,45	89,831
629,65	91,105
629,84	89,964
630,04	90,585
630,24	89,605
630,44	90,183
630,64	89,688
630,84	90,072
631,04	90,887
631,23	91,363
631,43	90,772
631,63	91,834
631,83	91,603
632,03	90,835
632,23	92,209
632,42	92,167
632,62	91,720
632,82	91,843
633,02	92,026
633,22	92,498
633,42	92,441
633,62	93,027
633,81	93,628
634,01	92,817
634,21	93,334
634,41	92,552
634,61	93,561
634,80	93,144
635,00	93,172
635,20	93,652
635,40	95,032
635,60	93,824
635,80	94,586
635,99	93,666
636,19	93,327
636,39	94,150
636,59	94,394
636,79	93,094
636,98	93,300
637,18	94,023
637,38	94,212
637,58	93,750
637,78	92,048
637,97	92,474
638,17	92,481
638,37	92,650
638,57	93,880
638,77	92,975
638,96	90,755
639,16	91,373
639,36	91,330
639,56	91,787
639,76	92,458
639,95	91,236
640,15	94,057
640,35	92,553
640,55	93,080
640,75	92,063
640,94	91,867
641,14	92,865
641,34	92,708
641,54	92,395
641,73	91,559
641,93	92,653
642,13	93,226
642,33	92,127
642,53	93,579
642,72	92,144
642,92	92,614
643,12	92,610
643,32	91,945
643,51	91,848
643,71	91,491
643,91	93,151
644,11	92,667
644,30	93,744
644,50	93,868
644,70	92,790
644,90	94,757
645,09	92,991
645,29	92,752
645,49	94,164
645,69	94,448
645,88	95,045
646,08	93,961
646,28	95,316
646,48	95,313
646,67	94,902
646,87	95,678
647,07	95,073
647,26	96,329
647,46	95,105
647,66	95,188
647,86	95,265
648,05	93,762
648,25	93,617
648,45	94,117
648,65	94,075
648,84	93,574
649,04	92,375
649,24	92,943
649,43	92,511
649,63	94,026
649,83	94,033
650,03	96,155
650,22	93,813
650,42	93,901
650,62	93,139
650,81	93,289
651,01	92,998
651,21	93,779
651,40	92,862
651,60	94,401
651,80	94,783
652,00	94,074
652,19	93,300
652,39	94,424
652,59	93,042
652,78	94,285
652,98	92,741
653,18	94,845
653,37	94,576
653,57	92,588
653,77	93,685
653,96	92,307
654,16	92,997
654,36	94,776
654,55	93,943
654,75	94,037
654,95	94,411
655,14	94,494
655,34	93,979
655,54	93,481
655,73	92,753
655,93	95,473
656,13	94,316
656,32	94,355
656,52	94,808
656,72	95,556
656,91	94,462
657,11	93,024
657,31	94,043
657,50	94,302
657,70	93,626
657,90	92,715
658,09	93,263
658,29	92,635
658,49	91,390
658,68	90,632
658,88	92,086
659,07	89,282
659,27	89,907
659,47	88,300
659,66	87,812
659,86	86,787
660,06	85,245
660,25	82,791
660,45	82,169
660,64	82,275
660,84	80,936
661,04	78,058
661,23	76,460
661,43	74,673
661,63	73,992
661,82	71,103
662,02	69,408
662,21	67,549
662,41	65,460
662,61	63,735
662,80	61,916
663,00	60,320
663,19	58,613
663,39	56,728
663,59	54,174
663,78	50,969
663,98	48,609
664,17	46,625
664,37	45,529
664,57	42,718
664,76	40,979
664,96	37,815
665,15	36,458
665,35	33,244
665,55	32,008
665,74	29,268
665,94	27,072
666,13	25,209
666,33	23,370
666,53	21,528
666,72	19,467
666,92	18,127
667,11	16,333
667,31	14,727
667,50	12,834
667,70	11,624
667,90	10,475
668,09	9,206
668,29	8,481
668,48	7,298
668,68	6,181
668,87	5,849
669,07	5,268
669,26	4,047
669,46	3,994
669,66	3,490
669,85	2,833
670,05	2,234
670,24	2,262
670,44	2,392
670,63	2,076
670,83	1,651
671,02	1,217
671,22	1,872
671,42	1,370
671,61	0,893
671,81	0,995
672,00	0,727
672,20	0,708
672,39	0,863
672,59	0,442
672,78	0,680
672,98	0,359
673,17	0,373
673,37	0,894
673,56	0,761
673,76	0,863
673,95	0,577
674,15	0,399
674,34	0,676
674,54	0,478
674,73	0,389
674,93	0,103
675,13	0,371
675,32	0,232
675,52	0,477
675,71	0,221
675,91	0,332
676,10	0,379
676,30	0,137
676,49	0,530
676,69	0,209
676,88	0,250
677,08	0,288
677,27	0,180
677,47	0,438
677,66	0,235
677,86	0,287
678,05	0,221
678,24	-0,110
678,44	0,058
678,63	0,063
678,83	0,201
679,02	0,220
679,22	0,426
679,41	0,348
679,61	0,275
679,80	0,252
680,00	-0,005
680,19	0,054
680,39	0,164
680,58	-0,021
680,78	0,307
680,97	-0,058
681,17	0,103
681,36	0,192
681,56	0,061
681,75	0,201
681,94	0,166
682,14	0,100
682,33	0,386
682,53	0,263
682,72	0,340
682,92	-0,005
683,11	0,182
683,31	0,171
683,50	0,062
683,69	0,210
683,89	0,121
684,08	-0,158
684,28	0,159
684,47	-0,027
684,67	-0,117
684,86	0,062
685,06	0,159
685,25	-0,018
685,44	0,154
685,64	0,073
685,83	0,099
686,03	0,141
686,22	0,289
686,42	-0,194
686,61	0,155
686,80	0,304
687,00	0,045
687,19	0,204
687,39	0,061
687,58	-0,162
687,77	0,112
687,97	0,108
688,16	0,032
688,36	0,277
688,55	-0,020
688,74	0,066
688,94	0,187
689,13	0,027
689,33	0,000
689,52	-0,004
689,71	0,139
689,91	-0,045
690,10	0,171
690,30	0,081
690,49	0,029
690,68	0,058
690,88	0,113
691,07	-0,047
691,27	0,212
691,46	0,173
691,65	0,072
691,85	0,111
692,04	-0,119
692,23	-0,180
692,43	0,018
692,62	0,184
692,82	0,036
693,01	0,111
693,20	0,007
693,40	-0,033
693,59	0,070
693,78	-0,037
693,98	0,041
694,17	0,068
694,36	0,124
694,56	0,084
694,75	0,117
694,94	-0,055
695,14	0,136
695,33	0,182
695,53	-0,427
695,72	-0,063
695,91	0,139
696,11	-0,086
696,30	-0,044
696,49	-0,009
696,69	0,106
696,88	0,169
697,07	0,140
697,27	0,242
697,46	0,198
697,65	0,177
697,85	-0,075
698,04	0,125
698,23	-0,289
698,43	0,485
698,62	0,006
698,81	0,209
699,01	-0,166
699,20	0,356
699,39	0,453
699,58	0,186
699,78	0,349
699,97	0,015
700,16	-0,197
700,36	-0,064
700,55	0,570
700,74	-0,075
700,94	0,453
701,13	0,062
701,32	0,271
701,52	0,137
701,71	0,572
701,90	-0,197
702,09	0,031
702,29	0,794
702,48	0,011
702,67	0,782
702,87	0,209
703,06	-0,210
703,25	-0,024
703,44	0,444
703,64	0,659
703,83	0,819
704,02	-0,246
704,22	0,071
704,41	0,211
704,60	0,722
704,79	0,061
704,99	0,357
705,18	0,385
705,37	0,649
705,56	0,492
705,76	0,666
705,95	0,449
706,14	0,420
706,33	0,667
706,53	1,304
706,72	1,113
706,91	0,186
707,11	0,060
707,30	0,085
707,49	1,440
707,68	1,118
707,88	-0,524
708,07	-0,255
708,26	0,235
708,45	0,072
708,64	0,146
708,84	0,601
709,03	0,052
709,22	1,532
709,41	1,995
709,61	-0,418
709,80	1,006
709,99	0,713
710,18	-0,238
710,38	1,082
710,57	1,225
710,76	1,365
710,95	1,563
711,14	0,796
711,34	0,812
711,53	2,018
711,72	0,306
711,91	1,576
712,11	1,619
712,30	2,159
712,49	0,814
712,68	1,545
712,87	1,172
713,07	3,146
713,26	1,735
713,45	1,031
713,64	2,907
713,83	0,997
714,03	-0,773
714,22	-0,871
714,41	0,626
714,60	0,094
714,79	0,821
714,99	1,922
715,18	2,023
715,37	1,937
715,56	1,286
715,75	1,987
715,94	2,696
716,14	-0,914
716,33	0,984
716,52	2,028
716,71	1,843
716,90	0,264
717,10	3,325
717,29	2,859
717,48	0,794
717,67	1,920
717,86	0,229
718,05	2,016
718,24	2,429
718,44	2,932
718,63	2,673
718,82	2,575
719,01	4,241
719,20	3,185
719,39	2,828
719,59	0,317
719,78	2,205
719,97	5,407
720,16	-1,190
720,35	3,390
720,54	1,008
720,73	4,330
720,93	0,139
721,12	-0,576
721,31	2,770
721,50	4,119
721,69	0,928
721,88	3,947
722,07	1,592
722,27	-0,467
722,46	-1,985
722,65	2,506
722,84	1,894
723,03	3,524
723,22	3,252
723,41	2,419
723,60	-1,852
723,79	3,003
723,99	4,951
724,18	2,724
724,37	0,798
724,56	-0,872
724,75	2,679
724,94	2,936
725,13	4,152
725,32	1,262
725,51	0,986
725,71	3,156
725,90	1,587
726,09	3,992
726,28	2,731
726,47	3,585
726,66	1,363
726,85	-0,389
727,04	2,737
727,23	2,832
727,42	0,398
727,61	2,079
727,81	3,575
728,00	2,106
728,19	5,185
728,38	1,603
728,57	6,129
728,76	7,400
728,95	3,169
729,14	3,644
729,33	1,107
729,52	5,225
729,71	-2,328
729,90	0,815
730,09	0,828
730,28	6,856
730,48	4,358
730,67	3,294
730,86	7,151
731,05	1,840
731,24	0,707
731,43	10,939
731,62	6,173
731,81	2,403
732,00	6,351
732,19	1,253
732,38	7,030
732,57	3,392
732,76	-4,030
732,95	5,392
733,14	10,154
733,33	-1,667
733,52	2,304
733,71	7,447
733,90	-0,277
734,09	7,210
734,28	14,042
734,47	0,441
734,66	3,086
734,85	3,667
735,04	12,769
735,23	7,756
735,42	5,248
735,61	2,770
735,81	3,835
736,00	2,406
736,19	2,249
736,38	2,105
736,57	6,171
736,76	5,449
736,95	5,104
737,14	8,589
737,33	1,090
737,52	5,319
737,71	6,402
737,90	4,792
738,09	-1,379
738,28	-1,136
738,47	7,717
738,66	-0,678
738,85	0,945
739,04	4,187
739,22	7,890
739,41	0,000
739,60	-0,539
739,79	6,927
739,98	8,663
740,17	3,547
740,36	0,947
740,55	4,918
740,74	5,204
740,93	7,757
741,12	7,958
741,31	-1,840
741,50	11,847
741,69	9,057
741,88	10,508
742,07	9,187
742,26	2,103
742,45	5,435
742,64	4,082
742,83	-1,758
743,02	-1,606
743,21	-0,226
743,40	8,429
743,59	4,519
743,78	-3,797
743,97	11,575
744,16	-3,879
744,34	5,579
744,53	10,129
744,72	6,369
744,91	9,446
745,10	3,448
745,29	3,991
745,48	6,769
745,67	-5,556
745,86	10,373
746,05	6,935
746,24	10,776
746,43	12,018
746,62	3,550
746,81	7,820
747,00	14,583
747,18	4,773
747,37	-3,182
747,56	12,815
747,75	0,767
747,94	15,152
748,13	14,252
748,32	14,878
748,51	11,241
748,70	9,113
748,89	-2,419
749,08	7,635
749,26	10,400
749,45	1,639
749,64	-0,258
749,83	8,600
750,02	5,094
750,21	13,021
750,40	1,847
750,59	9,309
750,78	10,602
750,96	10,723
751,15	3,753
751,34	14,496
751,53	10,278
751,72	8,043
751,91	12,861
752,10	6,479
752,29	-4,348
752,47	1,149
752,66	18,343
752,85	15,608
753,04	11,622
753,23	5,112
753,42	12,718
753,61	14,590
753,80	-2,703
753,98	10,000
754,17	2,266
754,36	2,614
754,55	5,212
754,74	12,973
754,93	19,032
755,12	13,538
755,30	-7,380
755,49	4,692
755,68	17,808
755,87	16,041
756,06	20,173
756,25	2,640
756,43	0,719
756,62	11,552
756,81	-2,353
757,00	27,198
757,19	20,859
757,38	2,606
757,56	10,811
757,75	5,344
757,94	10,345
758,13	24,204
758,32	0,379
758,51	14,194
758,69	0,000
758,88	14,098
759,07	32,028
759,26	11,905
759,45	23,929
759,63	15,810
759,82	9,854
760,01	14,931
760,20	24,088
760,39	22,989
760,57	-7,725
760,76	10,305
760,95	-5,364
761,14	-8,846
761,33	21,094
761,51	14,074
761,70	22,069
761,89	10,078
762,08	23,707
762,27	13,462
762,45	-2,830
762,64	8,850
762,83	27,509
763,02	8,304
763,21	7,746
763,39	4,072
763,58	8,980
763,77	22,340
763,96	12,281
764,14	11,203
764,33	15,789
764,52	3,571
764,71	12,315
764,89	29,730
765,08	12,734
765,27	27,228
765,46	7,727
765,65	35,025
765,83	-0,952
766,02	12,821
766,21	21,097
766,40	15,349
766,58	19,457
766,77	-12,994
766,96	16,410
767,15	22,705
767,33	-13,462
767,52	5,213
767,71	18,889
767,90	10,000
768,08	29,614
768,27	16,279
768,46	14,286
768,64	15,049
768,83	8,649
769,02	5,714
769,21	3,646
769,39	-15,436
769,58	16,500
769,77	19,565
769,96	30,464
770,14	12,977
770,33	10,695
770,52	5,769
770,70	23,762
770,89	14,286
771,08	14,583
771,27	6,186
771,45	27,168
771,64	17,105
771,83	27,419
772,01	-12,977
772,20	25,758
772,39	0,000
772,57	37,500
772,76	37,931
772,95	18,274
773,14	26,744
773,32	25,275
773,51	13,023
773,70	22,517
773,88	25,126
774,07	32,636
774,26	25,610
774,44	38,191
774,63	31,013
774,82	43,373
775,00	32,314
775,19	5,747
775,38	-4,667
775,56	32,927
775,75	-27,545
775,94	20,896
776,12	15,833
776,31	28,144
776,50	12,727
776,68	30,864
776,87	11,888
777,06	11,644
777,24	-16,393
777,43	8,943
777,62	22,222
777,80	17,391
777,99	16,561
778,18	35,032
778,36	34,351
778,55	27,407
778,74	-19,697
778,92	40,724
779,11	25,806
779,29	33,987
779,48	7,438
779,67	28,058
779,85	36,000
780,04	42,958
780,23	14,685
780,41	10,000
780,60	8,772
780,79	-3,472
780,97	30,714
781,16	8,000
781,34	24,242
781,53	37,821
781,72	62,963
781,90	31,731
782,09	16,393
782,28	17,886
782,46	12,195
782,65	25,874
782,83	-2,290
783,02	60,800
783,21	20,155
783,39	34,615
783,58	62,667
783,76	-5,405
783,95	17,219
784,14	-9,474
784,32	31,193
784,51	14,607
784,69	31,210
784,88	34,194
785,06	38,298
785,25	22,556
785,44	25,000
785,62	45,000
785,81	26,119
785,99	37,415
786,18	46,721
786,37	61,379
786,55	-24,627
786,74	42,857
786,92	43,023
787,11	12,000
787,29	7,059
787,48	-10,000
787,67	-7,143
787,85	-7,813
788,04	2,055
788,22	56,481
788,41	53,947
788,59	36,054
788,78	38,194
788,96	60,952
789,15	63,115
789,34	25,610
789,52	31,343
789,71	-22,222
789,89	42,982
790,08	19,608
790,26	34,921
790,45	54,745
790,63	29,605
790,82	53,226
791,00	38,889
791,19	31,429
791,38	21,918
791,56	31,579
791,75	56,757
791,93	-15,686
792,12	17,424
792,30	14,474
792,49	-12,150
792,67	20,714
792,86	18,919
793,04	23,016
793,23	53,289
793,41	31,613
793,60	15,190
793,78	31,544
793,97	8,621
794,15	37,908
794,34	39,796
794,52	37,984
794,71	56,173
794,89	27,857
795,08	26,282
795,26	37,000
795,45	13,830
795,63	20,126
795,82	32,773
796,00	10,769
796,19	48,052
796,37	35,593
796,56	-55,556
796,74	3,906
796,93	37,815
797,11	64,167
797,30	51,145
797,48	30,769
797,67	22,581
797,85	34,783
798,04	38,739
798,22	14,388
798,41	71,186
798,59	-2,143
798,77	39,316
798,96	14,516
799,14	47,222
799,33	30,973
799,51	41,584
799,70	92,308
799,88	24,771
800,07	45,324
800,25	52,672
800,44	25,743
800,62	51,799
800,80	-15,909
800,99	51,282
801,17	42,759
801,36	40,625
801,54	55,039
801,73	32,576
801,91	11,236
802,10	27,059
802,28	19,685
802,46	27,419
802,65	27,152
802,83	46,281
803,02	56,633
803,20	77,119
803,39	33,028
803,57	29,577
803,75	17,143
803,94	35,135
804,12	8,696
804,31	56,731
804,49	55,484
804,67	-11,712
804,86	38,509
805,04	21,705
805,23	69,343
805,41	-0,980
805,59	13,855
805,78	17,857
805,96	45,783
806,15	44,800
806,33	18,978
806,51	60,897
806,70	20,930
806,88	28,182
807,07	27,049
807,25	26,087
807,43	36,667
807,62	16,406
807,80	34,756
807,99	46,043
808,17	14,583
808,35	15,094
808,54	45,251
808,72	35,256
808,90	50,407
809,09	28,467
809,27	29,126
809,46	68,224
809,64	56,069
809,82	37,931
810,01	37,097
810,19	20,909
810,37	51,705
810,56	34,437
810,74	42,767
810,92	37,324
811,11	17,178
811,29	59,627
811,48	63,478
811,66	42,640
811,84	27,966
812,03	24,324
812,21	43,030
812,39	47,581
812,58	33,918
812,76	71,533
812,94	38,926
813,13	37,195
813,31	31,746
813,49	38,667
813,68	57,377
813,86	55,769
814,04	60,360
814,23	40,769
814,41	39,726
814,59	33,987
814,78	63,758
814,96	40,223
815,14	41,709
815,33	29,752
815,51	32,283
815,69	45,038
815,87	27,097
816,06	59,204
816,24	54,248
816,42	32,738
816,61	47,531
816,79	36,994
816,97	69,231
817,16	48,214
817,34	38,824
817,52	44,393
817,70	41,969
817,89	37,321
818,07	52,667
818,25	41,139
818,44	38,503
818,62	42,079
818,80	46,703
818,98	12,308
819,17	29,237
819,35	36,913
819,53	17,436
819,72	50,270
819,90	46,667
820,08	35,644
820,26	19,635
820,45	23,656
820,63	40,936
820,81	34,404
820,99	51,092
821,18	39,759
821,36	23,750
821,54	17,413
821,73	19,126
821,91	8,451
822,09	31,953
822,27	43,580
822,46	20,690
822,64	16,842
822,82	10,660
823,00	13,613
823,19	41,905
823,37	32,051
823,55	31,646
823,73	30,337
823,91	19,786
824,10	11,458
824,28	24,380
824,46	-30,263
824,64	54,613
824,83	16,588
825,01	7,059
825,19	21,834
825,37	6,863
825,56	32,443
825,74	32,035
825,92	26,459
826,10	17,621
826,28	18,450
826,47	44,747
826,65	24,820
826,83	28,070
827,01	28,346
827,19	34,884
827,38	22,472
827,56	36,500
827,74	26,066
827,92	32,195
828,10	17,708
828,29	24,723
828,47	32,117
828,65	28,516
828,83	15,190
829,01	27,027
829,20	25,385
829,38	31,148
829,56	34,007
829,74	28,462
829,92	25,911
830,10	33,047
830,29	36,398
830,47	26,119
830,65	11,715
830,83	32,993
831,01	20,628
831,20	14,964
831,38	23,127
831,56	25,965
831,74	29,831
831,92	23,443
832,10	18,354
832,29	25,442
832,47	23,050
832,65	32,131
832,83	26,899
833,01	19,940
833,19	19,034
833,37	22,796
833,56	20,238
833,74	33,115
833,92	18,243
834,10	11,747
834,28	14,634
834,46	14,740
834,64	26,133
834,83	15,581
835,01	13,316
835,19	7,801
835,37	30,508
835,55	32,295
835,73	10,169
835,91	18,289
836,09	21,053
836,28	10,366
836,46	35,693
836,64	15,748
836,82	19,505
837,00	10,543
837,18	29,667
837,36	34,897
837,54	24,590
837,72	27,848
837,91	24,363
838,09	23,333
838,27	16,062
838,45	41,644
838,63	33,239
838,81	27,964
838,99	22,546
839,17	31,056
839,35	33,409
839,53	33,418
839,72	40,659
839,90	23,556
840,08	27,529
840,26	25,722
840,44	31,298
840,62	27,763
840,80	46,813
840,98	31,767
841,16	30,163
841,34	30,283
841,52	23,696
841,70	24,566
841,89	39,180
842,07	34,483
842,25	35,220
842,43	36,740
842,61	34,752
842,79	40,136
842,97	24,256
843,15	28,601
843,33	32,922
843,51	35,217
843,69	34,375
843,87	35,484
844,05	28,078
844,23	20,790
844,41	40,358
844,59	32,365
844,77	28,041
844,95	28,355
845,13	35,158
845,31	32,024
845,50	35,818
845,68	32,334
845,86	29,472
846,04	29,877
846,22	36,667
846,40	21,901
846,58	27,888
846,76	42,596
846,94	19,682
847,12	29,231
847,30	27,955
847,48	32,423
847,66	23,457
847,84	31,272
848,02	27,941
848,20	29,379
848,38	21,071
848,56	19,928
848,74	25,683
848,92	35,052
849,10	26,056
849,28	22,520
849,46	20,887
849,64	24,961
849,82	29,073
850,00	27,487
850,18	23,455
850,36	21,192
850,54	20,288
850,72	19,938
850,90	28,149
851,08	25,354
851,26	24,434
851,44	21,486
851,62	30,926
851,80	24,548
851,98	26,395
852,16	26,158
852,34	21,690
852,52	25,888
852,70	25,399
852,87	23,726
853,05	27,221
853,23	26,401
853,41	29,014
853,59	22,511
853,77	26,744
853,95	28,024
854,13	28,409
854,31	24,663
854,49	29,536
854,67	31,786
854,85	26,146
855,03	31,139
855,21	29,630
855,39	32,250
855,57	37,395
855,75	30,412
855,93	27,669
856,11	32,555
856,28	26,232
856,46	30,263
856,64	25,065
856,82	32,226
857,00	29,442
857,18	34,305
857,36	40,174
857,54	38,124
857,72	34,969
857,90	25,093
858,08	26,302
858,26	31,153
858,44	29,032
858,61	31,638
858,79	38,260
858,97	35,021
859,15	36,710
859,33	37,661
859,51	33,757
859,69	39,205
859,87	33,011
860,05	33,702
860,23	33,662
860,40	27,213
860,58	36,182
860,76	34,457
860,94	30,769
861,12	33,609
861,30	31,733
861,48	33,713
861,66	29,123
861,84	29,113
862,01	29,830
862,19	36,179
862,37	37,161
862,55	30,567
862,73	30,579
862,91	33,873
863,09	37,269
863,27	32,198
863,44	33,031
863,62	31,391
863,80	32,683
863,98	26,888
864,16	33,745
864,34	31,836
864,52	30,100
864,69	27,912
864,87	35,510
865,05	30,201
865,23	30,202
865,41	23,710
865,59	32,293
865,76	32,680
865,94	28,269
866,12	28,522
866,30	35,356
866,48	31,089
866,66	31,391
866,83	30,077
867,01	32,480
867,19	29,019
867,37	31,034
867,55	30,697
867,73	29,212
867,90	35,935
868,08	31,636
868,26	28,881
868,44	28,261
868,62	35,420
868,79	32,412
868,97	31,768
869,15	33,585
869,33	34,897
869,51	31,211
869,69	34,408
869,86	34,422
870,04	36,637
870,22	34,292
870,40	38,367
870,57	37,619
870,75	35,236
870,93	34,353
871,11	34,382
871,29	32,039
871,46	30,385
871,64	39,002
871,82	35,596
872,00	39,910
872,18	35,111
872,35	38,218
872,53	36,141
872,71	33,310
872,89	36,324
873,06	35,870
873,24	34,447
873,42	40,137
873,60	36,857
873,77	32,987
873,95	36,813
874,13	38,259
874,31	39,269
874,49	35,942
874,66	39,814
874,84	37,508
875,02	40,991
875,20	38,669
875,37	40,838
875,55	34,980
875,73	37,838
875,91	37,655
876,08	36,078
876,26	39,050
876,44	37,530
876,61	39,175
876,79	34,306
876,97	32,790
877,15	40,721
877,32	35,119
877,50	37,070
877,68	37,399
877,86	33,155
878,03	35,914
878,21	38,413
878,39	35,356
878,56	36,798
878,74	37,004
878,92	38,913
879,10	38,904
879,27	40,202
879,45	37,047
879,63	37,633
879,80	36,541
879,98	40,733
880,16	40,165
880,34	39,692
880,51	41,098
880,69	39,098
880,87	41,981
881,04	39,034
881,22	42,141
881,40	40,365
881,57	43,559
881,75	41,581
881,93	39,694
882,10	44,498
882,28	41,908
882,46	44,100
882,63	47,556
882,81	44,241
882,99	41,866
883,16	43,798
883,34	42,727
883,52	44,210
883,69	45,924
883,87	43,263
884,05	47,289
884,22	43,031
884,40	46,016
884,58	41,544
884,75	43,920
884,93	46,009
885,11	47,470
885,28	46,220
885,46	43,839
885,64	43,079
885,81	42,758
885,99	41,933
886,17	42,332
886,34	42,453
886,52	46,544
886,70	43,379
886,87	42,724
887,05	43,952
887,22	41,299
887,40	42,640
887,58	42,460
887,75	40,792
887,93	42,885
888,11	43,143
888,28	45,022
888,46	43,077
888,63	41,812
888,81	40,942
888,99	43,490
889,16	41,192
889,34	42,015
889,51	43,267
889,69	43,779
889,87	42,360
890,04	45,002
890,22	43,066
890,39	42,506
890,57	44,658
890,75	43,681
890,92	44,304
891,10	42,781
891,27	45,783
891,45	43,253
891,63	43,457
891,80	45,487
891,98	44,391
892,15	44,561
892,33	44,579
892,51	42,889
892,68	43,367
892,86	43,007
893,03	42,574
893,21	45,161
893,38	41,367
893,56	43,128
893,74	44,630
893,91	41,731
894,09	43,949
894,26	41,532
894,44	41,114
894,61	40,363
894,79	41,452
894,96	40,164
895,14	40,889
895,32	41,514
895,49	39,093
895,67	39,589
895,84	39,836
896,02	40,159
896,19	37,613
896,37	38,159
896,54	36,646
896,72	37,451
896,89	35,959
897,07	34,661
897,25	37,207
897,42	38,529
897,60	35,040
897,77	33,985
897,95	34,112
898,12	35,176
898,30	32,833
898,47	34,278
898,65	34,271
898,82	33,710
899,00	34,202
899,17	33,279
899,35	31,179
899,52	33,280
899,70	32,848
899,87	32,733
900,05	31,893
900,22	32,835
900,40	31,456
900,57	29,899
900,75	31,751
900,92	31,438
901,10	32,402
901,27	30,524
901,45	31,038
901,62	31,861
901,80	33,413
901,97	33,527
902,15	32,959
902,32	33,573
902,50	35,552
902,67	33,973
902,85	34,447
903,02	34,101
903,20	33,056
903,37	35,733
903,54	33,930
903,72	33,524
903,89	33,652
904,07	33,259
904,24	34,548
904,42	34,820
904,59	36,613
904,77	35,970
904,94	36,948
905,12	37,153
905,29	34,640
905,47	36,132
905,64	35,107
905,81	35,408
905,99	34,247
906,16	35,574
906,34	35,049
906,51	34,552
906,69	35,386
906,86	35,334
907,03	35,040
907,21	33,230
907,38	33,652
907,56	32,006
907,73	34,694
907,91	35,274
908,08	33,909
908,25	32,737
908,43	33,787
908,60	34,683
908,78	33,984
908,95	33,349
909,13	32,324
909,30	32,188
909,47	33,288
909,65	32,761
909,82	32,817
910,00	31,098
910,17	31,260
910,34	31,346
910,52	30,350
910,69	29,774
910,87	31,367
911,04	30,131
911,21	30,218
911,39	28,903
911,56	31,325
911,73	30,296
911,91	30,791
912,08	30,773
912,26	30,679
912,43	31,765
912,60	29,928
912,78	29,883
912,95	30,664
913,13	28,882
913,30	29,909
913,47	29,515
913,65	30,509
913,82	30,210
913,99	29,425
914,17	31,384
914,34	29,584
914,51	30,380
914,69	30,574
914,86	30,215
915,03	31,219
915,21	30,901
915,38	31,412
915,56	30,978
915,73	31,073
915,90	30,430
916,08	30,353
916,25	33,784
916,42	33,267
916,60	33,039
916,77	33,084
916,94	33,112
917,12	34,073
917,29	34,514
917,46	34,218
917,64	34,336
917,81	34,736
917,98	34,935
918,16	35,663
918,33	36,200
918,50	35,984
918,67	35,089
918,85	36,048
919,02	36,649
919,19	37,741
919,37	37,947
919,54	39,476
919,71	38,894
919,89	38,687
920,06	39,670
920,23	40,011
920,41	40,520
920,58	40,441
920,75	41,146
920,92	40,235
921,10	41,461
921,27	41,074
921,44	42,614
921,62	40,242
921,79	42,437
921,96	42,063
922,13	42,511
922,31	43,288
922,48	41,232
922,65	44,235
922,82	42,749
923,00	44,487
923,17	43,292
923,34	43,204
923,52	41,337
923,69	42,967
923,86	43,707
924,03	43,042
924,21	43,722
924,38	44,865
924,55	42,987
924,72	43,201
924,90	43,534
925,07	45,267
925,24	43,673
925,41	41,950
925,59	43,918
925,76	43,232
925,93	45,828
926,10	43,721
926,28	44,038
926,45	43,764
926,62	43,345
926,79	42,815
926,96	42,805
927,14	43,729
927,31	43,642
927,48	42,691
927,65	45,229
927,83	43,291
928,00	43,925
928,17	42,428
928,34	43,398
928,51	43,017
928,69	42,347
928,86	42,941
929,03	42,230
929,20	43,642
929,37	44,549
929,55	43,717
929,72	45,015
929,89	45,038
930,06	45,413
930,23	44,021
930,41	45,398
930,58	45,759
930,75	45,796
930,92	46,079
931,09	48,053
931,27	47,709
931,44	45,494
931,61	47,407
931,78	48,809
931,95	48,907
932,12	46,583
932,30	48,290
932,47	48,599
932,64	46,559
932,81	49,353
932,98	49,606
933,16	48,435
933,33	49,656
933,50	47,596
933,67	48,687
933,84	49,259
934,01	48,042
934,18	47,483
934,36	47,204
934,53	49,746
934,70	47,680
934,87	47,625
935,04	48,495
935,21	48,202
935,38	47,901
935,56	46,930
935,73	46,440
935,90	46,132
936,07	45,780
936,24	46,730
936,41	44,762
936,58	44,158
936,76	44,461
936,93	44,208
937,10	43,465
937,27	44,071
937,44	44,387
937,61	43,293
937,78	41,564
937,95	43,003
938,13	41,850
938,30	39,906
938,47	39,874
938,64	38,806
938,81	41,098
938,98	39,175
939,15	39,416
939,32	38,652
939,49	37,092
939,66	37,811
939,84	37,137
940,01	37,236
940,18	36,744
940,35	35,833
940,52	34,818
940,69	34,272
940,86	36,113
941,03	34,629
941,20	33,550
941,37	34,017
941,54	33,317
941,71	33,539
941,89	32,668
942,06	32,508
942,23	31,088
942,40	31,280
942,57	32,017
942,74	30,369
942,91	30,565
943,08	32,364
943,25	31,042
943,42	30,201
943,59	30,477
943,76	31,445
943,93	30,299
944,10	31,888
944,27	32,679
944,44	30,851
944,61	29,830
944,79	31,354
944,96	31,092
945,13	31,353
945,30	29,124
945,47	32,034
945,64	30,170
945,81	30,737
945,98	31,164
946,15	31,170
946,32	31,257
946,49	32,141
946,66	31,186
946,83	31,214
947,00	31,674
947,17	30,787
947,34	31,007
947,51	32,579
947,68	32,698
947,85	31,259
948,02	31,549
948,19	33,326
948,36	32,847
948,53	31,623
948,70	31,917
948,87	31,849
949,04	33,431
949,21	32,726
949,38	31,335
949,55	32,971
949,72	32,369
949,89	30,219
950,06	32,288
950,23	33,230
950,40	31,229
950,57	31,267
950,74	31,578
950,91	33,452
951,08	31,006
951,25	32,204
951,42	32,134
951,59	31,268
951,76	30,723
951,93	30,806
952,10	30,504
952,27	31,700
952,44	31,640
952,61	30,089
952,77	30,287
952,94	31,088
953,11	31,555
953,28	31,146
953,45	30,172
953,62	29,708
953,79	31,071
953,96	30,769
954,13	29,548
954,30	30,620
954,47	28,445
954,64	29,137
954,81	30,015
954,98	28,571
955,15	29,157
955,32	29,431
955,49	28,479
955,65	29,000
955,82	27,722
955,99	27,209
956,16	25,913
956,33	27,075
956,50	28,472
956,67	27,554
956,84	25,621
957,01	27,851
957,18	27,772
957,35	28,233
957,52	25,172
957,68	26,250
957,85	24,972
958,02	24,800
958,19	24,020
958,36	28,021
958,53	28,485
958,70	26,733
958,87	27,295
959,04	28,647
959,21	26,299
959,37	25,286
959,54	28,956
959,71	25,068
959,88	24,550
960,05	24,401
960,22	25,438
960,39	27,145
960,56	25,181
960,72	26,094
960,89	26,981
961,06	32,952
961,23	25,939
961,40	31,569
961,57	25,440
961,74	31,712
961,90	32,389
962,07	30,517
962,24	34,591
962,41	33,627
962,58	33,110
962,75	30,414
962,92	27,500
963,08	31,597
963,25	33,531
963,42	28,309
963,59	31,846
963,76	31,362
963,93	32,907
964,10	29,253
964,26	27,370
964,43	31,694
964,60	30,325
964,77	31,240
964,94	40,000
965,10	37,092
965,27	28,209
965,44	35,500
965,61	32,625
965,78	38,137
965,95	32,762
966,11	46,138
966,28	34,945
966,45	29,905
966,62	32,051
966,79	32,114
966,95	36,853
967,12	34,211
967,29	37,617
967,46	29,565
967,63	36,790
967,79	29,076
967,96	26,772
968,13	46,708
968,30	31,694
968,47	33,245
968,63	34,320
968,80	52,069
968,97	51,714
969,14	28,614
969,31	34,615
969,47	50,789
969,64	42,574
969,81	44,912
969,98	43,275
970,14	53,704
970,31	62,366
970,48	46,263
970,65	48,944
970,81	48,980
970,98	50,187
971,15	39,171
971,32	39,407
971,48	40,074
971,65	46,218
971,82	31,122
971,99	50,746
972,15	60,000
972,32	52,675
972,49	37,339
972,66	32,301
972,82	39,109
972,99	43,404
973,16	73,196
973,33	59,524
973,49	56,667
973,66	47,059
973,83	70,068
974,00	73,770
974,16	37,736
974,33	60,976
974,50	56,250
974,67	61,053
974,83	42,938
975,00	45,652
975,17	64,626
975,33	35,507
975,50	53,939
975,67	75,893
975,84	62,411
976,00	58,462
976,17	61,765
976,34	58,865
976,50	26,087
976,67	56,897
976,84	74,359
977,00	57,895
977,17	81,102
977,34	83,871
977,50	56,383
977,67	69,298
977,84	67,273
978,01	54,023
978,17	146,154
978,34	39,583
978,51	27,273
978,67	112,088
978,84	68,750
979,01	70,769
979,17	63,636
979,34	231,250
979,51	67,308
979,67	120,000
979,84	140,476
980,01	68,852
980,17	38,824
980,34	79,710
980,51	131,818
980,67	132,000
980,84	1,724
981,01	130,769
981,17	62,000
981,34	187,500
981,50	77,941
981,67	115,517
981,84	55,172
982,00	117,391
982,17	159,091
982,34	120,513
982,50	363,158
982,67	72,222
982,84	100,000
983,00	116,000
983,17	233,333
983,33	88,710
983,50	40,217
983,67	139,130
983,83	550,000
984,00	100,000
984,17	95,000
984,33	109,459
984,50	62,500
984,66	107,143
984,83	81,395
985,00	218,033
985,16	102,564
985,33	331,250
985,49	206,897
985,66	184,848
985,83	112,281
985,99	45,045
986,16	272,000
986,32	124,638
986,49	666,667
986,66	41,860
986,82	80,702
986,99	185,714
987,15	96,552
987,32	62,963
987,49	113,889
987,65	10,000
987,82	-29,412
987,98	129,412
988,15	200,000
988,31	86,000
988,48	-129,167
988,65	255,556
988,81	173,913
988,98	516,667
989,14	153,061
989,31	200,000
989,47	136,585
989,64	58,571
989,80	-80,000
989,97	114,706
990,14	-21,739
990,30	50,000
990,47	109,756
990,63	282,609
990,80	184,848
990,96	333,333
991,13	250,000
991,29	152,941
991,46	145,098
991,62	-20,588
991,79	192,982
991,95	265,000
992,12	158,140
992,29	184,000
992,45	-207,692
992,62	-770,000
992,78	-125,926
992,95	200,000
993,11	230,000
993,28	79,012
993,44	208,696
993,61	1033,333
993,77	180,000
993,94	251,163
994,10	323,810
994,27	240,000
994,43	258,824
994,60	-106,061
994,76	294,737
994,93	177,273
995,09	-45,946
995,26	56,790
995,42	183,051
995,59	464,286
995,75	253,125
995,92	313,636
996,08	270,833
996,25	166,667
996,41	187,500
996,58	291,892
996,74	620,000
996,91	294,444
997,07	300,000
997,23	206,383
997,40	1066,667
997,56	180,000
997,73	0,000
997,89	370,370
998,06	7,843
998,22	5000,000
998,39	386,957
998,55	-100,000
998,72	290,000
998,88	2300,000
999,05	92,308
999,21	195,652
999,37	-4500,000
999,54	550,000
999,70	461,538
999,87	-331,250
1000,03	75,000
1000,20	-83,333
1000,36	-1000,000
1000,52	438,889
1000,69	86,364
1000,85	153,448
1001,02	176,923
1001,18	177,273
1001,35	-64,444
1001,51	-500,000
1001,67	-4,000
1001,84	833,333
1002,00	192,500
1002,17	127,273
1002,33	-405,882
1002,50	11,111
1002,66	4200,000
1002,82	251,429
1002,99	-134,615
1003,15	256,522
1003,32	196,774
1003,48	-580,000
1003,64	127,500
1003,81	28,571
1003,97	168,182
1004,14	2100,000
1004,30	-628,571
1004,46	650,000
1004,63	126,316
1004,79	-293,333
1004,95	111,765
1005,12	-214,286
1005,28	262,069
1005,45	98,077
1005,61	-1266,667
1005,77	105,263
1005,94	135,484
1006,10	-5100,000
1006,26	105,357
1006,43	888,889
1006,59	-118,519
1006,76	-120,000
1006,92	140,000
1007,08	430,000
1007,25	-58,333
1007,41	-275,000
1007,57	81,250
1007,74	-69,565
1007,90	-1320,000
1008,06	171,429
1008,23	222,222
1008,39	2200,000
1008,55	50,000
1008,72	362,500
1008,88	166,000
1009,04	184,000
1009,21	-117,647
1009,37	-400,000
1009,53	-394,737
1009,70	-338,462
1009,86	165,909
1010,02	515,385
1010,19	0,000
1010,35	412,500
1010,51	677,778
1010,68	837,500
1010,84	-1600,000
1011,00	124,444
1011,17	-300,000
1011,33	152,941
1011,49	106,250
1011,66	243,478
1011,82	-43,396
1011,98	-2,273
1012,14	59,091
1012,31	-1240,000
1012,47	400,000
1012,63	311,111
1012,80	212,000
1012,96	-336,364
1013,12	137,209
1013,29	28,947
1013,45	160,000
1013,61	-44,444
1013,77	150,000
1013,94	81,250
1014,10	-12,121
1014,26	1200,000
1014,43	-112,121
1014,59	-200,000
1014,75	2200,000
1014,91	1966,667
1015,08	186,667
1015,24	-1333,333
1015,40	-252,941
1015,56	422,222
1015,73	175,556
1015,89	171,429
1016,05	1620,000
1016,21	-188,889
1016,38	780,000
1016,54	-353,846
1016,70	-125,926
1016,86	154,545
1017,03	69,231
1017,19	134,783
1017,35	-184,615
1017,51	105,714
1017,68	136,364
1017,84	6200,000
1018,00	628,571
1018,16	143,750
1018,33	-614,286
1018,49	234,146
1018,65	-82,353
1018,81	-0,000
1018,97	-725,000
1019,14	180,000
1019,30	250,000
1019,46	966,667
1019,62	326,667
1019,79	450,000
1019,95	139,583
1020,11	-228,571
1020,27	475,000
1020,43	-585,714
1020,60	-252,632
1020,76	-188,889
1020,92	385,714
1021,08	4900,000
1021,24	320,000
1021,41	67,647
1021,57	300,000
1021,73	-750,000
1021,89	-457,143
1022,05	1350,000
1022,21	194,872
1022,38	-290,000
1022,54	2300,000
1022,70	-200,000
1022,86	900,000
1023,02	-258,824
1023,19	-88,889
1023,35	193,548
1023,51	171,429
1023,67	91,667
1023,83	1966,667
1023,99	261,111
1024,16	178,571
1024,32	-12,000
1024,48	131,818
1024,64	677,778
1024,80	-52,778
1024,96	3,448
1025,12	-621,429
1025,29	225,000
1025,45	119,444
1025,61	-1333,333
1025,77	-116,129
1025,93	340,000
1026,09	100,000
1026,26	252,632
1026,42	-79,167
1026,58	-8,696
1026,74	300,000
1026,90	111,111
1027,06	-17,949
1027,22	-65,217
1027,38	130,435
1027,55	-433,333
1027,71	143,333
1027,87	-637,500
1028,03	-250,000
1028,19	-352,941
1028,35	-357,143
1028,51	200,000
1028,67	105,882
1028,83	188,889
1029,00	400,000
1029,16	197,297
1029,32	117,857
1029,48	-171,429
1029,64	-369,231
1029,80	318,182
1029,96	616,667
1030,12	284,211
1030,28	350,000
1030,44	1060,000
1030,61	268,182
1030,77	-800,000
1030,93	62,500
1031,09	1175,000
1031,25	0,000
1031,41	280,000
1031,57	-1125,000
1031,73	-1800,000
1031,89	-218,182
1032,05	-95,349
1032,21	24,242
1032,37	144,643
1032,53	-62,069
1032,69	300,000
1032,86	-83,333
1033,02	-633,333
1033,18	283,333
1033,34	-500,000
1033,50	325,000
1033,66	-204,000
1033,82	533,333
1033,98	2750,000
1034,14	-128,571
1034,30	-193,333
1034,46	200,000
1034,62	107,692
1034,78	-139,130
1034,94	61,290
1035,10	-169,231
1035,26	455,556
1035,42	-106,667
1035,58	158,333
1035,74	150,000
1035,90	481,250
1036,06	76,471
1036,22	260,606
1036,38	-281,250
1036,54	-200,000
1036,70	-9,677
1036,86	40,000
1037,02	-28,571
1037,18	5,882
1037,34	866,667
1037,50	-300,000
1037,66	-400,000
1037,82	266,667
1037,98	1050,000
1038,14	-400,000
1038,30	217,241
1038,46	-742,857
1038,62	488,889
1038,78	-214,286
1038,94	370,000
1039,10	176,000
1039,26	-16,667
1039,42	195,652
1039,58	-925,000
1039,74	50,000
1039,90	-300,000
1040,06	9,231
>>>>>End Processed Spectral Data<<<<<
