SpectraSuite Data File
++++++++++++++++++++++++++++++++++++
Date: Tue Jan 31 19:05:06 EET 2017
User: optolab
Dark Spectrum Present: Yes
Reference Spectrum Present: Yes
Number of Sampled Component Spectra: 1
Spectrometers: USB4C02475
Integration Time (usec): 100000 (USB4C02475)
Spectra Averaged: 1 (USB4C02475)
Boxcar Smoothing: 0 (USB4C02475)
Correct for Electrical Dark: No (USB4C02475)
Strobe/Lamp Enabled: No (USB4C02475)
Correct for Detector Non-linearity: No (USB4C02475)
Correct for Stray Light: No (USB4C02475)
Number of Pixels in Processed Spectrum: 3648
>>>>>Begin Processed Spectral Data<<<<<
344,91	338,462
345,13	338,462
345,35	338,462
345,57	0,000
345,79	450,000
346,00	440,000
346,22	-113,889
346,44	338,462
346,66	1800,000
346,87	316,667
347,09	-27,778
347,31	-633,333
347,53	-100,000
347,74	-415,385
347,96	261,905
348,18	1666,667
348,40	-378,571
348,61	111,429
348,83	148,780
349,05	142,857
349,27	452,632
349,48	96,154
349,70	376,471
349,92	117,073
350,14	611,111
350,35	131,707
350,57	34,286
350,79	252,941
351,01	453,846
351,22	-12,500
351,44	-866,667
351,66	223,077
351,87	111,538
352,09	148,485
352,31	268,750
352,53	133,333
352,74	161,905
352,96	76,744
353,18	116,667
353,40	97,826
353,61	126,667
353,83	216,667
354,05	124,242
354,26	139,286
354,48	-925,000
354,70	73,171
354,92	151,515
355,13	129,412
355,35	0,000
355,57	169,444
355,78	85,294
356,00	23,529
356,22	555,556
356,44	-253,846
356,65	119,697
356,87	150,000
357,09	126,667
357,30	98,413
357,52	166,071
357,74	-1150,000
357,95	680,000
358,17	700,000
358,39	223,529
358,60	810,000
358,82	405,882
359,04	106,250
359,26	135,937
359,47	160,870
359,69	5,405
359,91	42,308
360,12	338,462
360,34	128,155
360,56	262,069
360,77	1214,286
360,99	107,692
361,21	233,333
361,42	118,750
361,64	315,385
361,86	143,750
362,07	82,692
362,29	70,588
362,51	246,154
362,72	85,135
362,94	247,619
363,16	415,000
363,37	32,258
363,59	162,069
363,81	-227,778
364,02	72,941
364,24	217,391
364,46	151,351
364,67	182,222
364,89	420,000
365,11	3250,000
365,32	81,928
365,54	292,857
365,76	53,448
365,97	121,429
366,19	-175,000
366,41	226,923
366,62	126,316
366,84	247,368
367,05	113,846
367,27	-233,333
367,49	170,732
367,70	1025,000
367,92	106,452
368,14	2750,000
368,35	139,437
368,57	228,205
368,79	135,294
369,00	0,000
369,22	583,333
369,43	313,636
369,65	88,060
369,87	98,592
370,08	728,571
370,30	235,294
370,51	125,926
370,73	111,538
370,95	300,000
371,16	716,667
371,38	131,818
371,60	15,385
371,81	108,108
372,03	394,737
372,24	563,636
372,46	123,171
372,68	125,000
372,89	145,714
373,11	161,905
373,32	313,333
373,54	146,000
373,76	80,851
373,97	54,839
374,19	156,757
374,40	272,222
374,62	1200,000
374,84	140,000
375,05	197,297
375,27	107,547
375,48	172,093
375,70	63,636
375,92	212,500
376,13	64,444
376,35	1733,333
376,56	148,000
376,78	64,583
376,99	85,714
377,21	-5700,000
377,43	91,667
377,64	100,000
377,86	182,609
378,07	66,667
378,29	-22,581
378,51	189,744
378,72	153,333
378,94	67,647
379,15	311,429
379,37	200,000
379,58	151,786
379,80	-15,385
380,01	625,000
380,23	278,947
380,45	198,077
380,66	261,111
380,88	-2400,000
381,09	104,286
381,31	88,406
381,52	191,667
381,74	108,955
381,95	217,073
382,17	125,000
382,39	304,545
382,60	484,615
382,82	208,571
383,03	180,769
383,25	70,513
383,46	85,366
383,68	53,571
383,89	870,000
384,11	86,364
384,32	-225,000
384,54	160,000
384,76	2500,000
384,97	74,074
385,19	120,833
385,40	77,083
385,62	183,333
385,83	29,730
386,05	53,488
386,26	121,622
386,48	88,000
386,69	30,189
386,91	211,765
387,12	208,333
387,34	149,020
387,55	56,818
387,77	109,524
387,98	-628,571
388,20	6,452
388,41	289,744
388,63	146,512
388,84	141,538
389,06	133,333
389,27	71,429
389,49	256,250
389,70	92,857
389,92	92,188
390,13	-221,739
390,35	130,000
390,56	98,485
390,78	138,710
390,99	1600,000
391,21	114,286
391,42	119,672
391,64	88,889
391,85	116,667
392,07	64,000
392,28	58,750
392,50	84,211
392,71	77,778
392,93	224,324
393,14	-115,789
393,36	134,375
393,57	119,608
393,79	98,485
394,00	32,727
394,22	43,182
394,43	147,500
394,65	1525,000
394,86	77,273
395,08	112,329
395,29	134,884
395,50	237,500
395,72	97,222
395,93	129,167
396,15	46,479
396,36	111,321
396,58	233,333
396,79	129,091
397,01	127,711
397,22	122,222
397,44	-1100,000
397,65	89,474
397,87	97,436
398,08	74,000
398,29	293,750
398,51	150,000
398,72	59,000
398,94	104,054
399,15	120,408
399,37	92,308
399,58	274,194
399,80	100,000
400,01	55,072
400,22	97,959
400,44	326,667
400,65	280,000
400,87	70,492
401,08	53,947
401,30	82,000
401,51	122,727
401,72	125,581
401,94	79,032
402,15	-16,949
402,37	178,788
402,58	128,889
402,80	62,500
403,01	109,574
403,22	113,333
403,44	61,250
403,65	-172,727
403,87	125,641
404,08	36,923
404,30	-13,793
404,51	69,643
404,72	114,634
404,94	90,000
405,15	127,536
405,37	29,167
405,58	109,091
405,79	74,684
406,01	57,944
406,22	56,098
406,44	26,531
406,65	43,836
406,86	20,202
407,08	94,444
407,29	44,944
407,51	65,306
407,72	116,667
407,93	71,812
408,15	35,135
408,36	58,333
408,58	73,171
408,79	58,065
409,00	36,364
409,22	94,505
409,43	62,921
409,64	49,123
409,86	29,078
410,07	43,519
410,29	50,562
410,50	46,575
410,71	19,767
410,93	55,882
411,14	21,094
411,35	50,000
411,57	40,777
411,78	13,270
412,00	38,983
412,21	14,451
412,42	45,588
412,64	43,981
412,85	16,580
413,06	41,951
413,28	28,571
413,49	1,705
413,70	35,740
413,92	22,846
414,13	34,749
414,34	-0,457
414,56	16,129
414,77	14,015
414,98	19,104
415,20	24,165
415,41	13,793
415,63	0,610
415,84	21,779
416,05	25,485
416,27	21,498
416,48	17,750
416,69	9,662
416,91	14,837
417,12	12,815
417,33	9,976
417,55	10,132
417,76	14,777
417,97	18,489
418,19	14,808
418,40	13,067
418,61	10,292
418,83	5,556
419,04	8,618
419,25	14,052
419,46	7,862
419,68	7,275
419,89	9,050
420,10	2,889
420,32	6,591
420,53	1,255
420,74	7,783
420,96	6,873
421,17	4,519
421,38	7,245
421,60	7,889
421,81	5,161
422,02	3,737
422,23	8,838
422,45	6,131
422,66	3,898
422,87	4,600
423,09	5,218
423,30	0,976
423,51	5,076
423,73	3,574
423,94	4,480
424,15	2,959
424,36	2,231
424,58	4,725
424,79	5,234
425,00	2,917
425,22	4,802
425,43	5,219
425,64	5,652
425,85	5,315
426,07	2,176
426,28	5,088
426,49	3,279
426,71	3,016
426,92	4,080
427,13	3,548
427,34	4,646
427,56	3,752
427,77	3,891
427,98	1,448
428,19	0,621
428,41	3,341
428,62	1,526
428,83	1,545
429,04	1,767
429,26	3,322
429,47	2,301
429,68	2,056
429,89	1,408
430,11	2,224
430,32	2,221
430,53	1,630
430,74	2,056
430,96	2,032
431,17	0,463
431,38	1,997
431,59	2,064
431,81	1,785
432,02	1,993
432,23	1,464
432,44	2,769
432,66	2,076
432,87	1,199
433,08	1,322
433,29	0,678
433,51	1,652
433,72	0,967
433,93	1,016
434,14	0,657
434,35	1,321
434,57	0,262
434,78	0,923
434,99	1,301
435,20	0,950
435,42	1,296
435,63	0,662
435,84	0,855
436,05	0,169
436,26	1,003
436,48	0,223
436,69	0,514
436,90	0,605
437,11	1,006
437,32	0,761
437,54	0,544
437,75	0,489
437,96	0,842
438,17	1,248
438,38	0,771
438,60	1,064
438,81	0,997
439,02	0,625
439,23	0,619
439,44	1,113
439,66	0,665
439,87	0,534
440,08	0,865
440,29	0,460
440,50	0,642
440,72	0,691
440,93	0,525
441,14	1,016
441,35	0,647
441,56	0,624
441,77	0,795
441,99	0,509
442,20	0,408
442,41	0,440
442,62	0,569
442,83	0,650
443,04	0,776
443,26	0,867
443,47	0,729
443,68	0,819
443,89	0,807
444,10	0,522
444,31	0,579
444,53	0,759
444,74	0,866
444,95	0,428
445,16	0,397
445,37	0,419
445,58	0,584
445,80	0,572
446,01	0,554
446,22	0,614
446,43	0,306
446,64	0,672
446,85	0,561
447,06	0,781
447,28	1,181
447,49	1,068
447,70	0,823
447,91	1,103
448,12	0,891
448,33	0,893
448,54	0,830
448,76	0,978
448,97	1,124
449,18	1,063
449,39	1,045
449,60	1,179
449,81	1,363
450,02	1,088
450,23	1,284
450,45	1,333
450,66	1,193
450,87	1,221
451,08	1,206
451,29	1,560
451,50	1,431
451,71	1,784
451,92	2,850
452,13	5,542
452,35	10,513
452,56	20,958
452,77	35,971
452,98	54,158
453,19	71,317
453,40	83,624
453,61	90,079
453,82	94,499
454,03	96,507
454,25	96,827
454,46	98,385
454,67	98,584
454,88	100,202
455,09	98,690
455,30	97,887
455,51	100,079
455,72	100,136
455,93	98,937
456,14	99,617
456,35	98,959
456,56	99,821
456,78	100,350
456,99	99,743
457,20	98,979
457,41	100,145
457,62	98,674
457,83	98,226
458,04	100,424
458,25	98,677
458,46	100,124
458,67	99,106
458,88	100,918
459,09	100,816
459,30	98,836
459,51	101,743
459,73	98,892
459,94	99,713
460,15	98,789
460,36	98,688
460,57	99,910
460,78	99,589
460,99	99,214
461,20	98,246
461,41	97,404
461,62	97,717
461,83	98,199
462,04	98,088
462,25	96,645
462,46	97,662
462,67	98,008
462,88	98,952
463,09	98,216
463,30	97,441
463,51	96,756
463,72	97,182
463,93	97,628
464,15	97,348
464,36	96,643
464,57	96,975
464,78	96,510
464,99	96,875
465,20	96,635
465,41	96,922
465,62	96,340
465,83	96,211
466,04	95,525
466,25	96,408
466,46	95,530
466,67	95,976
466,88	95,518
467,09	97,228
467,30	96,933
467,51	96,642
467,72	96,857
467,93	97,372
468,14	98,435
468,35	98,429
468,56	97,932
468,77	99,002
468,98	98,937
469,19	99,316
469,40	100,095
469,61	100,605
469,82	100,282
470,03	98,890
470,24	99,864
470,45	100,792
470,66	100,266
470,87	99,751
471,08	100,534
471,29	99,276
471,50	100,249
471,71	100,641
471,92	100,357
472,13	100,156
472,34	100,140
472,55	100,756
472,76	99,796
472,97	101,056
473,18	100,679
473,39	98,942
473,60	99,162
473,81	100,062
474,01	99,966
474,22	100,732
474,43	100,570
474,64	101,465
474,85	101,180
475,06	101,224
475,27	101,260
475,48	101,904
475,69	100,004
475,90	99,337
476,11	100,049
476,32	101,695
476,53	99,199
476,74	100,453
476,95	100,094
477,16	100,598
477,37	99,950
477,58	98,935
477,79	98,725
478,00	97,567
478,21	97,949
478,41	98,417
478,62	98,656
478,83	97,842
479,04	98,209
479,25	98,637
479,46	98,547
479,67	98,768
479,88	98,360
480,09	98,440
480,30	98,406
480,51	98,333
480,72	98,867
480,93	99,100
481,14	97,872
481,34	98,397
481,55	98,962
481,76	99,301
481,97	98,537
482,18	99,797
482,39	98,347
482,60	98,837
482,81	98,753
483,02	97,127
483,23	96,092
483,44	97,417
483,65	96,937
483,85	96,190
484,06	96,574
484,27	95,515
484,48	97,198
484,69	98,376
484,90	97,705
485,11	98,348
485,32	99,058
485,53	99,648
485,73	98,170
485,94	99,269
486,15	98,927
486,36	99,492
486,57	99,236
486,78	100,034
486,99	100,096
487,20	99,850
487,41	99,891
487,61	99,299
487,82	99,767
488,03	101,554
488,24	101,448
488,45	100,772
488,66	100,231
488,87	100,543
489,08	101,157
489,28	100,282
489,49	100,116
489,70	98,804
489,91	99,319
490,12	100,758
490,33	100,004
490,54	99,237
490,74	99,725
490,95	98,951
491,16	100,074
491,37	99,433
491,58	98,675
491,79	98,532
492,00	99,058
492,20	99,919
492,41	100,734
492,62	99,546
492,83	100,749
493,04	98,906
493,25	99,516
493,45	99,668
493,66	98,905
493,87	99,634
494,08	100,315
494,29	98,840
494,50	98,790
494,70	98,635
494,91	98,603
495,12	98,344
495,33	98,317
495,54	97,961
495,75	98,502
495,95	99,198
496,16	98,589
496,37	99,311
496,58	99,221
496,79	99,343
496,99	99,908
497,20	98,636
497,41	98,724
497,62	99,130
497,83	99,496
498,04	98,481
498,24	98,173
498,45	99,398
498,66	99,060
498,87	99,815
499,08	98,377
499,28	98,470
499,49	98,375
499,70	98,516
499,91	99,040
500,12	97,585
500,32	98,000
500,53	98,090
500,74	98,480
500,95	98,626
501,15	97,167
501,36	96,521
501,57	94,108
501,78	89,552
501,99	81,156
502,19	70,961
502,40	57,179
502,61	43,322
502,82	30,043
503,02	20,043
503,23	12,711
503,44	7,679
503,65	4,875
503,86	2,994
504,06	2,122
504,27	1,648
504,48	1,051
504,69	1,010
504,89	0,697
505,10	0,761
505,31	0,653
505,52	0,613
505,72	0,683
505,93	0,610
506,14	0,491
506,35	0,703
506,55	0,461
506,76	0,624
506,97	0,688
507,18	0,588
507,38	0,435
507,59	0,629
507,80	0,602
508,01	0,488
508,21	0,647
508,42	0,498
508,63	0,552
508,84	0,773
509,04	0,423
509,25	0,525
509,46	0,443
509,67	0,361
509,87	0,291
510,08	0,517
510,29	0,440
510,49	0,447
510,70	0,422
510,91	0,319
511,12	0,488
511,32	0,576
511,53	0,473
511,74	0,569
511,94	0,420
512,15	0,529
512,36	0,383
512,57	0,426
512,77	0,410
512,98	0,599
513,19	0,277
513,39	0,352
513,60	0,389
513,81	0,507
514,01	0,389
514,22	0,279
514,43	0,349
514,64	0,253
514,84	0,422
515,05	0,412
515,26	0,608
515,46	0,513
515,67	0,476
515,88	0,200
516,08	0,475
516,29	0,244
516,50	0,289
516,70	0,412
516,91	0,522
517,12	0,468
517,32	0,436
517,53	0,274
517,74	0,329
517,95	0,445
518,15	0,224
518,36	0,300
518,57	0,339
518,77	0,342
518,98	0,455
519,19	0,475
519,39	0,402
519,60	0,286
519,80	0,369
520,01	0,124
520,22	0,461
520,42	0,444
520,63	0,221
520,84	0,291
521,04	0,486
521,25	0,490
521,46	0,350
521,66	0,208
521,87	0,430
522,08	0,457
522,28	0,576
522,49	0,401
522,70	0,342
522,90	0,278
523,11	0,282
523,31	0,492
523,52	0,151
523,73	0,404
523,93	0,361
524,14	0,399
524,35	0,525
524,55	0,201
524,76	0,374
524,97	0,387
525,17	0,496
525,38	0,289
525,58	0,253
525,79	0,593
526,00	0,266
526,20	0,382
526,41	0,507
526,61	0,456
526,82	0,320
527,03	0,314
527,23	0,412
527,44	0,329
527,64	0,281
527,85	0,418
528,06	0,391
528,26	0,275
528,47	0,256
528,68	0,357
528,88	0,389
529,09	0,251
529,29	0,312
529,50	0,419
529,70	0,544
529,91	0,312
530,12	0,291
530,32	0,190
530,53	0,277
530,73	0,179
530,94	0,253
531,15	0,105
531,35	0,302
531,56	0,234
531,76	0,273
531,97	0,302
532,17	0,065
532,38	0,469
532,59	0,416
532,79	0,307
533,00	0,360
533,20	0,293
533,41	0,561
533,61	0,312
533,82	0,513
534,03	0,354
534,23	0,462
534,44	0,321
534,64	0,431
534,85	0,317
535,05	0,257
535,26	0,298
535,46	0,294
535,67	0,112
535,88	0,364
536,08	0,394
536,29	0,347
536,49	0,339
536,70	0,422
536,90	0,294
537,11	0,620
537,31	0,474
537,52	0,450
537,72	0,428
537,93	0,214
538,13	0,300
538,34	0,237
538,55	0,302
538,75	0,296
538,96	0,186
539,16	0,256
539,37	0,332
539,57	0,460
539,78	0,562
539,98	0,379
540,19	0,408
540,39	0,251
540,60	0,414
540,80	0,436
541,01	0,383
541,21	0,400
541,42	0,440
541,62	0,544
541,83	0,380
542,03	0,436
542,24	0,447
542,44	0,284
542,65	0,328
542,85	0,406
543,06	0,502
543,26	0,410
543,47	0,393
543,67	0,454
543,88	0,414
544,08	0,354
544,29	0,473
544,49	0,508
544,70	0,344
544,90	0,564
545,11	0,580
545,31	0,464
545,52	0,316
545,72	0,392
545,93	0,524
546,13	0,510
546,34	0,626
546,54	0,389
546,75	0,751
546,95	0,435
547,15	0,291
547,36	0,568
547,56	0,713
547,77	0,482
547,97	0,583
548,18	0,514
548,38	0,543
548,59	0,565
548,79	0,484
549,00	0,530
549,20	0,474
549,41	0,418
549,61	0,550
549,81	0,508
550,02	0,521
550,22	0,545
550,43	0,730
550,63	0,728
550,84	0,677
551,04	0,844
551,25	0,848
551,45	1,022
551,65	0,788
551,86	0,816
552,06	0,847
552,27	1,141
552,47	1,025
552,68	0,927
552,88	1,041
553,08	1,148
553,29	0,943
553,49	1,219
553,70	1,427
553,90	1,780
554,11	2,967
554,31	5,134
554,51	9,495
554,72	15,749
554,92	25,911
555,13	39,385
555,33	53,806
555,53	68,734
555,74	79,961
555,94	88,368
556,15	92,503
556,35	95,389
556,56	97,503
556,76	98,797
556,96	98,623
557,17	99,071
557,37	98,539
557,58	99,149
557,78	99,093
557,98	98,978
558,19	99,645
558,39	100,345
558,59	100,095
558,80	100,271
559,00	100,414
559,21	100,087
559,41	100,398
559,61	100,301
559,82	99,731
560,02	100,102
560,23	99,943
560,43	99,682
560,63	100,483
560,84	100,513
561,04	100,221
561,24	100,437
561,45	101,001
561,65	100,631
561,85	100,931
562,06	100,386
562,26	100,562
562,47	100,629
562,67	100,169
562,87	102,297
563,08	101,628
563,28	101,281
563,48	100,856
563,69	100,355
563,89	99,888
564,09	100,868
564,30	100,296
564,50	100,158
564,70	99,483
564,91	99,735
565,11	99,353
565,31	99,805
565,52	99,065
565,72	99,813
565,92	100,187
566,13	99,852
566,33	98,696
566,53	100,483
566,74	100,888
566,94	101,012
567,14	100,227
567,35	99,456
567,55	100,263
567,75	99,867
567,96	100,296
568,16	99,545
568,36	99,812
568,57	100,652
568,77	100,917
568,97	100,646
569,18	100,401
569,38	100,609
569,58	100,955
569,79	101,612
569,99	101,271
570,19	100,979
570,39	101,189
570,60	100,736
570,80	100,812
571,00	100,258
571,21	100,738
571,41	101,025
571,61	100,430
571,82	100,577
572,02	99,515
572,22	100,896
572,42	101,205
572,63	99,846
572,83	101,267
573,03	101,513
573,24	101,177
573,44	101,332
573,64	101,214
573,84	101,281
574,05	100,899
574,25	100,007
574,45	100,712
574,66	100,195
574,86	100,363
575,06	99,890
575,26	99,952
575,47	99,322
575,67	99,184
575,87	99,082
576,07	98,880
576,28	100,062
576,48	98,868
576,68	99,857
576,88	99,533
577,09	99,406
577,29	99,960
577,49	99,834
577,69	99,560
577,90	100,255
578,10	100,687
578,30	101,530
578,50	99,526
578,71	100,352
578,91	100,047
579,11	99,822
579,31	100,203
579,52	100,322
579,72	99,186
579,92	99,694
580,12	101,034
580,33	100,598
580,53	100,359
580,73	100,281
580,93	99,344
581,13	100,968
581,34	100,810
581,54	100,820
581,74	100,659
581,94	101,170
582,15	101,297
582,35	101,408
582,55	101,245
582,75	101,463
582,95	102,010
583,16	100,974
583,36	101,618
583,56	101,171
583,76	101,011
583,96	102,121
584,17	102,118
584,37	101,893
584,57	102,136
584,77	100,998
584,97	100,982
585,18	101,831
585,38	101,388
585,58	101,371
585,78	101,526
585,98	101,696
586,19	100,737
586,39	100,806
586,59	101,216
586,79	101,395
586,99	101,064
587,20	100,469
587,40	100,580
587,60	100,640
587,80	100,668
588,00	101,131
588,20	100,385
588,41	100,397
588,61	100,297
588,81	100,032
589,01	100,940
589,21	100,212
589,41	100,428
589,62	100,653
589,82	99,164
590,02	99,914
590,22	99,946
590,42	99,127
590,62	98,619
590,83	99,245
591,03	98,900
591,23	98,478
591,43	98,188
591,63	98,692
591,83	97,345
592,03	98,455
592,24	98,359
592,44	98,182
592,64	99,062
592,84	100,199
593,04	98,475
593,24	99,175
593,44	99,070
593,65	99,514
593,85	100,437
594,05	100,485
594,25	100,688
594,45	100,125
594,65	99,705
594,85	99,736
595,06	101,046
595,26	99,226
595,46	99,070
595,66	98,726
595,86	99,289
596,06	99,474
596,26	98,654
596,46	99,525
596,66	100,340
596,87	99,147
597,07	99,105
597,27	99,845
597,47	99,671
597,67	99,390
597,87	100,366
598,07	99,238
598,27	98,813
598,47	99,468
598,67	97,807
598,88	98,830
599,08	99,176
599,28	98,680
599,48	97,474
599,68	97,156
599,88	97,417
600,08	98,299
600,28	98,574
600,48	98,690
600,68	99,601
600,88	99,251
601,09	99,722
601,29	100,738
601,49	101,195
601,69	100,867
601,89	100,719
602,09	99,963
602,29	99,374
602,49	99,411
602,69	99,884
602,89	100,994
603,09	99,626
603,29	99,504
603,49	98,402
603,69	99,118
603,90	98,616
604,10	98,902
604,30	99,099
604,50	98,139
604,70	99,493
604,90	99,115
605,10	99,269
605,30	99,225
605,50	100,121
605,70	101,094
605,90	100,678
606,10	100,015
606,30	101,160
606,50	99,201
606,70	99,249
606,90	100,138
607,10	99,401
607,30	100,459
607,50	100,407
607,70	100,850
607,90	100,508
608,10	100,978
608,30	100,359
608,50	99,540
608,70	100,643
608,90	100,332
609,11	100,288
609,31	100,374
609,51	99,783
609,71	100,490
609,91	100,137
610,11	99,324
610,31	99,973
610,51	99,949
610,71	99,470
610,91	99,638
611,11	98,248
611,31	96,134
611,51	95,260
611,71	91,254
611,91	84,575
612,11	75,120
612,31	65,725
612,51	53,321
612,71	41,327
612,91	29,845
613,11	21,945
613,31	14,813
613,51	9,930
613,71	6,518
613,91	4,702
614,11	3,124
614,31	2,625
614,50	1,719
614,70	1,421
614,90	1,315
615,10	0,847
615,30	0,642
615,50	0,602
615,70	0,618
615,90	0,440
616,10	0,488
616,30	0,695
616,50	0,476
616,70	0,338
616,90	0,647
617,10	0,339
617,30	0,441
617,50	0,632
617,70	0,399
617,90	0,525
618,10	0,484
618,30	0,573
618,50	0,398
618,70	0,494
618,90	0,324
619,10	0,387
619,30	0,425
619,49	0,657
619,69	0,313
619,89	0,165
620,09	0,264
620,29	0,182
620,49	0,513
620,69	0,404
620,89	0,464
621,09	0,291
621,29	0,342
621,49	0,224
621,69	0,300
621,89	0,390
622,09	0,222
622,29	0,222
622,48	0,291
622,68	0,471
622,88	0,227
623,08	0,280
623,28	0,441
623,48	0,195
623,68	0,140
623,88	0,282
624,08	0,296
624,28	0,113
624,48	0,337
624,67	0,165
624,87	0,217
625,07	0,374
625,27	0,339
625,47	0,250
625,67	0,279
625,87	0,217
626,07	0,228
626,27	0,242
626,47	0,402
626,66	0,201
626,86	0,175
627,06	0,410
627,26	0,239
627,46	0,151
627,66	0,302
627,86	0,058
628,06	0,322
628,25	0,065
628,45	0,279
628,65	0,289
628,85	0,140
629,05	0,234
629,25	0,189
629,45	0,378
629,65	0,182
629,84	0,275
630,04	0,221
630,24	0,352
630,44	0,112
630,64	0,347
630,84	0,236
631,04	0,327
631,23	0,185
631,43	0,261
631,63	0,098
631,83	0,323
632,03	0,304
632,23	0,209
632,42	0,410
632,62	0,157
632,82	0,351
633,02	0,247
633,22	0,200
633,42	0,215
633,62	0,219
633,81	0,149
634,01	0,260
634,21	0,257
634,41	0,602
634,61	0,546
634,80	0,370
635,00	0,119
635,20	0,252
635,40	0,254
635,60	0,152
635,80	0,116
635,99	0,597
636,19	0,254
636,39	0,040
636,59	0,385
636,79	0,322
636,98	0,298
637,18	0,338
637,38	0,183
637,58	0,259
637,78	0,192
637,97	0,173
638,17	0,236
638,37	0,038
638,57	0,441
638,77	0,387
638,96	0,455
639,16	0,305
639,36	0,414
639,56	0,522
639,76	0,361
639,95	0,388
640,15	0,594
640,35	-0,012
640,55	0,469
640,75	0,383
640,94	0,458
641,14	0,327
641,34	0,166
641,54	0,291
641,73	0,632
641,93	0,435
642,13	0,366
642,33	0,153
642,53	0,569
642,72	0,455
642,92	0,832
643,12	0,326
643,32	0,183
643,51	0,355
643,71	0,432
643,91	0,557
644,11	0,673
644,30	0,082
644,50	0,518
644,70	0,445
644,90	0,473
645,09	0,407
645,29	0,562
645,49	0,457
645,69	0,578
645,88	0,150
646,08	0,846
646,28	0,716
646,48	0,565
646,67	0,531
646,87	0,607
647,07	0,748
647,26	0,597
647,46	0,312
647,66	0,254
647,86	0,418
648,05	0,703
648,25	0,881
648,45	0,290
648,65	0,282
648,84	0,790
649,04	0,401
649,24	0,529
649,43	0,191
649,63	0,557
649,83	0,485
650,03	0,347
650,22	0,797
650,42	0,346
650,62	0,756
650,81	0,917
651,01	0,349
651,21	0,361
651,40	0,506
651,60	0,233
651,80	0,571
652,00	0,420
652,19	0,574
652,39	0,901
652,59	0,740
652,78	0,986
652,98	1,021
653,18	1,080
653,37	1,299
653,57	1,000
653,77	0,867
653,96	1,364
654,16	1,520
654,36	1,854
654,55	2,113
654,75	2,621
654,95	2,849
655,14	4,213
655,34	6,699
655,54	9,963
655,73	14,554
655,93	21,344
656,13	28,745
656,32	39,024
656,52	49,814
656,72	60,859
656,91	68,786
657,11	76,771
657,31	82,384
657,50	85,758
657,70	87,999
657,90	89,512
658,09	93,050
658,29	92,601
658,49	95,653
658,68	94,795
658,88	95,363
659,07	96,004
659,27	94,678
659,47	95,381
659,66	95,738
659,86	94,958
660,06	94,111
660,25	93,942
660,45	93,609
660,64	95,111
660,84	94,741
661,04	93,860
661,23	93,642
661,43	94,715
661,63	95,749
661,82	96,358
662,02	95,422
662,21	96,349
662,41	95,622
662,61	96,336
662,80	95,809
663,00	95,682
663,19	96,022
663,39	97,510
663,59	97,934
663,78	96,758
663,98	95,529
664,17	95,975
664,37	95,558
664,57	95,570
664,76	98,025
664,96	96,253
665,15	97,464
665,35	95,946
665,55	96,690
665,74	95,702
665,94	95,367
666,13	96,541
666,33	96,316
666,53	95,063
666,72	93,944
666,92	96,367
667,11	95,254
667,31	94,496
667,50	93,734
667,70	93,753
667,90	94,403
668,09	95,339
668,29	94,431
668,48	94,676
668,68	95,491
668,87	96,264
669,07	94,534
669,26	94,612
669,46	94,568
669,66	95,027
669,85	95,041
670,05	95,457
670,24	95,267
670,44	93,182
670,63	92,282
670,83	94,064
671,02	94,033
671,22	92,989
671,42	93,029
671,61	93,198
671,81	94,484
672,00	91,328
672,20	92,173
672,39	93,522
672,59	92,356
672,78	92,966
672,98	92,240
673,17	92,122
673,37	93,314
673,56	92,810
673,76	93,159
673,95	94,106
674,15	93,268
674,34	94,438
674,54	93,052
674,73	93,790
674,93	92,928
675,13	93,165
675,32	94,179
675,52	94,361
675,71	93,366
675,91	94,605
676,10	93,351
676,30	92,770
676,49	93,296
676,69	91,628
676,88	93,431
677,08	93,199
677,27	91,786
677,47	91,570
677,66	91,729
677,86	92,495
678,05	92,509
678,24	92,144
678,44	92,876
678,63	92,379
678,83	92,765
679,02	92,988
679,22	92,227
679,41	92,327
679,61	92,210
679,80	92,236
680,00	91,260
680,19	92,086
680,39	91,161
680,58	90,872
680,78	92,517
680,97	91,236
681,17	90,369
681,36	90,891
681,56	89,707
681,75	89,955
681,94	90,272
682,14	90,693
682,33	90,131
682,53	89,713
682,72	89,756
682,92	89,484
683,11	89,780
683,31	89,802
683,50	90,620
683,69	90,860
683,89	90,002
684,08	91,110
684,28	90,191
684,47	90,741
684,67	90,095
684,86	90,231
685,06	90,034
685,25	90,860
685,44	91,446
685,64	91,231
685,83	92,116
686,03	92,106
686,22	91,741
686,42	90,859
686,61	91,972
686,80	91,258
687,00	91,301
687,19	91,765
687,39	91,952
687,58	91,324
687,77	90,965
687,97	91,778
688,16	91,416
688,36	91,865
688,55	91,411
688,74	91,379
688,94	92,195
689,13	91,939
689,33	91,555
689,52	91,922
689,71	92,240
689,91	91,426
690,10	92,096
690,30	92,267
690,49	91,916
690,68	91,676
690,88	92,512
691,07	91,791
691,27	92,244
691,46	92,633
691,65	92,586
691,85	93,285
692,04	93,066
692,23	93,247
692,43	92,937
692,62	93,083
692,82	94,100
693,01	92,947
693,20	92,783
693,40	94,285
693,59	93,976
693,78	94,131
693,98	94,780
694,17	94,705
694,36	95,721
694,56	97,359
694,75	97,722
694,94	96,909
695,14	97,283
695,33	98,499
695,53	97,960
695,72	98,575
695,91	99,241
696,11	99,677
696,30	99,426
696,49	99,906
696,69	99,876
696,88	101,605
697,07	101,549
697,27	103,256
697,46	102,529
697,65	101,901
697,85	102,713
698,04	102,636
698,23	104,088
698,43	102,629
698,62	104,837
698,81	106,318
699,01	106,243
699,20	105,620
699,39	105,944
699,58	105,084
699,78	105,421
699,97	105,353
700,16	105,715
700,36	109,080
700,55	106,916
700,74	108,091
700,94	106,777
701,13	106,464
701,32	105,710
701,52	104,853
701,71	104,634
701,90	104,906
702,09	106,108
702,29	104,074
702,48	105,676
702,67	106,353
702,87	108,480
703,06	104,414
703,25	106,072
703,44	104,965
703,64	106,785
703,83	104,914
704,02	105,886
704,22	106,502
704,41	103,358
704,60	104,606
704,79	106,832
704,99	105,907
705,18	104,087
705,37	104,642
705,56	105,717
705,76	103,879
705,95	107,425
706,14	106,881
706,33	105,041
706,53	102,930
706,72	103,652
706,91	107,567
707,11	101,847
707,30	104,123
707,49	105,136
707,68	101,863
707,88	104,440
708,07	104,409
708,26	105,230
708,45	102,486
708,64	103,364
708,84	101,928
709,03	102,279
709,22	103,301
709,41	101,591
709,61	103,510
709,80	101,062
709,99	101,968
710,18	101,961
710,38	101,924
710,57	100,149
710,76	101,458
710,95	102,106
711,14	103,715
711,34	103,419
711,53	101,076
711,72	101,939
711,91	96,333
712,11	100,294
712,30	97,769
712,49	89,386
712,68	92,236
712,87	84,799
713,07	76,249
713,26	64,461
713,45	53,174
713,64	42,301
713,83	33,901
714,03	23,797
714,22	18,606
714,41	15,594
714,60	12,529
714,79	10,237
714,99	7,599
715,18	7,103
715,37	4,649
715,56	4,000
715,75	3,784
715,94	2,187
716,14	1,154
716,33	4,143
716,52	2,028
716,71	1,247
716,90	1,846
717,10	5,729
717,29	4,652
717,48	2,381
717,67	3,444
717,86	2,918
718,05	3,744
718,24	2,371
718,44	6,903
718,63	3,827
718,82	3,769
719,01	2,090
719,20	2,464
719,39	5,154
719,59	2,533
719,78	1,516
719,97	4,135
720,16	3,501
720,35	3,977
720,54	4,570
720,73	4,465
720,93	5,641
721,12	1,297
721,31	5,029
721,50	5,185
721,69	4,176
721,88	3,436
722,07	3,639
722,27	0,312
722,46	-0,331
722,65	2,430
722,84	5,130
723,03	6,030
723,22	5,610
723,41	7,177
723,60	1,936
723,79	8,424
723,99	5,601
724,18	5,624
724,37	0,975
724,56	3,051
724,75	2,500
724,94	5,783
725,13	6,272
725,32	4,509
725,51	3,584
725,71	6,222
725,90	4,015
726,09	1,521
726,28	7,156
726,47	3,768
726,66	-0,876
726,85	1,558
727,04	8,016
727,23	6,055
727,42	1,793
727,61	6,237
727,81	3,684
728,00	2,608
728,19	2,328
728,38	2,885
728,57	7,634
728,76	5,139
728,95	4,699
729,14	7,181
729,33	4,983
729,52	8,914
729,71	3,260
729,90	4,657
730,09	3,550
730,28	2,837
730,48	4,600
730,67	8,706
730,86	3,691
731,05	2,577
731,24	2,591
731,43	7,491
731,62	5,926
731,81	5,378
732,00	4,732
732,19	4,511
732,38	9,697
732,57	4,146
732,76	-2,537
732,95	4,493
733,14	8,226
733,33	1,667
733,52	2,168
733,71	1,995
733,90	7,469
734,09	5,207
734,28	10,892
734,47	2,353
734,66	6,592
734,85	3,103
735,04	9,039
735,23	8,449
735,42	6,099
735,61	6,925
735,81	7,102
736,00	-1,805
736,19	2,249
736,38	7,820
736,57	5,380
736,76	4,713
736,95	2,871
737,14	9,969
737,33	2,181
737,52	-0,152
737,71	13,415
737,90	8,786
738,09	1,897
738,28	5,357
738,47	6,431
738,66	6,780
738,85	-1,890
739,04	4,992
739,22	6,518
739,41	1,745
739,60	1,077
739,79	4,085
739,98	12,053
740,17	9,797
740,36	11,364
740,55	6,922
740,74	4,461
740,93	12,310
741,12	9,689
741,31	-3,272
741,50	10,453
741,69	2,403
741,88	9,632
742,07	7,951
742,26	2,294
742,45	4,348
742,64	-0,612
742,83	9,011
743,02	6,426
743,21	-0,451
743,40	6,897
743,59	7,466
743,78	-4,641
743,97	13,283
744,16	1,509
744,34	8,678
744,53	6,034
744,72	11,890
744,91	5,749
745,10	1,379
745,29	6,103
745,48	8,297
745,67	10,444
745,86	2,075
746,05	16,331
746,24	9,914
746,43	13,605
746,62	6,706
746,81	4,502
747,00	11,250
747,18	9,545
747,37	1,136
747,56	14,188
747,75	1,279
747,94	6,566
748,13	13,551
748,32	9,512
748,51	12,881
748,70	11,990
748,89	3,763
749,08	18,966
749,26	15,733
749,45	13,115
749,64	12,661
749,83	9,828
750,02	6,434
750,21	9,896
750,40	4,749
750,59	5,585
750,78	16,145
750,96	13,217
751,15	10,456
751,34	14,496
751,53	9,167
751,72	9,383
751,91	7,087
752,10	4,225
752,29	6,377
752,47	9,483
752,66	9,467
752,85	18,783
753,04	-1,351
753,23	16,294
753,42	12,718
753,61	17,629
753,80	-6,607
753,98	11,250
754,17	12,465
754,36	4,248
754,55	12,704
754,74	18,649
754,93	5,161
755,12	15,385
755,30	1,107
755,49	4,985
755,68	17,534
755,87	13,311
756,06	13,256
756,25	4,290
756,43	10,791
756,62	5,776
756,81	-11,765
757,00	16,484
757,19	17,178
757,38	18,241
757,56	21,959
757,75	1,527
757,94	17,241
758,13	21,975
758,32	7,576
758,51	19,355
758,69	22,756
758,88	17,049
759,07	31,673
759,26	9,184
759,45	10,357
759,63	-6,324
759,82	12,774
760,01	6,250
760,20	9,854
760,39	8,046
760,57	11,159
760,76	5,725
760,95	-4,215
761,14	4,615
761,33	21,094
761,51	18,148
761,70	24,138
761,89	24,419
762,08	15,517
762,27	9,135
762,45	7,547
762,64	13,274
762,83	20,446
763,02	4,152
763,21	22,535
763,39	3,620
763,58	15,102
763,77	26,596
763,96	30,409
764,14	0,415
764,33	31,203
764,52	30,804
764,71	3,941
764,89	23,311
765,08	18,727
765,27	8,911
765,46	8,636
765,65	24,873
765,83	13,810
766,02	9,890
766,21	8,861
766,40	31,163
766,58	24,887
766,77	-6,215
766,96	5,128
767,15	19,324
767,33	-1,923
767,52	7,583
767,71	11,111
767,90	13,750
768,08	19,742
768,27	19,070
768,46	-4,762
768,64	0,971
768,83	32,973
769,02	12,857
769,21	0,000
769,39	-0,671
769,58	32,500
769,77	17,391
769,96	31,788
770,14	25,954
770,33	-6,952
770,52	14,744
770,70	-4,455
770,89	21,429
771,08	-1,563
771,27	3,093
771,45	39,884
771,64	18,421
771,83	27,957
772,01	-3,053
772,20	23,232
772,39	30,573
772,57	33,333
772,76	25,517
772,95	0,000
773,14	41,279
773,32	7,143
773,51	26,977
773,70	25,828
773,88	24,121
774,07	25,941
774,26	24,390
774,44	24,623
774,63	22,152
774,82	34,337
775,00	22,271
775,19	19,540
775,38	16,667
775,56	11,585
775,75	27,545
775,94	5,224
776,12	24,167
776,31	14,371
776,50	18,788
776,68	27,778
776,87	5,594
777,06	22,603
777,24	-8,197
777,43	36,585
777,62	17,037
777,80	27,174
777,99	12,102
778,18	19,745
778,36	19,084
778,55	24,444
778,74	0,758
778,92	30,769
779,11	44,516
779,29	-4,575
779,48	25,620
779,67	42,446
779,85	42,400
780,04	29,577
780,23	9,091
780,41	13,529
780,60	2,924
780,79	25,694
780,97	33,571
781,16	36,800
781,34	25,000
781,53	36,538
781,72	15,741
781,90	21,154
782,09	15,574
782,28	23,577
782,46	34,959
782,65	13,287
782,83	40,458
783,02	28,800
783,21	49,612
783,39	32,051
783,58	48,667
783,76	-20,270
783,95	14,570
784,14	-11,579
784,32	11,927
784,51	14,607
784,69	19,745
784,88	35,484
785,06	54,610
785,25	32,331
785,44	28,378
785,62	22,143
785,81	32,090
785,99	4,762
786,18	57,377
786,37	36,552
786,55	7,463
786,74	42,857
786,92	24,419
787,11	24,000
787,29	-21,176
787,48	-4,000
787,67	-32,653
787,85	12,500
788,04	0,000
788,22	21,296
788,41	51,974
788,59	55,102
788,78	33,333
788,96	8,571
789,15	32,787
789,34	42,683
789,52	-4,478
789,71	-22,222
789,89	21,053
790,08	8,824
790,26	29,365
790,45	48,905
790,63	35,526
790,82	23,387
791,00	15,873
791,19	1,429
791,38	8,219
791,56	17,105
791,75	41,892
791,93	-18,627
792,12	-1,515
792,30	20,395
792,49	7,477
792,67	25,714
792,86	-25,676
793,04	10,317
793,23	47,368
793,41	21,290
793,60	19,620
793,78	39,597
793,97	-1,724
794,15	41,176
794,34	28,571
794,52	3,101
794,71	24,074
794,89	18,571
795,08	44,231
795,26	23,000
795,45	8,511
795,63	13,836
795,82	35,294
796,00	12,308
796,19	27,273
796,37	15,254
796,56	-33,333
796,74	22,656
796,93	27,731
797,11	11,667
797,30	39,695
797,48	29,371
797,67	27,419
797,85	28,986
798,04	31,532
798,22	44,604
798,41	79,661
798,59	33,571
798,77	21,368
798,96	16,935
799,14	68,519
799,33	21,239
799,51	7,921
799,70	20,879
799,88	22,018
800,07	20,863
800,25	47,328
800,44	28,713
800,62	25,899
800,80	26,136
800,99	11,538
801,17	42,759
801,36	12,500
801,54	36,434
801,73	52,273
801,91	51,685
802,10	14,118
802,28	25,197
802,46	33,871
802,65	45,695
802,83	7,438
803,02	44,898
803,20	55,932
803,39	21,101
803,57	-4,225
803,75	-7,143
803,94	47,973
804,12	32,919
804,31	63,462
804,49	5,806
804,67	-18,018
804,86	34,161
805,04	20,930
805,23	39,416
805,41	26,471
805,59	24,699
805,78	7,857
805,96	46,988
806,15	42,400
806,33	-11,679
806,51	42,949
806,70	-34,884
806,88	-12,727
807,07	33,607
807,25	9,565
807,43	3,333
807,62	44,531
807,80	34,756
807,99	30,935
808,17	22,222
808,35	4,717
808,54	18,436
808,72	35,256
808,90	26,829
809,09	11,679
809,27	53,398
809,46	4,673
809,64	42,197
809,82	6,897
810,01	27,419
810,19	-10,909
810,37	29,545
810,56	3,311
810,74	43,396
810,92	16,197
811,11	16,564
811,29	22,360
811,48	3,478
811,66	11,675
811,84	-5,932
812,03	0,000
812,21	35,758
812,39	37,903
812,58	36,257
812,76	26,277
812,94	36,242
813,13	9,146
813,31	15,344
813,49	38,667
813,68	9,836
813,86	35,897
814,04	25,225
814,23	6,154
814,41	33,562
814,59	13,725
814,78	31,544
814,96	22,346
815,14	27,638
815,33	26,446
815,51	29,134
815,69	25,954
815,87	15,484
816,06	23,881
816,24	0,654
816,42	29,167
816,61	20,370
816,79	12,139
816,97	19,231
817,16	25,000
817,34	19,412
817,52	33,178
817,70	17,098
817,89	32,536
818,07	16,667
818,25	25,316
818,44	22,995
818,62	14,356
818,80	-0,549
818,98	8,205
819,17	22,458
819,35	14,094
819,53	17,436
819,72	15,135
819,90	33,333
820,08	37,624
820,26	7,763
820,45	16,129
820,63	7,018
820,81	15,138
820,99	18,341
821,18	16,265
821,36	-3,750
821,54	26,368
821,73	14,208
821,91	14,085
822,09	39,053
822,27	21,012
822,46	19,212
822,64	-5,263
822,82	26,396
823,00	4,712
823,19	9,524
823,37	27,350
823,55	16,456
823,73	23,596
823,91	-1,604
824,10	8,854
824,28	8,678
824,46	-34,868
824,64	20,295
824,83	23,697
825,01	-3,529
825,19	12,664
825,37	-1,471
825,56	20,611
825,74	15,584
825,92	19,066
826,10	27,313
826,28	15,129
826,47	26,459
826,65	22,302
826,83	24,123
827,01	19,685
827,19	22,481
827,38	17,978
827,56	14,000
827,74	12,322
827,92	20,488
828,10	6,250
828,29	9,963
828,47	14,234
828,65	12,500
828,83	-13,502
829,01	1,802
829,20	9,231
829,38	7,787
829,56	14,141
829,74	6,154
829,92	2,429
830,10	0,000
830,29	10,345
830,47	12,687
830,65	-4,184
830,83	32,653
831,01	10,762
831,20	-8,029
831,38	-1,303
831,56	7,719
831,74	16,271
831,92	21,245
832,10	22,785
832,29	15,901
832,47	14,894
832,65	15,082
832,83	20,253
833,01	14,804
833,19	11,080
833,37	8,511
833,56	14,583
833,74	11,803
833,92	20,608
834,10	3,916
834,28	4,530
834,46	18,497
834,64	20,533
834,83	0,850
835,01	15,405
835,19	11,348
835,37	16,667
835,55	17,847
835,73	16,384
835,91	7,965
836,09	0,329
836,28	4,573
836,46	2,950
836,64	17,848
836,82	12,088
837,00	-3,195
837,18	8,000
837,36	10,264
837,54	12,568
837,72	3,797
837,91	13,881
838,09	0,000
838,27	0,777
838,45	11,233
838,63	3,662
838,81	0,608
838,99	3,448
839,17	-3,416
839,35	18,510
839,53	6,888
839,72	9,615
839,90	7,556
840,08	2,824
840,26	6,037
840,44	11,959
840,62	-4,582
840,80	13,626
840,98	13,870
841,16	-4,620
841,34	5,229
841,52	2,609
841,70	0,248
841,89	7,517
842,07	2,529
842,25	15,723
842,43	7,786
842,61	11,820
842,79	4,535
842,97	3,661
843,15	4,384
843,33	13,786
843,51	6,739
843,69	10,742
843,87	18,347
844,05	2,160
844,23	6,237
844,41	19,682
844,59	6,432
844,77	8,041
844,95	6,926
845,13	12,000
845,31	7,269
845,50	13,872
845,68	-0,428
845,86	3,252
846,04	14,236
846,22	12,105
846,40	2,273
846,58	10,757
846,76	8,316
846,94	-1,193
847,12	6,731
847,30	10,507
847,48	3,461
847,66	-6,996
847,84	9,894
848,02	5,331
848,20	7,910
848,38	14,464
848,56	8,977
848,74	3,825
848,92	9,622
849,10	15,141
849,28	7,087
849,46	0,370
849,64	13,488
849,82	12,780
850,00	4,722
850,18	3,328
850,36	2,980
850,54	8,466
850,72	7,788
850,90	9,020
851,08	4,882
851,26	-1,942
851,44	3,554
851,62	9,105
851,80	2,259
851,98	8,446
852,16	11,510
852,34	6,620
852,52	2,071
852,70	9,869
852,87	-0,873
853,05	8,166
853,23	1,622
853,41	9,859
853,59	6,638
853,77	5,523
853,95	5,605
854,13	0,852
854,31	2,291
854,49	2,813
854,67	12,940
854,85	4,717
855,03	11,139
855,21	6,746
855,39	8,973
855,57	8,123
855,75	4,914
855,93	-1,404
856,11	9,339
856,28	0,799
856,46	2,763
856,64	2,857
856,82	6,765
857,00	6,726
857,18	1,722
857,36	6,095
857,54	5,968
857,72	7,799
857,90	2,596
858,08	1,953
858,26	4,637
858,44	2,509
858,61	10,395
858,79	6,794
858,97	11,054
859,15	6,972
859,33	4,444
859,51	8,208
859,69	4,773
859,87	4,595
860,05	-3,690
860,23	3,206
860,40	3,497
860,58	-1,665
860,76	2,283
860,94	0,107
861,12	3,102
861,30	4,697
861,48	2,896
861,66	3,653
861,84	4,437
862,01	3,203
862,19	3,760
862,37	3,034
862,55	4,150
862,73	0,000
862,91	7,136
863,09	2,361
863,27	3,302
863,44	2,216
863,62	4,397
863,80	8,488
863,98	5,341
864,16	6,369
864,34	4,391
864,52	5,530
864,69	6,124
864,87	2,551
865,05	6,843
865,23	2,222
865,41	-1,885
865,59	5,531
865,76	3,473
865,94	4,880
866,12	2,087
866,30	6,596
866,48	6,997
866,66	1,739
866,83	5,656
867,01	7,061
867,19	3,627
867,37	7,069
867,55	3,486
867,73	1,245
867,90	4,959
868,08	7,763
868,26	1,474
868,44	0,585
868,62	7,990
868,79	1,759
868,97	4,147
869,15	1,511
869,33	4,531
869,51	5,739
869,69	0,242
869,86	1,508
870,04	5,524
870,22	5,605
870,40	7,088
870,57	6,111
870,75	1,674
870,93	2,066
871,11	5,756
871,29	0,299
871,46	2,462
871,64	3,779
871,82	-1,131
872,00	3,840
872,18	2,296
872,35	-0,074
872,53	6,767
872,71	-0,143
872,89	0,221
873,06	-0,145
873,24	3,615
873,42	6,186
873,60	1,409
873,77	1,663
873,95	4,106
874,13	2,632
874,31	1,927
874,49	1,989
874,66	6,702
874,84	4,878
875,02	7,336
875,20	5,336
875,37	7,461
875,55	3,966
875,73	6,757
875,91	6,266
876,08	4,777
876,26	8,267
876,44	7,494
876,61	9,521
876,79	7,028
876,97	11,357
877,15	15,315
877,32	12,619
877,50	15,649
877,68	17,837
877,86	13,844
878,03	17,518
878,21	15,183
878,39	15,590
878,56	13,764
878,74	15,694
878,92	13,859
879,10	13,595
879,27	13,083
879,45	11,981
879,63	10,521
879,80	12,043
879,98	10,237
880,16	9,732
880,34	9,883
880,51	12,900
880,69	10,175
880,87	9,329
881,04	10,498
881,22	9,209
881,40	8,842
881,57	8,020
881,75	10,064
881,93	10,236
882,10	11,631
882,28	12,395
882,46	10,954
882,63	11,960
882,81	11,895
882,99	11,767
883,16	16,174
883,34	17,419
883,52	15,993
883,69	21,024
883,87	21,481
884,05	25,513
884,22	26,036
884,40	31,110
884,58	31,011
884,75	35,520
884,93	38,541
885,11	44,082
885,28	48,227
885,46	48,678
885,64	48,345
885,81	48,322
885,99	53,035
886,17	51,095
886,34	48,029
886,52	48,653
886,70	43,615
886,87	41,793
887,05	37,712
887,22	33,207
887,40	32,204
887,58	28,423
887,75	26,302
887,93	23,192
888,11	20,745
888,28	20,808
888,46	19,170
888,63	17,065
888,81	16,654
888,99	14,660
889,16	13,889
889,34	14,505
889,51	13,605
889,69	13,465
889,87	12,645
890,04	10,867
890,22	10,605
890,39	11,233
890,57	11,712
890,75	10,929
890,92	11,035
891,10	10,860
891,27	11,234
891,45	12,011
891,63	11,535
891,80	10,785
891,98	11,284
892,15	12,484
892,33	12,088
892,51	12,168
892,68	13,050
892,86	14,264
893,03	13,860
893,21	16,003
893,38	14,643
893,56	17,623
893,74	19,903
893,91	19,883
894,09	21,383
894,26	23,692
894,44	24,985
894,61	26,681
894,79	26,786
894,96	29,312
895,14	29,938
895,32	30,554
895,49	33,930
895,67	31,642
895,84	31,149
896,02	33,382
896,19	29,921
896,37	29,093
896,54	29,847
896,72	26,851
896,89	25,188
897,07	23,107
897,25	22,467
897,42	21,124
897,60	18,738
897,77	17,146
897,95	15,680
898,12	14,951
898,30	13,739
898,47	11,087
898,65	12,138
898,82	10,300
899,00	10,586
899,17	8,847
899,35	9,351
899,52	9,963
899,70	7,608
899,87	8,197
900,05	8,590
900,22	8,320
900,40	6,031
900,57	6,771
900,75	6,188
900,92	5,319
901,10	5,134
901,27	4,959
901,45	5,321
901,62	5,717
901,80	4,917
901,97	5,839
902,15	4,880
902,32	5,145
902,50	5,186
902,67	4,850
902,85	4,533
903,02	4,982
903,20	4,722
903,37	6,192
903,54	5,046
903,72	4,342
903,89	4,951
904,07	4,005
904,24	3,953
904,42	5,085
904,59	6,106
904,77	6,244
904,94	6,382
905,12	7,079
905,29	6,026
905,47	5,779
905,64	7,296
905,81	7,363
905,99	7,325
906,16	8,347
906,34	6,699
906,51	7,529
906,69	8,408
906,86	10,658
907,03	8,228
907,21	10,007
907,38	8,622
907,56	9,020
907,73	11,541
907,91	12,291
908,08	13,453
908,25	12,578
908,43	15,473
908,60	16,312
908,78	17,675
908,95	17,827
909,13	19,100
909,30	21,095
909,47	22,387
909,65	23,053
909,82	22,232
910,00	21,985
910,17	23,318
910,34	24,584
910,52	23,002
910,69	22,053
910,87	24,599
911,04	22,745
911,21	23,862
911,39	23,921
911,56	22,623
911,73	21,140
911,91	19,644
912,08	19,828
912,26	19,928
912,43	19,093
912,60	17,301
912,78	16,534
912,95	15,741
913,13	14,749
913,30	14,043
913,47	13,561
913,65	12,208
913,82	12,525
913,99	12,035
914,17	12,646
914,34	9,949
914,51	11,408
914,69	10,050
914,86	11,142
915,03	11,287
915,21	9,294
915,38	10,346
915,56	9,744
915,73	8,674
915,90	8,533
916,08	10,372
916,25	10,294
916,42	9,897
916,60	9,151
916,77	8,665
916,94	9,084
917,12	8,292
917,29	8,638
917,46	9,002
917,64	9,591
917,81	10,202
917,98	9,421
918,16	10,814
918,33	10,835
918,50	10,366
918,67	11,007
918,85	11,407
919,02	11,051
919,19	11,478
919,37	11,757
919,54	11,966
919,71	12,276
919,89	13,554
920,06	14,202
920,23	13,606
920,41	14,252
920,58	15,710
920,75	17,477
920,92	17,700
921,10	17,881
921,27	19,114
921,44	20,863
921,62	20,794
921,79	22,582
921,96	26,206
922,13	25,945
922,31	28,965
922,48	28,530
922,65	31,848
922,82	32,660
923,00	35,366
923,17	37,637
923,34	40,482
923,52	41,917
923,69	44,025
923,86	45,954
924,03	48,937
924,21	50,276
924,38	50,144
924,55	52,433
924,72	54,725
924,90	55,704
925,07	57,418
925,24	57,326
925,41	58,033
925,59	56,619
925,76	57,499
925,93	56,459
926,10	56,642
926,28	53,180
926,45	53,407
926,62	51,331
926,79	50,497
926,96	47,831
927,14	48,378
927,31	46,873
927,48	44,490
927,65	45,519
927,83	42,827
928,00	42,262
928,17	40,159
928,34	40,524
928,51	38,232
928,69	38,240
928,86	37,849
929,03	38,164
929,20	36,925
929,37	37,176
929,55	36,858
929,72	35,325
929,89	35,208
930,06	34,929
930,23	35,799
930,41	35,946
930,58	37,018
930,75	35,336
930,92	36,423
931,09	37,896
931,27	38,250
931,44	38,521
931,61	38,197
931,78	38,746
931,95	40,651
932,12	40,320
932,30	40,729
932,47	43,374
932,64	43,169
932,81	45,180
932,98	45,771
933,16	46,640
933,33	48,817
933,50	49,603
933,67	51,343
933,84	53,063
934,01	53,448
934,18	54,613
934,36	53,894
934,53	58,179
934,70	58,216
934,87	59,074
935,04	59,825
935,21	61,036
935,38	60,539
935,56	62,051
935,73	62,577
935,90	62,262
936,07	62,899
936,24	63,853
936,41	61,470
936,58	62,624
936,76	62,364
936,93	61,808
937,10	60,863
937,27	59,961
937,44	59,658
937,61	60,027
937,78	56,251
937,95	57,915
938,13	56,523
938,30	54,777
938,47	53,165
938,64	52,592
938,81	51,466
938,98	51,095
939,15	49,448
939,32	48,125
939,49	49,628
939,66	47,919
939,84	47,403
940,01	47,154
940,18	45,961
940,35	44,266
940,52	43,182
940,69	43,264
940,86	43,984
941,03	42,940
941,20	43,174
941,37	41,754
941,54	43,007
941,71	41,496
941,89	40,462
942,06	40,911
942,23	40,793
942,40	41,359
942,57	42,305
942,74	42,057
942,91	42,797
943,08	44,461
943,25	43,136
943,42	43,828
943,59	43,834
943,76	46,249
943,93	45,316
944,10	46,462
944,27	46,603
944,44	46,641
944,61	48,909
944,79	49,564
944,96	49,983
945,13	51,599
945,30	53,340
945,47	53,047
945,64	54,860
945,81	54,761
945,98	57,272
946,15	57,461
946,32	56,777
946,49	60,817
946,66	60,423
946,83	61,339
947,00	62,404
947,17	64,742
947,34	64,451
947,51	64,942
947,68	66,620
947,85	67,724
948,02	65,292
948,19	68,707
948,36	65,072
948,53	65,060
948,70	65,756
948,87	64,301
949,04	63,690
949,21	64,275
949,38	62,057
949,55	60,390
949,72	61,152
949,89	59,071
950,06	59,301
950,23	58,319
950,40	54,926
950,57	53,722
950,74	53,237
950,91	51,952
951,08	51,899
951,25	49,114
951,42	49,101
951,59	44,925
951,76	45,948
951,93	44,796
952,10	43,613
952,27	40,097
952,44	43,890
952,61	43,116
952,77	41,726
952,94	40,256
953,11	38,303
953,28	39,243
953,45	38,929
953,62	36,791
953,79	37,926
953,96	37,318
954,13	37,453
954,30	35,353
954,47	34,933
954,64	36,320
954,81	32,607
954,98	36,581
955,15	34,358
955,32	35,766
955,49	35,375
955,65	36,379
955,82	34,937
955,99	35,564
956,16	37,000
956,33	33,923
956,50	34,815
956,67	35,414
956,84	35,501
957,01	37,641
957,18	36,470
957,35	38,118
957,52	36,859
957,68	37,880
957,85	35,919
958,02	38,971
958,19	37,309
958,36	44,075
958,53	43,271
958,70	42,017
958,87	43,285
959,04	45,992
959,21	44,297
959,37	43,578
959,54	47,475
959,71	44,633
959,88	48,236
960,05	49,551
960,22	49,657
960,39	50,390
960,56	51,327
960,72	54,077
960,89	56,100
961,06	51,982
961,23	48,035
961,40	56,934
961,57	47,711
961,74	56,501
961,90	50,614
962,07	54,076
962,24	58,595
962,41	49,071
962,58	53,400
962,75	49,704
962,92	50,341
963,08	45,300
963,25	44,668
963,42	43,873
963,59	43,908
963,76	47,943
963,93	39,309
964,10	43,170
964,26	38,051
964,43	40,437
964,60	35,651
964,77	41,807
964,94	38,154
965,10	42,320
965,27	33,277
965,44	36,833
965,61	30,309
965,78	36,555
965,95	30,875
966,11	32,359
966,28	38,242
966,45	31,238
966,62	21,368
966,79	30,894
966,95	20,905
967,12	27,512
967,29	27,804
967,46	27,391
967,63	27,407
967,79	6,793
967,96	9,449
968,13	27,273
968,30	33,880
968,47	20,844
968,63	29,290
968,80	33,448
968,97	34,857
969,14	23,599
969,31	29,167
969,47	32,177
969,64	37,954
969,81	32,982
969,98	29,825
970,14	25,926
970,31	27,240
970,48	26,335
970,65	39,789
970,81	21,088
970,98	49,813
971,15	41,014
971,32	20,763
971,48	33,824
971,65	37,395
971,82	35,714
971,99	30,348
972,15	41,053
972,32	25,926
972,49	21,888
972,66	21,239
972,82	30,693
972,99	58,298
973,16	59,794
973,33	18,095
973,49	40,000
973,66	48,739
973,83	38,095
974,00	42,623
974,16	52,830
974,33	42,683
974,50	29,861
974,67	34,211
974,83	50,282
975,00	65,217
975,17	55,102
975,33	46,377
975,50	73,333
975,67	32,143
975,84	59,574
976,00	39,231
976,17	73,529
976,34	45,390
976,50	54,783
976,67	63,793
976,84	75,641
977,00	51,128
977,17	63,780
977,34	90,323
977,50	55,319
977,67	61,404
977,84	18,182
978,01	75,862
978,17	115,385
978,34	70,833
978,51	74,242
978,67	54,945
978,84	87,500
979,01	-1,538
979,17	63,636
979,34	93,750
979,51	121,154
979,67	81,250
979,84	75,000
980,01	55,738
980,17	37,647
980,34	101,449
980,51	143,182
980,67	74,667
980,84	68,966
981,01	10,256
981,17	120,000
981,34	612,500
981,50	51,471
981,67	155,172
981,84	96,552
982,00	130,435
982,17	295,455
982,34	64,103
982,50	231,579
982,67	77,778
982,84	52,381
983,00	130,000
983,17	45,833
983,33	140,323
983,50	32,609
983,67	80,435
983,83	283,333
984,00	165,625
984,17	35,000
984,33	122,973
984,50	62,500
984,66	189,286
984,83	77,907
985,00	136,066
985,16	-20,513
985,33	318,750
985,49	234,483
985,66	130,303
985,83	64,912
985,99	121,622
986,16	316,000
986,32	121,739
986,49	633,333
986,66	-30,233
986,82	100,000
986,99	119,048
987,15	172,414
987,32	162,963
987,49	222,222
987,65	590,000
987,82	17,647
987,98	47,059
988,15	78,571
988,31	86,000
988,48	-170,833
988,65	266,667
988,81	121,739
988,98	333,333
989,14	191,837
989,31	296,667
989,47	78,049
989,64	58,571
989,80	60,000
989,97	169,118
990,14	-17,391
990,30	177,500
990,47	107,317
990,63	286,957
990,80	181,818
990,96	270,833
991,13	116,667
991,29	90,196
991,46	194,118
991,62	147,059
991,79	84,211
991,95	340,000
992,12	88,372
992,29	112,000
992,45	-130,769
992,62	-240,000
992,78	-85,185
992,95	138,889
993,11	156,667
993,28	44,444
993,44	278,261
993,61	1366,667
993,77	660,000
993,94	176,744
994,10	338,095
994,27	260,000
994,43	244,118
994,60	-157,576
994,76	57,895
994,93	154,545
995,09	-89,189
995,26	118,519
995,42	113,559
995,59	342,857
995,75	171,875
995,92	272,727
996,08	183,333
996,25	200,000
996,41	70,833
996,58	164,865
996,74	150,000
996,91	266,667
997,07	134,615
997,23	197,872
997,40	1633,333
997,56	60,000
997,73	0,000
997,89	162,963
998,06	-50,980
998,22	-100,000
998,39	195,652
998,55	-50,000
998,72	300,000
998,88	1400,000
999,05	84,615
999,21	139,130
999,37	-5400,000
999,54	-2900,000
999,70	230,769
999,87	-81,250
1000,03	46,875
1000,20	-483,333
1000,36	1900,000
1000,52	238,889
1000,69	129,545
1000,85	234,483
1001,02	110,769
1001,18	120,455
1001,35	-26,667
1001,51	-271,429
1001,67	-0,000
1001,84	233,333
1002,00	147,500
1002,17	-122,727
1002,33	52,941
1002,50	-100,000
1002,66	2600,000
1002,82	111,429
1002,99	-242,308
1003,15	134,783
1003,32	241,935
1003,48	-200,000
1003,64	55,000
1003,81	-64,286
1003,97	113,636
1004,14	1366,667
1004,30	-771,429
1004,46	50,000
1004,63	78,947
1004,79	-40,000
1004,95	67,647
1005,12	-28,571
1005,28	286,207
1005,45	80,769
1005,61	-2566,667
1005,77	205,263
1005,94	90,323
1006,10	-5000,000
1006,26	60,714
1006,43	333,333
1006,59	55,556
1006,76	16,000
1006,92	520,000
1007,08	780,000
1007,25	-52,778
1007,41	-133,333
1007,57	-106,250
1007,74	-17,391
1007,90	-640,000
1008,06	231,429
1008,23	157,407
1008,39	-650,000
1008,55	-392,857
1008,72	506,250
1008,88	76,000
1009,04	232,000
1009,21	-0,000
1009,37	137,500
1009,53	-231,579
1009,70	-307,692
1009,86	102,273
1010,02	138,462
1010,19	0,000
1010,35	268,750
1010,51	955,556
1010,68	600,000
1010,84	-1033,333
1011,00	57,778
1011,17	-1000,000
1011,33	164,706
1011,49	93,750
1011,66	339,130
1011,82	-116,981
1011,98	-90,909
1012,14	89,394
1012,31	-780,000
1012,47	1333,333
1012,63	300,000
1012,80	68,000
1012,96	-581,818
1013,12	39,535
1013,29	89,474
1013,45	62,222
1013,61	-322,222
1013,77	105,556
1013,94	246,875
1014,10	18,182
1014,26	1450,000
1014,43	-127,273
1014,59	-225,000
1014,75	400,000
1014,91	1900,000
1015,08	213,333
1015,24	-933,333
1015,40	-182,353
1015,56	66,667
1015,73	195,556
1015,89	71,429
1016,05	880,000
1016,21	-377,778
1016,38	760,000
1016,54	115,385
1016,70	-122,222
1016,86	224,242
1017,03	133,333
1017,19	234,783
1017,35	-261,538
1017,51	148,571
1017,68	72,727
1017,84	4600,000
1018,00	585,714
1018,16	125,000
1018,33	-500,000
1018,49	134,146
1018,65	-200,000
1018,81	10,000
1018,97	-375,000
1019,14	103,333
1019,30	225,000
1019,46	366,667
1019,62	300,000
1019,79	116,667
1019,95	116,667
1020,11	-857,143
1020,27	341,667
1020,43	-857,143
1020,60	-68,421
1020,76	-322,222
1020,92	457,143
1021,08	5300,000
1021,24	140,000
1021,41	-76,471
1021,57	290,909
1021,73	-1075,000
1021,89	-221,429
1022,05	850,000
1022,21	179,487
1022,38	-340,000
1022,54	1250,000
1022,70	-127,273
1022,86	1350,000
1023,02	-47,059
1023,19	-22,222
1023,35	225,806
1023,51	164,286
1023,67	54,167
1023,83	1200,000
1023,99	-72,222
1024,16	169,048
1024,32	-28,000
1024,48	168,182
1024,64	444,444
1024,80	-91,667
1024,96	131,034
1025,12	-250,000
1025,29	96,429
1025,45	47,222
1025,61	-2700,000
1025,77	-0,000
1025,93	220,000
1026,09	73,171
1026,26	284,211
1026,42	-43,750
1026,58	-217,391
1026,74	100,000
1026,90	311,111
1027,06	-41,026
1027,22	-173,913
1027,38	100,000
1027,55	1366,667
1027,71	306,667
1027,87	-87,500
1028,03	-193,750
1028,19	-164,706
1028,35	-771,429
1028,51	256,000
1028,67	111,765
1028,83	162,222
1029,00	150,000
1029,16	105,405
1029,32	50,000
1029,48	200,000
1029,64	-92,308
1029,80	159,091
1029,96	433,333
1030,12	110,526
1030,28	-2250,000
1030,44	820,000
1030,61	86,364
1030,77	-700,000
1030,93	-187,500
1031,09	550,000
1031,25	0,000
1031,41	370,000
1031,57	-725,000
1031,73	-1375,000
1031,89	-100,000
1032,05	-123,256
1032,21	-48,485
1032,37	75,000
1032,53	-96,552
1032,69	111,538
1032,86	-250,000
1033,02	-433,333
1033,18	358,333
1033,34	-1350,000
1033,50	362,500
1033,66	60,000
1033,82	0,000
1033,98	1350,000
1034,14	-400,000
1034,30	-140,000
1034,46	185,294
1034,62	146,154
1034,78	-247,826
1034,94	158,065
1035,10	-400,000
1035,26	311,111
1035,42	3,333
1035,58	204,167
1035,74	75,676
1035,90	131,250
1036,06	86,275
1036,22	172,727
1036,38	-106,250
1036,54	-43,750
1036,70	-22,581
1036,86	80,000
1037,02	-100,000
1037,18	-100,000
1037,34	677,778
1037,50	-40,000
1037,66	-5800,000
1037,82	438,095
1037,98	625,000
1038,14	-1425,000
1038,30	179,310
1038,46	-271,429
1038,62	488,889
1038,78	-357,143
1038,94	60,000
1039,10	120,000
1039,26	-41,667
1039,42	210,870
1039,58	-725,000
1039,74	-300,000
1039,90	-316,667
1040,06	29,231
>>>>>End Processed Spectral Data<<<<<
