SpectraSuite Data File
++++++++++++++++++++++++++++++++++++
Date: Tue Jan 31 18:41:40 EET 2017
User: optolab
Dark Spectrum Present: Yes
Reference Spectrum Present: Yes
Number of Sampled Component Spectra: 1
Spectrometers: USB4C02475
Integration Time (usec): 100000 (USB4C02475)
Spectra Averaged: 1 (USB4C02475)
Boxcar Smoothing: 0 (USB4C02475)
Correct for Electrical Dark: No (USB4C02475)
Strobe/Lamp Enabled: No (USB4C02475)
Correct for Detector Non-linearity: No (USB4C02475)
Correct for Stray Light: No (USB4C02475)
Number of Pixels in Processed Spectrum: 3648
>>>>>Begin Processed Spectral Data<<<<<
344,91	7,692
345,13	7,692
345,35	7,692
345,57	0,000
345,79	416,667
346,00	90,000
346,22	-66,667
346,44	84,615
346,66	1725,000
346,87	200,000
347,09	130,556
347,31	-1066,667
347,53	66,667
347,74	23,077
347,96	14,286
348,18	1833,333
348,40	-242,857
348,61	28,571
348,83	109,756
349,05	76,786
349,27	463,158
349,48	109,615
349,70	70,588
349,92	68,293
350,14	600,000
350,35	31,707
350,57	88,571
350,79	388,235
351,01	300,000
351,22	287,500
351,44	-650,000
351,66	138,462
351,87	47,436
352,09	215,152
352,31	168,750
352,53	155,556
352,74	52,381
352,96	120,930
353,18	100,000
353,40	67,391
353,61	146,667
353,83	583,333
354,05	30,303
354,26	121,429
354,48	-975,000
354,70	26,829
354,92	96,970
355,13	123,529
355,35	0,000
355,57	166,667
355,78	132,353
356,00	200,000
356,22	255,556
356,44	107,692
356,65	112,121
356,87	-7,143
357,09	56,667
357,30	50,794
357,52	171,429
357,74	-850,000
357,95	300,000
358,17	383,333
358,39	94,118
358,60	150,000
358,82	229,412
359,04	-162,500
359,26	128,125
359,47	226,087
359,69	86,486
359,91	92,308
360,12	253,846
360,34	99,029
360,56	124,138
360,77	885,714
360,99	38,462
361,21	12,500
361,42	96,875
361,64	223,077
361,86	81,250
362,07	65,385
362,29	7,353
362,51	157,692
362,72	59,459
362,94	228,571
363,16	375,000
363,37	82,258
363,59	144,828
363,81	-183,333
364,02	32,941
364,24	178,261
364,46	70,270
364,67	160,000
364,89	190,000
365,11	1550,000
365,32	71,084
365,54	335,714
365,76	62,069
365,97	-35,714
366,19	0,000
366,41	196,154
366,62	136,842
366,84	128,947
367,05	121,538
367,27	-288,889
367,49	168,293
367,70	700,000
367,92	119,355
368,14	0,000
368,35	119,718
368,57	110,256
368,79	164,706
369,00	0,000
369,22	-25,000
369,43	272,727
369,65	35,821
369,87	36,620
370,08	142,857
370,30	70,588
370,51	100,000
370,73	132,692
370,95	214,286
371,16	316,667
371,38	165,909
371,60	157,692
371,81	151,351
372,03	305,263
372,24	154,545
372,46	87,805
372,68	95,313
372,89	211,429
373,11	123,810
373,32	206,667
373,54	62,000
373,76	129,787
373,97	69,892
374,19	166,216
374,40	55,556
374,62	166,667
374,84	208,000
375,05	148,649
375,27	47,170
375,48	62,791
375,70	11,364
375,92	-45,833
376,13	31,111
376,35	933,333
376,56	77,333
376,78	33,333
376,99	70,130
377,21	-4800,000
377,43	70,833
377,64	215,789
377,86	126,087
378,07	63,333
378,29	6,452
378,51	202,564
378,72	113,333
378,94	44,118
379,15	168,571
379,37	83,929
379,58	78,571
379,80	42,308
380,01	700,000
380,23	157,895
380,45	144,231
380,66	116,667
380,88	-450,000
381,09	92,857
381,31	101,449
381,52	127,778
381,74	58,209
381,95	14,634
382,17	110,000
382,39	50,000
382,60	515,385
382,82	205,714
383,03	92,308
383,25	85,897
383,46	31,707
383,68	91,071
383,89	320,000
384,11	45,455
384,32	-100,000
384,54	126,667
384,76	4000,000
384,97	32,099
385,19	125,000
385,40	110,417
385,62	205,556
385,83	170,270
386,05	81,395
386,26	124,324
386,48	156,000
386,69	84,906
386,91	223,529
387,12	250,000
387,34	88,235
387,55	215,909
387,77	-33,333
387,98	-1114,286
388,20	51,613
388,41	146,154
388,63	165,116
388,84	164,615
389,06	133,333
389,27	60,714
389,49	112,500
389,70	77,381
389,92	51,562
390,13	-100,000
390,35	112,000
390,56	78,788
390,78	151,613
390,99	633,333
391,21	64,286
391,42	75,410
391,64	55,556
391,85	33,333
392,07	-10,000
392,28	58,750
392,50	107,018
392,71	100,000
392,93	70,270
393,14	-15,789
393,36	275,000
393,57	78,431
393,79	87,879
394,00	170,909
394,22	118,182
394,43	35,000
394,65	1300,000
394,86	98,485
395,08	26,027
395,29	62,791
395,50	187,500
395,72	5,556
395,93	110,417
396,15	77,465
396,36	94,340
396,58	177,778
396,79	14,545
397,01	106,024
397,22	266,667
397,44	-760,000
397,65	63,158
397,87	110,256
398,08	82,000
398,29	150,000
398,51	158,333
398,72	54,000
398,94	59,459
399,15	79,592
399,37	46,154
399,58	232,258
399,80	-59,375
400,01	69,565
400,22	61,224
400,44	286,667
400,65	0,000
400,87	59,016
401,08	78,947
401,30	39,000
401,51	40,909
401,72	39,535
401,94	95,161
402,15	30,508
402,37	181,818
402,58	88,889
402,80	5,357
403,01	93,617
403,22	35,000
403,44	52,500
403,65	281,818
403,87	76,923
404,08	50,769
404,30	-89,655
404,51	66,071
404,72	56,098
404,94	37,143
405,15	8,696
405,37	102,778
405,58	31,818
405,79	48,101
406,01	50,467
406,22	-7,317
406,44	45,918
406,65	26,027
406,86	41,414
407,08	122,222
407,29	12,360
407,51	50,000
407,72	118,519
407,93	54,362
408,15	-32,432
408,36	61,111
408,58	60,163
408,79	61,290
409,00	56,818
409,22	36,264
409,43	23,596
409,64	22,807
409,86	29,787
410,07	52,778
410,29	50,562
410,50	38,356
410,71	20,930
410,93	54,118
411,14	35,156
411,35	30,172
411,57	15,049
411,78	19,431
412,00	24,294
412,21	28,902
412,42	29,902
412,64	33,796
412,85	2,073
413,06	22,439
413,28	12,571
413,49	-14,205
413,70	19,495
413,92	8,240
414,13	11,583
414,34	10,046
414,56	33,226
414,77	11,742
414,98	24,776
415,20	19,537
415,41	1,254
415,63	2,134
415,84	16,258
416,05	11,893
416,27	10,628
416,48	6,000
416,69	11,594
416,91	11,585
417,12	8,009
417,33	6,413
417,55	0,881
417,76	13,563
417,97	14,911
418,19	5,052
418,40	11,071
418,61	4,803
418,83	8,423
419,04	7,967
419,25	7,516
419,46	7,862
419,68	5,706
419,89	7,715
420,10	6,030
420,32	2,915
420,53	4,391
420,74	12,618
420,96	4,124
421,17	4,171
421,38	6,476
421,60	3,838
421,81	4,946
422,02	3,939
422,23	5,091
422,45	6,736
422,66	1,271
422,87	3,228
423,09	2,103
423,30	2,276
423,51	4,496
423,73	3,650
423,94	3,540
424,15	-1,249
424,36	6,085
424,58	4,919
424,79	2,252
425,00	1,109
425,22	4,633
425,43	3,998
425,64	3,696
425,85	4,055
426,07	-0,099
426,28	4,990
426,49	3,375
426,71	0,137
426,92	1,768
427,13	1,489
427,34	3,354
427,56	2,243
427,77	2,101
427,98	0,157
428,19	0,329
428,41	2,142
428,62	0,363
428,83	1,270
429,04	1,234
429,26	0,830
429,47	1,828
429,68	1,391
429,89	0,031
430,11	1,814
430,32	1,574
430,53	0,663
430,74	1,754
430,96	0,625
431,17	0,900
431,38	1,455
431,59	1,720
431,81	0,232
432,02	0,389
432,23	0,904
432,44	2,423
432,66	1,254
432,87	0,744
433,08	0,541
433,29	-0,504
433,51	0,576
433,72	0,246
433,93	0,381
434,14	-0,328
434,35	1,420
434,57	-0,344
434,78	1,001
434,99	1,174
435,20	1,012
435,42	0,722
435,63	1,037
435,84	0,855
436,05	0,028
436,26	1,338
436,48	0,589
436,69	0,426
436,90	0,642
437,11	0,982
437,32	0,416
437,54	0,667
437,75	0,122
437,96	0,643
438,17	0,587
438,38	0,677
438,60	0,716
438,81	0,750
439,02	0,757
439,23	0,422
439,44	0,876
439,66	0,485
439,87	0,587
440,08	0,591
440,29	0,616
440,50	0,716
440,72	0,496
440,93	0,501
441,14	0,619
441,35	0,693
441,56	0,331
441,77	0,568
441,99	0,708
442,20	0,317
442,41	0,313
442,62	0,312
442,83	0,339
443,04	0,661
443,26	0,664
443,47	0,547
443,68	0,525
443,89	0,454
444,10	0,365
444,31	0,355
444,53	0,506
444,74	0,466
444,95	0,235
445,16	0,367
445,37	0,443
445,58	0,520
445,80	0,459
446,01	0,315
446,22	0,242
446,43	0,476
446,64	0,494
446,85	0,171
447,06	0,746
447,28	0,659
447,49	0,800
447,70	0,527
447,91	1,145
448,12	0,730
448,33	0,725
448,54	0,760
448,76	0,705
448,97	0,765
449,18	0,727
449,39	0,844
449,60	1,070
449,81	1,314
450,02	0,935
450,23	1,186
450,45	0,977
450,66	1,168
450,87	1,142
451,08	0,724
451,29	1,097
451,50	1,216
451,71	1,032
451,92	1,277
452,13	1,682
452,35	1,806
452,56	4,172
452,77	9,554
452,98	19,510
453,19	35,086
453,40	54,884
453,61	70,633
453,82	82,569
454,03	89,501
454,25	89,801
454,46	92,467
454,67	95,328
454,88	94,858
455,09	95,015
455,30	94,588
455,51	96,634
455,72	96,602
455,93	95,463
456,14	96,947
456,35	95,577
456,56	96,335
456,78	97,127
456,99	95,652
457,20	95,576
457,41	96,102
457,62	95,697
457,83	95,571
458,04	96,179
458,25	94,768
458,46	96,961
458,67	95,958
458,88	97,228
459,09	97,097
459,30	96,312
459,51	98,273
459,73	95,323
459,94	96,790
460,15	95,610
460,36	96,487
460,57	95,953
460,78	96,251
460,99	96,590
461,20	96,409
461,41	94,998
461,62	95,498
461,83	94,998
462,04	95,847
462,25	94,776
462,46	95,134
462,67	95,298
462,88	95,073
463,09	96,107
463,30	94,431
463,51	95,772
463,72	95,271
463,93	95,611
464,15	94,475
464,36	94,850
464,57	93,776
464,78	94,709
464,99	95,233
465,20	94,144
465,41	94,857
465,62	93,983
465,83	94,213
466,04	94,084
466,25	93,741
466,46	93,580
466,67	93,407
466,88	93,504
467,09	94,617
467,30	94,768
467,51	94,705
467,72	94,068
467,93	94,004
468,14	95,480
468,35	95,316
468,56	95,632
468,77	96,093
468,98	96,198
469,19	96,599
469,40	96,686
469,61	98,273
469,82	97,359
470,03	96,832
470,24	97,444
470,45	96,848
470,66	97,021
470,87	97,246
471,08	97,593
471,29	95,581
471,50	97,424
471,71	96,894
471,92	96,999
472,13	97,763
472,34	97,063
472,55	98,344
472,76	96,738
472,97	97,777
473,18	98,254
473,39	97,193
473,60	97,367
473,81	98,060
474,01	96,996
474,22	97,172
474,43	97,324
474,64	97,905
474,85	98,457
475,06	98,220
475,27	97,811
475,48	98,941
475,69	97,306
475,90	97,507
476,11	97,440
476,32	98,341
476,53	97,298
476,74	97,265
476,95	96,107
477,16	97,759
477,37	96,467
477,58	96,792
477,79	96,361
478,00	95,658
478,21	95,614
478,41	95,360
478,62	96,968
478,83	94,561
479,04	93,357
479,25	94,732
479,46	95,999
479,67	95,913
479,88	95,925
480,09	95,840
480,30	96,490
480,51	97,399
480,72	96,604
480,93	96,481
481,14	96,399
481,34	94,932
481,55	95,848
481,76	95,082
481,97	96,008
482,18	96,729
482,39	96,852
482,60	96,230
482,81	97,388
483,02	96,605
483,23	95,559
483,44	95,795
483,65	96,221
483,85	94,660
484,06	93,917
484,27	94,995
484,48	94,348
484,69	95,942
484,90	95,810
485,11	95,554
485,32	96,720
485,53	97,074
485,73	97,075
485,94	98,130
486,15	98,011
486,36	98,657
486,57	98,016
486,78	99,079
486,99	97,985
487,20	98,659
487,41	99,330
487,61	98,389
487,82	98,418
488,03	100,091
488,24	99,115
488,45	98,695
488,66	99,481
488,87	98,521
489,08	98,961
489,28	98,644
489,49	99,002
489,70	98,652
489,91	97,691
490,12	99,334
490,33	98,760
490,54	98,361
490,74	99,240
490,95	97,600
491,16	99,176
491,37	97,892
491,58	96,619
491,79	98,516
492,00	99,140
492,20	99,900
492,41	99,069
492,62	98,442
492,83	99,670
493,04	97,979
493,25	98,994
493,45	98,882
493,66	96,963
493,87	98,679
494,08	98,884
494,29	98,450
494,50	98,066
494,70	98,717
494,91	98,607
495,12	97,886
495,33	97,872
495,54	96,915
495,75	97,993
495,95	96,989
496,16	96,964
496,37	98,043
496,58	97,278
496,79	96,602
496,99	98,257
497,20	97,571
497,41	98,411
497,62	97,872
497,83	98,113
498,04	98,193
498,24	98,206
498,45	98,275
498,66	97,863
498,87	98,252
499,08	98,188
499,28	98,055
499,49	97,453
499,70	98,084
499,91	96,633
500,12	96,443
500,32	96,831
500,53	96,752
500,74	97,646
500,95	96,830
501,15	96,770
501,36	97,824
501,57	96,874
501,78	96,871
501,99	95,373
502,19	93,275
502,40	87,166
502,61	79,812
502,82	68,258
503,02	54,345
503,23	39,805
503,44	26,990
503,65	16,958
503,86	10,392
504,06	6,351
504,27	4,159
504,48	2,601
504,69	1,865
504,89	1,216
505,10	1,069
505,31	0,844
505,52	0,700
505,72	0,680
505,93	0,694
506,14	0,442
506,35	0,631
506,55	0,389
506,76	0,376
506,97	0,631
507,18	0,415
507,38	0,327
507,59	0,414
507,80	0,518
508,01	0,322
508,21	0,428
508,42	0,509
508,63	0,591
508,84	0,548
509,04	0,501
509,25	0,462
509,46	0,329
509,67	0,411
509,87	0,311
510,08	0,638
510,29	0,210
510,49	0,192
510,70	0,430
510,91	0,406
511,12	0,393
511,32	0,374
511,53	0,322
511,74	0,298
511,94	0,360
512,15	0,422
512,36	0,491
512,57	0,378
512,77	0,209
512,98	0,389
513,19	0,185
513,39	0,320
513,60	0,449
513,81	0,360
514,01	0,261
514,22	0,270
514,43	0,353
514,64	0,213
514,84	0,297
515,05	0,265
515,26	0,504
515,46	0,569
515,67	0,016
515,88	0,148
516,08	0,507
516,29	0,184
516,50	0,209
516,70	0,196
516,91	0,404
517,12	0,182
517,32	0,313
517,53	0,145
517,74	0,165
517,95	0,334
518,15	0,308
518,36	0,364
518,57	0,284
518,77	0,217
518,98	0,299
519,19	0,151
519,39	0,290
519,60	0,222
519,80	0,067
520,01	0,216
520,22	0,358
520,42	0,306
520,63	0,344
520,84	0,386
521,04	0,308
521,25	0,415
521,46	0,232
521,66	0,307
521,87	0,215
522,08	0,298
522,28	0,193
522,49	0,353
522,70	0,334
522,90	0,263
523,11	0,257
523,31	0,353
523,52	0,362
523,73	0,412
523,93	0,218
524,14	0,378
524,35	0,326
524,55	0,185
524,76	0,165
524,97	0,176
525,17	0,368
525,38	0,125
525,58	0,100
525,79	0,409
526,00	0,282
526,20	0,305
526,41	0,288
526,61	0,360
526,82	0,393
527,03	0,358
527,23	0,296
527,44	0,382
527,64	0,264
527,85	0,374
528,06	0,371
528,26	0,428
528,47	0,288
528,68	0,329
528,88	0,253
529,09	0,291
529,29	0,239
529,50	0,374
529,70	0,266
529,91	0,292
530,12	0,287
530,32	0,230
530,53	0,160
530,73	0,215
530,94	0,187
531,15	0,064
531,35	0,355
531,56	0,334
531,76	0,421
531,97	0,415
532,17	0,126
532,38	0,529
532,59	0,218
532,79	0,327
533,00	0,385
533,20	0,181
533,41	0,188
533,61	0,211
533,82	0,303
534,03	0,366
534,23	0,366
534,44	0,317
534,64	0,177
534,85	0,305
535,05	0,228
535,26	0,213
535,46	0,097
535,67	0,168
535,88	0,255
536,08	0,269
536,29	0,367
536,49	0,182
536,70	0,257
536,90	0,081
537,11	0,450
537,31	0,329
537,52	0,366
537,72	0,476
537,93	0,198
538,13	0,244
538,34	0,406
538,55	0,302
538,75	0,196
538,96	0,408
539,16	0,296
539,37	0,255
539,57	0,472
539,78	0,317
539,98	0,164
540,19	0,303
540,39	0,186
540,60	0,294
540,80	0,388
541,01	0,443
541,21	0,308
541,42	0,341
541,62	0,276
541,83	0,412
542,03	0,224
542,24	0,539
542,44	0,174
542,65	0,277
542,85	0,418
543,06	0,434
543,26	0,458
543,47	0,238
543,67	0,414
543,88	0,312
544,08	0,250
544,29	0,489
544,49	0,472
544,70	0,280
544,90	0,298
545,11	0,490
545,31	0,536
545,52	0,257
545,72	0,585
545,93	0,580
546,13	0,392
546,34	0,383
546,54	0,428
546,75	0,506
546,95	0,515
547,15	0,499
547,36	0,600
547,56	0,505
547,77	0,478
547,97	0,445
548,18	0,332
548,38	0,415
548,59	0,519
548,79	0,293
549,00	0,386
549,20	0,380
549,41	0,383
549,61	0,452
549,81	0,500
550,02	0,544
550,22	0,568
550,43	0,652
550,63	0,701
550,84	0,388
551,04	0,686
551,25	0,651
551,45	0,846
551,65	0,788
551,86	0,754
552,06	0,936
552,27	0,986
552,47	0,901
552,68	0,854
552,88	0,750
553,08	1,044
553,29	0,749
553,49	0,969
553,70	0,702
553,90	0,767
554,11	0,945
554,31	1,205
554,51	1,624
554,72	2,135
554,92	4,197
555,13	8,287
555,33	15,890
555,53	26,631
555,74	41,594
555,94	57,675
556,15	71,576
556,35	81,784
556,56	89,291
556,76	92,437
556,96	94,868
557,17	95,850
557,37	96,136
557,58	98,017
557,78	97,623
557,98	97,629
558,19	97,386
558,39	97,583
558,59	97,783
558,80	98,196
559,00	98,493
559,21	99,499
559,41	98,365
559,61	99,932
559,82	100,015
560,02	99,167
560,23	98,552
560,43	97,611
560,63	98,633
560,84	98,786
561,04	99,077
561,24	99,081
561,45	99,610
561,65	99,144
561,85	99,737
562,06	98,992
562,26	98,704
562,47	99,413
562,67	98,982
562,87	100,643
563,08	100,019
563,28	99,739
563,48	98,823
563,69	99,383
563,89	98,714
564,09	99,335
564,30	99,307
564,50	99,756
564,70	97,906
564,91	98,564
565,11	98,668
565,31	99,036
565,52	97,247
565,72	98,506
565,92	98,619
566,13	98,207
566,33	97,153
566,53	98,172
566,74	99,461
566,94	98,980
567,14	99,469
567,35	99,035
567,55	99,386
567,75	98,793
567,96	98,677
568,16	99,763
568,36	99,529
568,57	99,434
568,77	99,128
568,97	98,850
569,18	98,856
569,38	99,061
569,58	99,552
569,79	100,249
569,99	99,337
570,19	100,569
570,39	100,616
570,60	99,580
570,80	100,786
571,00	99,794
571,21	99,351
571,41	99,484
571,61	99,257
571,82	99,408
572,02	99,373
572,22	99,493
572,42	99,670
572,63	98,723
572,83	99,254
573,03	99,858
573,24	99,606
573,44	100,581
573,64	99,892
573,84	99,638
574,05	100,274
574,25	99,838
574,45	99,787
574,66	99,042
574,86	99,930
575,06	99,294
575,26	99,028
575,47	99,216
575,67	99,162
575,87	97,603
576,07	97,564
576,28	98,486
576,48	97,535
576,68	98,755
576,88	98,037
577,09	98,251
577,29	99,199
577,49	99,606
577,69	98,794
577,90	98,632
578,10	99,604
578,30	100,022
578,50	99,533
578,71	99,277
578,91	99,319
579,11	98,944
579,31	99,421
579,52	99,239
579,72	99,157
579,92	98,994
580,12	98,852
580,33	99,129
580,53	98,973
580,73	98,653
580,93	97,815
581,13	98,843
581,34	99,755
581,54	99,075
581,74	99,392
581,94	99,618
582,15	99,220
582,35	99,325
582,55	98,900
582,75	99,935
582,95	100,098
583,16	99,536
583,36	100,605
583,56	100,412
583,76	98,543
583,96	99,702
584,17	100,062
584,37	100,229
584,57	99,989
584,77	99,819
584,97	100,257
585,18	99,898
585,38	99,678
585,58	99,725
585,78	100,600
585,98	100,167
586,19	100,508
586,39	99,986
586,59	100,668
586,79	100,765
586,99	101,049
587,20	99,495
587,40	100,881
587,60	100,022
587,80	99,770
588,00	100,320
588,20	100,580
588,41	99,954
588,61	99,409
588,81	100,351
589,01	100,178
589,21	99,225
589,41	99,468
589,62	99,968
589,82	100,129
590,02	100,004
590,22	99,098
590,42	98,910
590,62	98,813
590,83	99,541
591,03	99,295
591,23	99,483
591,43	98,323
591,63	98,634
591,83	97,762
592,03	97,990
592,24	98,416
592,44	98,100
592,64	97,811
592,84	99,161
593,04	97,746
593,24	98,148
593,44	97,565
593,65	98,367
593,85	99,169
594,05	98,993
594,25	99,445
594,45	99,353
594,65	98,992
594,85	99,145
595,06	99,730
595,26	99,055
595,46	99,507
595,66	98,048
595,86	99,282
596,06	98,991
596,26	99,227
596,46	99,243
596,66	100,206
596,87	99,133
597,07	98,995
597,27	99,532
597,47	99,765
597,67	98,940
597,87	100,442
598,07	99,285
598,27	98,308
598,47	100,158
598,67	98,549
598,88	99,328
599,08	99,056
599,28	99,537
599,48	98,026
599,68	97,634
599,88	97,097
600,08	97,643
600,28	98,205
600,48	98,370
600,68	97,873
600,88	98,962
601,09	98,629
601,29	98,859
601,49	98,861
601,69	99,918
601,89	99,702
602,09	99,124
602,29	99,015
602,49	99,107
602,69	99,910
602,89	100,045
603,09	98,175
603,29	99,105
603,49	98,896
603,69	98,742
603,90	98,627
604,10	98,950
604,30	98,711
604,50	97,871
604,70	98,264
604,90	98,058
605,10	98,333
605,30	97,911
605,50	98,898
605,70	100,319
605,90	99,193
606,10	99,518
606,30	100,576
606,50	98,825
606,70	98,562
606,90	100,092
607,10	98,734
607,30	99,934
607,50	99,735
607,70	99,521
607,90	99,778
608,10	99,860
608,30	100,015
608,50	98,781
608,70	99,747
608,90	99,518
609,11	99,564
609,31	99,961
609,51	99,876
609,71	99,702
609,91	99,519
610,11	98,664
610,31	99,711
610,51	99,788
610,71	98,593
610,91	99,264
611,11	98,142
611,31	99,443
611,51	99,639
611,71	99,937
611,91	98,094
612,11	94,842
612,31	92,057
612,51	87,081
612,71	78,789
612,91	67,971
613,11	57,314
613,31	44,124
613,51	32,281
613,71	22,943
613,91	15,803
614,11	10,881
614,31	7,263
614,50	5,005
614,70	3,390
614,90	2,689
615,10	1,581
615,30	1,320
615,50	0,913
615,70	0,838
615,90	0,872
616,10	0,715
616,30	0,580
616,50	0,437
616,70	0,310
616,90	0,695
617,10	0,343
617,30	0,282
617,50	0,463
617,70	0,209
617,90	0,387
618,10	0,286
618,30	0,558
618,50	0,226
618,70	0,482
618,90	0,312
619,10	0,504
619,30	0,429
619,49	0,524
619,69	0,270
619,89	0,231
620,09	0,357
620,29	0,356
620,49	0,555
620,69	0,338
620,89	0,487
621,09	0,318
621,29	0,260
621,49	0,370
621,69	0,196
621,89	0,224
622,09	0,180
622,29	0,184
622,48	0,241
622,68	0,540
622,88	0,377
623,08	0,295
623,28	0,343
623,48	0,302
623,68	0,148
623,88	0,132
624,08	0,240
624,28	0,075
624,48	0,397
624,67	0,112
624,87	0,273
625,07	0,270
625,27	0,316
625,47	0,183
625,67	0,186
625,87	0,195
626,07	0,331
626,27	0,095
626,47	0,293
626,66	0,128
626,86	0,244
627,06	0,272
627,26	0,170
627,46	0,234
627,66	0,216
627,86	0,151
628,06	0,193
628,25	0,032
628,45	0,225
628,65	0,189
628,85	0,151
629,05	0,068
629,25	0,178
629,45	0,218
629,65	0,150
629,84	0,272
630,04	0,203
630,24	0,216
630,44	0,163
630,64	0,369
630,84	0,196
631,04	0,330
631,23	0,255
631,43	0,254
631,63	0,253
631,83	0,182
632,03	0,163
632,23	0,101
632,42	0,222
632,62	0,004
632,82	0,279
633,02	0,125
633,22	0,086
633,42	0,224
633,62	0,248
633,81	0,175
634,01	0,013
634,21	0,126
634,41	0,299
634,61	0,385
634,80	0,230
635,00	-0,005
635,20	0,070
635,40	0,292
635,60	0,262
635,80	0,179
635,99	0,382
636,19	0,269
636,39	0,240
636,59	0,365
636,79	0,533
636,98	0,359
637,18	0,197
637,38	0,162
637,58	0,264
637,78	0,138
637,97	0,183
638,17	0,016
638,37	0,115
638,57	0,168
638,77	0,219
638,96	0,281
639,16	0,198
639,36	0,335
639,56	0,482
639,76	0,163
639,95	0,157
640,15	0,237
640,35	0,268
640,55	0,343
640,75	0,376
640,94	0,289
641,14	0,382
641,34	0,092
641,54	0,285
641,73	0,725
641,93	0,189
642,13	0,259
642,33	0,134
642,53	0,390
642,72	0,288
642,92	0,488
643,12	0,202
643,32	0,190
643,51	0,441
643,71	0,111
643,91	0,444
644,11	0,591
644,30	0,217
644,50	0,327
644,70	0,377
644,90	0,111
645,09	0,235
645,29	0,500
645,49	0,654
645,69	0,712
645,88	0,050
646,08	0,327
646,28	0,165
646,48	0,544
646,67	0,458
646,87	0,534
647,07	0,689
647,26	0,582
647,46	0,246
647,66	0,239
647,86	0,179
648,05	0,392
648,25	0,866
648,45	0,365
648,65	0,358
648,84	0,468
649,04	0,045
649,24	0,467
649,43	0,443
649,63	0,573
649,83	0,524
650,03	0,362
650,22	0,789
650,42	0,417
650,62	0,335
650,81	0,672
651,01	0,500
651,21	0,346
651,40	0,372
651,60	0,201
651,80	0,627
652,00	0,525
652,19	0,463
652,39	0,519
652,59	0,658
652,78	0,671
652,98	0,705
653,18	0,573
653,37	0,972
653,57	0,861
653,77	0,941
653,96	0,592
654,16	0,834
654,36	1,475
654,55	1,073
654,75	1,306
654,95	1,445
655,14	1,185
655,34	1,882
655,54	2,058
655,73	2,928
655,93	4,741
656,13	6,356
656,32	10,141
656,52	15,533
656,72	23,573
656,91	32,153
657,11	43,837
657,31	54,603
657,50	65,247
657,70	73,553
657,90	79,722
658,09	84,010
658,29	87,420
658,49	89,833
658,68	89,556
658,88	92,462
659,07	93,480
659,27	95,450
659,47	96,613
659,66	96,474
659,86	96,871
660,06	95,084
660,25	95,848
660,45	95,119
660,64	95,186
660,84	93,906
661,04	93,023
661,23	94,245
661,43	94,732
661,63	94,081
661,82	94,673
662,02	95,145
662,21	96,014
662,41	94,113
662,61	95,806
662,80	96,873
663,00	97,668
663,19	97,261
663,39	97,275
663,59	99,143
663,78	96,478
663,98	97,996
664,17	95,116
664,37	97,651
664,57	96,516
664,76	98,349
664,96	95,994
665,15	98,626
665,35	97,006
665,55	96,947
665,74	97,765
665,94	96,141
666,13	97,764
666,33	98,118
666,53	97,297
666,72	96,386
666,92	98,617
667,11	98,000
667,31	96,266
667,50	96,026
667,70	96,620
667,90	97,047
668,09	97,588
668,29	97,265
668,48	96,537
668,68	96,902
668,87	95,781
669,07	97,518
669,26	96,650
669,46	96,349
669,66	96,247
669,85	96,423
670,05	96,515
670,24	97,120
670,44	96,792
670,63	95,718
670,83	97,258
671,02	96,271
671,22	96,112
671,42	96,024
671,61	95,991
671,81	97,837
672,00	95,937
672,20	95,778
672,39	95,304
672,59	96,106
672,78	94,908
672,98	96,023
673,17	94,210
673,37	96,602
673,56	96,041
673,76	95,654
673,95	96,191
674,15	97,778
674,34	97,249
674,54	95,872
674,73	96,283
674,93	95,509
675,13	95,920
675,32	97,672
675,52	97,107
675,71	96,323
675,91	97,346
676,10	96,735
676,30	97,723
676,49	96,651
676,69	97,363
676,88	97,542
677,08	97,011
677,27	96,226
677,47	95,495
677,66	95,882
677,86	95,377
678,05	95,054
678,24	95,321
678,44	95,874
678,63	95,879
678,83	96,934
679,02	96,152
679,22	95,500
679,41	95,780
679,61	95,160
679,80	95,834
680,00	95,503
680,19	96,008
680,39	95,782
680,58	95,436
680,78	95,698
680,97	96,233
681,17	94,198
681,36	95,695
681,56	94,853
681,75	94,259
681,94	95,342
682,14	94,582
682,33	95,011
682,53	93,691
682,72	94,349
682,92	94,458
683,11	94,589
683,31	94,329
683,50	94,512
683,69	93,526
683,89	94,294
684,08	94,888
684,28	94,163
684,47	96,347
684,67	95,095
684,86	94,321
685,06	94,924
685,25	95,067
685,44	95,333
685,64	95,538
685,83	96,499
686,03	96,524
686,22	95,667
686,42	95,772
686,61	96,181
686,80	95,848
687,00	95,587
687,19	96,017
687,39	96,788
687,58	95,621
687,77	96,903
687,97	96,151
688,16	94,976
688,36	95,497
688,55	96,905
688,74	95,505
688,94	96,572
689,13	95,493
689,33	95,029
689,52	96,567
689,71	95,672
689,91	96,024
690,10	96,587
690,30	96,244
690,49	95,772
690,68	96,278
690,88	96,330
691,07	96,023
691,27	96,699
691,46	96,684
691,65	96,106
691,85	96,637
692,04	96,342
692,23	96,618
692,43	96,706
692,62	96,176
692,82	97,475
693,01	96,380
693,20	95,408
693,40	97,360
693,59	97,027
693,78	96,678
693,98	97,127
694,17	97,422
694,36	97,738
694,56	98,556
694,75	99,508
694,94	99,183
695,14	99,394
695,33	99,040
695,53	98,970
695,72	100,129
695,91	99,983
696,11	100,858
696,30	100,281
696,49	100,362
696,69	100,801
696,88	101,394
697,07	101,258
697,27	102,637
697,46	102,585
697,65	101,625
697,85	101,597
698,04	101,551
698,23	102,574
698,43	101,876
698,62	101,946
698,81	103,500
699,01	104,704
699,20	103,354
699,39	104,132
699,58	102,625
699,78	104,219
699,97	104,426
700,16	102,820
700,36	106,963
700,55	104,329
700,74	105,377
700,94	105,160
701,13	104,510
701,32	103,951
701,52	102,701
701,71	104,224
701,90	102,635
702,09	104,250
702,29	102,622
702,48	101,681
702,67	104,555
702,87	103,480
703,06	102,511
703,25	105,142
703,44	102,464
703,64	102,262
703,83	102,119
704,02	102,827
704,22	105,072
704,41	103,794
704,60	100,881
704,79	104,266
704,99	103,039
705,18	105,433
705,37	102,629
705,56	104,444
705,76	103,469
705,95	102,715
706,14	103,468
706,33	102,854
706,53	102,155
706,72	102,871
706,91	105,691
707,11	99,880
707,30	102,220
707,49	103,825
707,68	102,060
707,88	101,252
708,07	103,203
708,26	100,821
708,45	99,522
708,64	101,950
708,84	101,953
709,03	101,450
709,22	100,977
709,41	102,939
709,61	101,978
709,80	101,677
709,99	99,059
710,18	100,892
710,38	103,608
710,57	98,536
710,76	101,831
710,95	100,606
711,14	101,692
711,34	99,695
711,53	100,235
711,72	97,041
711,91	96,881
712,11	102,208
712,30	95,322
712,49	99,593
712,68	100,463
712,87	99,062
713,07	97,877
713,26	94,635
713,45	89,984
713,64	78,952
713,83	74,034
714,03	60,868
714,22	50,196
714,41	42,672
714,60	34,315
714,79	25,012
714,99	17,434
715,18	13,264
715,37	10,508
715,56	8,857
715,75	7,947
715,94	3,510
716,14	4,233
716,33	2,486
716,52	4,368
716,71	1,192
716,90	-0,053
717,10	3,529
717,29	4,540
717,48	2,664
717,67	0,734
717,86	0,229
718,05	3,859
718,24	3,702
718,44	1,833
718,63	4,070
718,82	2,952
719,01	3,934
719,20	0,901
719,39	6,411
719,59	2,090
719,78	1,930
719,97	3,880
720,16	3,641
720,35	3,520
720,54	6,720
720,73	1,759
720,93	2,228
721,12	0,432
721,31	4,009
721,50	5,043
721,69	2,939
721,88	1,901
722,07	2,199
722,27	-2,726
722,46	0,083
722,65	1,367
722,84	1,500
723,03	2,428
723,22	4,146
723,41	1,855
723,60	1,010
723,79	3,586
723,99	3,247
724,18	2,988
724,37	0,975
724,56	2,005
724,75	1,964
724,94	4,893
725,13	5,565
725,32	2,795
725,51	0,627
725,71	3,336
725,90	4,108
726,09	5,513
726,28	3,296
726,47	2,482
726,66	-0,097
726,85	3,992
727,04	1,075
727,23	6,348
727,42	4,980
727,61	5,405
727,81	8,126
728,00	3,310
728,19	1,058
728,38	0,534
728,57	5,269
728,76	1,644
728,95	1,421
729,14	5,681
729,33	-0,221
729,52	6,250
729,71	2,910
729,90	1,397
730,09	4,024
730,28	3,073
730,48	3,148
730,67	7,176
730,86	1,730
731,05	3,558
731,24	1,649
731,43	4,043
731,62	8,395
731,81	5,378
732,00	4,732
732,19	2,757
732,38	3,152
732,57	5,402
732,76	0,896
732,95	4,621
733,14	7,069
733,33	1,667
733,52	0,813
733,71	3,059
733,90	-0,553
734,09	4,940
734,28	10,236
734,47	1,029
734,66	1,403
734,85	6,347
735,04	5,595
735,23	8,864
735,42	6,383
735,61	6,094
735,81	4,830
736,00	3,308
736,19	3,598
736,38	3,008
736,57	0,949
736,76	3,829
736,95	0,797
737,14	9,356
737,33	-5,452
737,52	0,608
737,71	5,945
737,90	2,875
738,09	-3,966
738,28	-2,922
738,47	4,019
738,66	0,169
738,85	1,575
739,04	0,322
739,22	4,288
739,41	2,618
739,60	5,027
739,79	-0,178
739,98	0,188
740,17	10,135
740,36	5,492
740,55	4,554
740,74	3,532
740,93	8,938
741,12	2,768
741,31	-5,317
741,50	10,105
741,69	0,185
741,88	7,531
742,07	10,601
742,26	3,442
742,45	7,609
742,64	3,061
742,83	6,154
743,02	7,631
743,21	-2,483
743,40	8,046
743,59	2,161
743,78	-11,392
743,97	8,539
744,16	1,293
744,34	1,860
744,53	4,310
744,72	5,945
744,91	7,598
745,10	5,747
745,29	2,582
745,48	5,022
745,67	9,556
745,86	3,112
746,05	6,711
746,24	3,017
746,43	-1,587
746,62	6,706
746,81	0,237
747,00	15,208
747,18	9,091
747,37	6,364
747,56	6,636
747,75	3,836
747,94	0,758
748,13	4,907
748,32	3,171
748,51	4,684
748,70	3,357
748,89	10,753
749,08	12,562
749,26	-6,400
749,45	2,810
749,64	-3,618
749,83	3,194
750,02	0,536
750,21	10,156
750,40	2,902
750,59	1,064
750,78	5,783
750,96	15,711
751,15	4,290
751,34	10,074
751,53	11,667
751,72	6,166
751,91	-0,262
752,10	7,042
752,29	2,609
752,47	8,908
752,66	5,325
752,85	8,995
753,04	0,000
753,23	7,348
753,42	17,955
753,61	9,726
753,80	-6,006
753,98	-4,688
754,17	6,232
754,36	-1,961
754,55	1,954
754,74	14,595
754,93	9,355
755,12	3,077
755,30	-5,904
755,49	4,692
755,68	10,411
755,87	9,215
756,06	9,510
756,25	0,000
756,43	-0,360
756,62	-10,108
756,81	-18,824
757,00	21,154
757,19	13,804
757,38	6,840
757,56	6,757
757,75	-10,305
757,94	6,897
758,13	18,471
758,32	5,303
758,51	10,968
758,69	1,603
758,88	10,820
759,07	29,537
759,26	-2,381
759,45	20,000
759,63	-0,395
759,82	12,044
760,01	13,889
760,20	6,204
760,39	11,111
760,57	-6,438
760,76	-2,672
760,95	2,299
761,14	8,846
761,33	-4,297
761,51	6,667
761,70	6,897
761,89	21,705
762,08	5,603
762,27	-6,731
762,45	1,887
762,64	4,425
762,83	24,164
763,02	9,343
763,21	20,070
763,39	6,335
763,58	8,571
763,77	24,468
763,96	-8,772
764,14	2,905
764,33	23,684
764,52	0,446
764,71	-0,985
764,89	18,243
765,08	11,985
765,27	-4,455
765,46	12,727
765,65	12,690
765,83	29,524
766,02	4,762
766,21	23,629
766,40	21,860
766,58	16,290
766,77	-10,169
766,96	-2,051
767,15	9,179
767,33	-3,365
767,52	-2,844
767,71	4,444
767,90	26,667
768,08	15,880
768,27	11,628
768,46	8,095
768,64	23,786
768,83	20,541
769,02	-3,333
769,21	-16,146
769,39	-2,685
769,58	27,000
769,77	-0,543
769,96	6,623
770,14	13,359
770,33	5,882
770,52	5,769
770,70	6,436
770,89	1,531
771,08	12,500
771,27	3,608
771,45	21,965
771,64	18,421
771,83	26,344
772,01	-22,901
772,20	10,101
772,39	16,561
772,57	32,292
772,76	24,138
772,95	-1,015
773,14	25,581
773,32	4,945
773,51	22,326
773,70	7,285
773,88	24,623
774,07	10,879
774,26	13,415
774,44	39,698
774,63	24,684
774,82	40,964
775,00	16,594
775,19	16,092
775,38	-2,000
775,56	20,732
775,75	-10,778
775,94	29,851
776,12	-24,167
776,31	-1,796
776,50	12,727
776,68	22,840
776,87	-0,699
777,06	2,740
777,24	-14,754
777,43	28,455
777,62	11,111
777,80	28,261
777,99	38,854
778,18	36,306
778,36	16,794
778,55	9,630
778,74	27,273
778,92	26,244
779,11	19,355
779,29	32,680
779,48	-33,884
779,67	16,547
779,85	12,000
780,04	9,155
780,23	-10,490
780,41	5,294
780,60	5,848
780,79	23,611
780,97	17,857
781,16	6,400
781,34	-9,848
781,53	27,564
781,72	9,259
781,90	2,885
782,09	26,230
782,28	3,252
782,46	-34,146
782,65	-12,587
782,83	-7,634
783,02	1,600
783,21	43,411
783,39	26,923
783,58	28,000
783,76	22,973
783,95	17,219
784,14	-33,684
784,32	5,505
784,51	-29,213
784,69	8,917
784,88	21,290
785,06	19,858
785,25	3,759
785,44	14,189
785,62	18,571
785,81	2,239
785,99	-11,565
786,18	19,672
786,37	57,931
786,55	-7,463
786,74	29,193
786,92	19,186
787,11	16,000
787,29	7,059
787,48	2,000
787,67	-42,857
787,85	-45,313
788,04	-1,370
788,22	11,111
788,41	43,421
788,59	20,408
788,78	9,722
788,96	42,857
789,15	26,230
789,34	41,463
789,52	-3,731
789,71	-46,032
789,89	7,895
790,08	-13,725
790,26	26,984
790,45	30,657
790,63	0,000
790,82	14,516
791,00	8,730
791,19	36,429
791,38	13,014
791,56	26,316
791,75	-12,162
791,93	0,000
792,12	4,545
792,30	15,789
792,49	-6,542
792,67	6,429
792,86	-4,054
793,04	-3,968
793,23	34,211
793,41	20,645
793,60	15,190
793,78	22,819
793,97	19,828
794,15	8,497
794,34	18,367
794,52	58,915
794,71	34,568
794,89	12,143
795,08	56,410
795,26	-8,000
795,45	-21,277
795,63	-1,887
795,82	38,655
796,00	30,769
796,19	9,091
796,37	22,034
796,56	-40,741
796,74	-0,781
796,93	19,328
797,11	-15,000
797,30	48,092
797,48	29,371
797,67	36,290
797,85	22,464
798,04	8,108
798,22	-5,036
798,41	64,407
798,59	7,143
798,77	17,094
798,96	32,258
799,14	34,259
799,33	38,938
799,51	7,921
799,70	31,868
799,88	23,853
800,07	45,324
800,25	19,084
800,44	16,832
800,62	12,230
800,80	2,273
800,99	-25,641
801,17	31,034
801,36	-34,375
801,54	20,155
801,73	27,273
801,91	35,955
802,10	18,824
802,28	-14,173
802,46	6,452
802,65	13,245
802,83	15,702
803,02	50,000
803,20	28,814
803,39	17,431
803,57	1,408
803,75	30,714
803,94	45,946
804,12	29,814
804,31	-1,923
804,49	13,548
804,67	-14,414
804,86	34,783
805,04	14,729
805,23	32,117
805,41	18,627
805,59	6,024
805,78	32,143
805,96	27,108
806,15	32,000
806,33	-21,168
806,51	25,000
806,70	-40,698
806,88	20,909
807,07	52,459
807,25	16,522
807,43	-24,444
807,62	18,750
807,80	11,585
807,99	36,691
808,17	-4,167
808,35	-51,887
808,54	17,318
808,72	8,333
808,90	-7,317
809,09	21,898
809,27	21,359
809,46	11,215
809,64	37,572
809,82	16,552
810,01	36,022
810,19	-37,273
810,37	15,909
810,56	11,921
810,74	15,094
810,92	0,000
811,11	30,675
811,29	17,391
811,48	14,783
811,66	11,675
811,84	-0,847
812,03	6,757
812,21	36,364
812,39	0,000
812,58	23,392
812,76	2,920
812,94	5,369
813,13	12,195
813,31	16,402
813,49	19,333
813,68	-6,557
813,86	19,231
814,04	28,829
814,23	-4,615
814,41	5,479
814,59	7,190
814,78	16,779
814,96	11,732
815,14	23,618
815,33	0,000
815,51	-11,811
815,69	-10,687
815,87	-20,000
816,06	36,816
816,24	2,614
816,42	-4,762
816,61	-1,235
816,79	15,029
816,97	0,641
817,16	-17,262
817,34	4,706
817,52	32,243
817,70	21,762
817,89	21,053
818,07	11,333
818,25	-1,266
818,44	10,695
818,62	15,347
818,80	19,231
818,98	-3,590
819,17	12,712
819,35	-8,054
819,53	8,205
819,72	12,432
819,90	16,889
820,08	17,822
820,26	10,046
820,45	4,301
820,63	-1,754
820,81	-2,752
820,99	20,961
821,18	4,217
821,36	-12,500
821,54	-0,995
821,73	-8,743
821,91	-8,451
822,09	8,284
822,27	27,626
822,46	15,271
822,64	3,158
822,82	0,000
823,00	12,042
823,19	24,762
823,37	26,496
823,55	21,519
823,73	3,933
823,91	10,695
824,10	3,646
824,28	8,264
824,46	-38,158
824,64	18,450
824,83	3,318
825,01	-17,647
825,19	5,677
825,37	0,000
825,56	19,084
825,74	15,152
825,92	9,728
826,10	3,084
826,28	29,889
826,47	17,121
826,65	7,554
826,83	2,632
827,01	9,449
827,19	18,217
827,38	10,112
827,56	16,500
827,74	-0,474
827,92	-4,878
828,10	-4,514
828,29	-6,642
828,47	12,774
828,65	13,281
828,83	-1,266
829,01	3,153
829,20	-0,769
829,38	11,066
829,56	20,539
829,74	-2,308
829,92	24,291
830,10	0,429
830,29	21,456
830,47	-0,746
830,65	4,603
830,83	6,803
831,01	-8,969
831,20	-3,650
831,38	7,166
831,56	2,456
831,74	17,966
831,92	8,059
832,10	12,975
832,29	-3,887
832,47	0,709
832,65	12,131
832,83	2,215
833,01	-6,647
833,19	0,000
833,37	15,805
833,56	6,250
833,74	17,377
833,92	5,405
834,10	3,012
834,28	15,331
834,46	6,069
834,64	12,533
834,83	1,133
835,01	11,749
835,19	-1,418
835,37	18,362
835,55	15,581
835,73	7,062
835,91	7,965
836,09	5,921
836,28	-6,098
836,46	-4,720
836,64	8,136
836,82	7,692
837,00	5,112
837,18	5,667
837,36	9,677
837,54	3,552
837,72	4,051
837,91	-0,283
838,09	2,727
838,27	3,886
838,45	16,164
838,63	3,099
838,81	3,343
838,99	1,061
839,17	-2,174
839,35	7,675
839,53	0,000
839,72	17,033
839,90	5,778
840,08	11,765
840,26	5,249
840,44	-8,142
840,62	-11,051
840,80	17,143
840,98	11,857
841,16	4,076
841,34	10,022
841,52	1,957
841,70	-6,948
841,89	-3,417
842,07	-2,529
842,25	8,386
842,43	3,893
842,61	4,728
842,79	4,535
842,97	4,119
843,15	-6,681
843,33	-0,617
843,51	6,957
843,69	0,000
843,87	10,685
844,05	3,672
844,23	-2,287
844,41	4,573
844,59	2,490
844,77	1,649
844,95	1,082
845,13	3,158
845,31	-0,786
845,50	2,277
845,68	11,135
845,86	-1,423
846,04	1,230
846,22	10,526
846,40	-0,413
846,58	5,578
846,76	5,274
846,94	-4,771
847,12	2,308
847,30	-1,501
847,48	-3,461
847,66	-5,144
847,84	5,654
848,02	1,654
848,20	7,533
848,38	-2,321
848,56	0,718
848,74	-5,829
848,92	3,780
849,10	7,746
849,28	-1,890
849,46	-4,621
849,64	6,822
849,82	9,744
850,00	6,239
850,18	3,487
850,36	8,278
850,54	7,188
850,72	8,723
850,90	8,398
851,08	-0,315
851,26	-1,942
851,44	-3,231
851,62	16,013
851,80	2,410
851,98	0,452
852,16	2,392
852,34	8,451
852,52	-2,959
852,70	5,951
852,87	0,873
853,05	1,146
853,23	1,327
853,41	13,099
853,59	-5,051
853,77	8,285
853,95	1,032
854,13	0,994
854,31	-1,752
854,49	1,406
854,67	3,516
854,85	1,752
855,03	8,734
855,21	5,688
855,39	4,811
855,57	2,241
855,75	-0,664
855,93	1,124
856,11	4,669
856,28	2,530
856,46	0,526
856,64	0,519
856,82	7,749
857,00	3,426
857,18	2,781
857,36	2,985
857,54	2,314
857,72	1,132
857,90	-0,865
858,08	-5,990
858,26	3,092
858,44	-3,345
858,61	2,373
858,79	4,410
858,97	5,992
859,15	8,170
859,33	2,807
859,51	5,087
859,69	5,114
859,87	-0,726
860,05	-5,289
860,23	3,822
860,40	-0,437
860,58	-0,555
860,76	0,978
860,94	-0,534
861,12	3,723
861,30	5,428
861,48	5,171
861,66	1,983
861,84	1,623
862,01	2,102
862,19	2,541
862,37	-1,408
862,55	-0,810
862,73	1,343
862,91	6,946
863,09	2,053
863,27	1,754
863,44	2,820
863,62	0,818
863,80	1,463
863,98	0,921
864,16	0,951
864,34	1,297
864,52	5,530
864,69	2,510
864,87	2,041
865,05	2,920
865,23	-2,626
865,41	-4,861
865,59	3,747
865,76	2,493
865,94	1,934
866,12	2,696
866,30	6,332
866,48	5,137
866,66	5,391
866,83	3,770
867,01	6,002
867,19	4,699
867,37	6,552
867,55	4,762
867,73	2,324
867,90	4,634
868,08	4,424
868,26	0,260
868,44	0,920
868,62	6,178
868,79	1,508
868,97	1,800
869,15	-0,840
869,33	1,590
869,51	3,538
869,69	1,853
869,86	0,586
870,04	-1,381
870,22	6,490
870,40	2,851
870,57	2,063
870,75	1,750
870,93	-0,077
871,11	-1,765
871,29	-1,120
871,46	0,000
871,64	2,419
871,82	0,830
872,00	2,711
872,18	-3,333
872,35	1,252
872,53	1,728
872,71	0,500
872,89	3,309
873,06	1,377
873,24	4,025
873,42	1,787
873,60	4,722
873,77	0,139
873,95	3,132
874,13	2,429
874,31	2,392
874,49	1,989
874,66	1,924
874,84	1,582
875,02	3,218
875,20	2,825
875,37	2,618
875,55	-1,430
875,73	2,960
875,91	3,288
876,08	1,886
876,26	2,961
876,44	4,976
876,61	5,700
876,79	1,906
876,97	3,902
877,15	6,847
877,32	6,964
877,50	9,323
877,68	9,436
877,86	12,121
878,03	10,599
878,21	12,671
878,39	14,644
878,56	15,449
878,74	14,978
878,92	16,898
879,10	18,592
879,27	18,585
879,45	17,761
879,63	15,225
879,80	12,815
879,98	14,278
880,16	13,955
880,34	11,158
880,51	13,433
880,69	12,281
880,87	11,059
881,04	11,927
881,22	10,463
881,40	10,332
881,57	8,020
881,75	10,898
881,93	8,198
882,10	8,736
882,28	8,138
882,46	9,826
882,63	11,058
882,81	8,275
882,99	8,861
883,16	10,859
883,34	10,898
883,52	9,743
883,69	10,869
883,87	12,656
884,05	11,435
884,22	15,446
884,40	17,502
884,58	14,436
884,75	18,679
884,93	21,502
885,11	24,132
885,28	27,125
885,46	29,158
885,64	30,634
885,81	35,188
885,99	38,618
886,17	45,618
886,34	49,741
886,52	52,362
886,70	54,931
886,87	59,022
887,05	58,282
887,22	55,547
887,40	57,632
887,58	52,835
887,75	48,642
887,93	44,308
888,11	39,685
888,28	37,275
888,46	35,145
888,63	29,855
888,81	26,370
888,99	23,455
889,16	23,867
889,34	20,579
889,51	19,199
889,69	19,845
889,87	17,211
890,04	15,291
890,22	15,058
890,39	13,315
890,57	15,000
890,75	12,571
890,92	14,281
891,10	13,057
891,27	12,146
891,45	13,209
891,63	12,504
891,80	11,600
891,98	11,639
892,15	11,796
892,33	11,449
892,51	10,051
892,68	10,219
892,86	12,160
893,03	11,070
893,21	10,753
893,38	12,538
893,56	13,249
893,74	14,624
893,91	13,654
894,09	16,591
894,26	15,380
894,44	15,946
894,61	17,638
894,79	20,943
894,96	20,067
895,14	23,374
895,32	24,101
895,49	25,634
895,67	28,358
895,84	28,780
896,02	30,790
896,19	32,268
896,37	31,643
896,54	34,457
896,72	35,472
896,89	35,263
897,07	33,904
897,25	33,973
897,42	32,195
897,60	30,916
897,77	29,377
897,95	27,467
898,12	26,291
898,30	22,726
898,47	21,568
898,65	19,683
898,82	17,543
899,00	18,078
899,17	16,187
899,35	14,781
899,52	13,702
899,70	12,799
899,87	11,664
900,05	10,578
900,22	10,210
900,40	7,891
900,57	7,488
900,75	8,076
900,92	7,557
901,10	5,853
901,27	7,503
901,45	5,660
901,62	6,315
901,80	5,155
901,97	6,341
902,15	4,593
902,32	6,020
902,50	5,444
902,67	5,102
902,85	4,766
903,02	4,432
903,20	5,429
903,37	4,825
903,54	3,331
903,72	3,797
903,89	4,800
904,07	4,627
904,24	4,367
904,42	4,534
904,59	5,637
904,77	6,617
904,94	5,410
905,12	5,396
905,29	5,169
905,47	6,866
905,64	5,755
905,81	6,709
905,99	5,481
906,16	6,479
906,34	6,553
906,51	5,409
906,69	6,632
906,86	8,041
907,03	8,018
907,21	6,965
907,38	6,902
907,56	7,386
907,73	8,662
907,91	8,544
908,08	9,560
908,25	8,161
908,43	10,777
908,60	10,812
908,78	11,603
908,95	12,915
909,13	13,336
909,30	13,553
909,47	15,082
909,65	16,369
909,82	16,409
910,00	18,137
910,17	18,487
910,34	20,415
910,52	20,396
910,69	20,161
910,87	24,310
911,04	24,444
911,21	25,379
911,39	25,467
911,56	26,387
911,73	25,859
911,91	24,924
912,08	26,202
912,26	24,611
912,43	24,327
912,60	24,450
912,78	22,925
912,95	21,505
913,13	20,337
913,30	20,547
913,47	19,697
913,65	17,501
913,82	17,908
913,99	16,419
914,17	17,346
914,34	13,949
914,51	15,797
914,69	14,441
914,86	13,150
915,03	13,248
915,21	11,873
915,38	12,458
915,56	10,962
915,73	11,209
915,90	10,275
916,08	10,696
916,25	11,216
916,42	10,771
916,60	10,621
916,77	10,201
916,94	9,826
917,12	8,646
917,29	8,677
917,46	10,214
917,64	9,024
917,81	9,376
917,98	9,869
918,16	9,640
918,33	9,983
918,50	9,864
918,67	8,881
918,85	9,543
919,02	9,218
919,19	10,420
919,37	9,692
919,54	9,906
919,71	11,023
919,89	11,103
920,06	11,468
920,23	11,293
920,41	11,925
920,58	12,374
920,75	13,391
920,92	13,951
921,10	13,951
921,27	14,070
921,44	15,039
921,62	15,648
921,79	15,604
921,96	18,303
922,13	17,238
922,31	18,698
922,48	20,314
922,65	22,554
922,82	22,289
923,00	23,537
923,17	26,623
923,34	26,976
923,52	29,127
923,69	31,308
923,86	32,988
924,03	35,609
924,21	38,565
924,38	41,368
924,55	41,404
924,72	45,827
924,90	47,478
925,07	51,962
925,24	54,196
925,41	54,793
925,59	56,049
925,76	59,226
925,93	63,351
926,10	61,963
926,28	61,908
926,45	63,546
926,62	62,077
926,79	60,594
926,96	58,988
927,14	60,904
927,31	57,245
927,48	57,500
927,65	57,989
927,83	53,926
928,00	53,667
928,17	50,575
928,34	49,725
928,51	48,874
928,69	47,607
928,86	46,288
929,03	44,294
929,20	45,271
929,37	43,440
929,55	41,742
929,72	41,734
929,89	41,367
930,06	40,902
930,23	40,192
930,41	38,786
930,58	38,947
930,75	37,630
930,92	38,345
931,09	39,541
931,27	38,513
931,44	38,702
931,61	37,142
931,78	39,960
931,95	39,398
932,12	39,146
932,30	38,274
932,47	39,209
932,64	39,046
932,81	40,795
932,98	41,482
933,16	41,433
933,33	42,947
933,50	43,358
933,67	44,929
933,84	46,084
934,01	46,374
934,18	48,133
934,36	49,281
934,53	51,537
934,70	53,113
934,87	53,134
935,04	56,406
935,21	56,797
935,38	58,053
935,56	59,846
935,73	59,694
935,90	60,577
936,07	62,884
936,24	64,347
936,41	62,811
936,58	64,993
936,76	64,922
936,93	66,915
937,10	66,061
937,27	65,298
937,44	66,672
937,61	66,787
937,78	64,769
937,95	65,618
938,13	65,833
938,30	65,988
938,47	62,472
938,64	60,734
938,81	62,867
938,98	60,900
939,15	59,903
939,32	58,722
939,49	56,724
939,66	54,200
939,84	55,698
940,01	54,805
940,18	52,993
940,35	50,966
940,52	50,216
940,69	49,682
940,86	48,426
941,03	49,929
941,20	48,489
941,37	47,792
941,54	46,733
941,71	44,544
941,89	45,302
942,06	45,609
942,23	44,136
942,40	43,902
942,57	44,109
942,74	42,951
942,91	43,430
943,08	44,806
943,25	44,358
943,42	42,495
943,59	43,602
943,76	44,208
943,93	44,086
944,10	44,932
944,27	45,529
944,44	45,710
944,61	46,316
944,79	45,456
944,96	45,610
945,13	47,645
945,30	47,949
945,47	49,079
945,64	47,588
945,81	51,051
945,98	52,234
946,15	51,840
946,32	52,083
946,49	55,628
946,66	56,715
946,83	56,425
947,00	55,266
947,17	57,940
947,34	59,202
947,51	60,732
947,68	62,909
947,85	64,267
948,02	62,831
948,19	66,254
948,36	66,574
948,53	64,226
948,70	65,158
948,87	66,516
949,04	67,042
949,21	66,696
949,38	65,690
949,55	65,964
949,72	65,872
949,89	65,888
950,06	65,122
950,23	65,175
950,40	62,123
950,57	60,215
950,74	61,457
950,91	61,495
951,08	60,395
951,25	57,634
951,42	57,101
951,59	54,021
951,76	54,161
951,93	52,882
952,10	49,763
952,27	49,756
952,44	48,850
952,61	46,973
952,77	44,026
952,94	44,808
953,11	45,469
953,28	43,258
953,45	43,721
953,62	39,745
953,79	41,814
953,96	38,669
954,13	38,937
954,30	35,891
954,47	36,430
954,64	35,765
954,81	33,772
954,98	35,734
955,15	35,185
955,32	35,646
955,49	33,387
955,65	34,706
955,82	33,931
955,99	34,252
956,16	32,996
956,33	34,785
956,50	34,306
956,67	32,409
956,84	30,636
957,01	33,040
957,18	33,164
957,35	34,753
957,52	31,253
957,68	29,457
957,85	32,783
958,02	29,943
958,19	33,279
958,36	31,932
958,53	33,374
958,70	34,035
958,87	37,664
959,04	39,685
959,21	37,896
959,37	37,256
959,54	37,912
959,71	39,470
959,88	35,997
960,05	35,853
960,22	39,985
960,39	41,654
960,56	39,340
960,72	39,914
960,89	42,565
961,06	46,167
961,23	46,638
961,40	50,730
961,57	40,229
961,74	52,385
961,90	52,691
962,07	51,292
962,24	52,306
962,41	46,628
962,58	50,948
962,75	52,071
962,92	47,159
963,08	47,112
963,25	50,711
963,42	51,716
963,59	42,823
963,76	50,000
963,93	39,309
964,10	44,459
964,26	41,255
964,43	45,492
964,60	35,947
964,77	35,988
964,94	40,154
965,10	41,667
965,27	40,372
965,44	38,333
965,61	32,046
965,78	40,246
965,95	32,419
966,11	33,820
966,28	40,659
966,45	27,429
966,62	34,615
966,79	26,016
966,95	24,569
967,12	32,057
967,29	25,000
967,46	24,130
967,63	21,481
967,79	27,989
967,96	27,034
968,13	36,364
968,30	10,656
968,47	17,942
968,63	9,467
968,80	27,586
968,97	34,000
969,14	21,239
969,31	26,282
969,47	20,820
969,64	39,934
969,81	21,754
969,98	23,392
970,14	29,630
970,31	16,129
970,48	19,929
970,65	26,761
970,81	27,211
970,98	38,951
971,15	30,876
971,32	19,068
971,48	19,485
971,65	31,513
971,82	28,571
971,99	34,826
972,15	43,158
972,32	18,107
972,49	8,155
972,66	23,894
972,82	5,941
972,99	27,660
973,16	45,361
973,33	36,190
973,49	31,667
973,66	13,445
973,83	33,333
974,00	27,869
974,16	33,962
974,33	57,927
974,50	35,417
974,67	63,684
974,83	40,113
975,00	28,986
975,17	38,776
975,33	26,812
975,50	20,000
975,67	30,357
975,84	48,936
976,00	42,308
976,17	4,412
976,34	26,241
976,50	38,261
976,67	41,379
976,84	5,128
977,00	24,060
977,17	52,756
977,34	62,366
977,50	54,255
977,67	28,947
977,84	9,091
978,01	42,529
978,17	33,333
978,34	42,708
978,51	-4,545
978,67	85,714
978,84	81,250
979,01	16,923
979,17	60,606
979,34	68,750
979,51	44,231
979,67	97,500
979,84	64,286
980,01	85,246
980,17	38,824
980,34	84,058
980,51	104,545
980,67	70,667
980,84	91,379
981,01	-17,949
981,17	106,000
981,34	262,500
981,50	20,588
981,67	103,448
981,84	65,517
982,00	132,609
982,17	236,364
982,34	-12,821
982,50	247,368
982,67	60,185
982,84	23,810
983,00	138,000
983,17	-33,333
983,33	124,194
983,50	11,957
983,67	84,783
983,83	183,333
984,00	203,125
984,17	-55,000
984,33	93,243
984,50	61,458
984,66	42,857
984,83	50,000
985,00	162,295
985,16	74,359
985,33	337,500
985,49	268,966
985,66	87,879
985,83	84,211
985,99	59,459
986,16	368,000
986,32	81,159
986,49	75,000
986,66	-13,953
986,82	119,298
986,99	95,238
987,15	117,241
987,32	83,333
987,49	94,444
987,65	80,000
987,82	-123,529
987,98	-29,412
988,15	146,429
988,31	88,000
988,48	-75,000
988,65	0,000
988,81	58,696
988,98	-8,333
989,14	63,265
989,31	243,333
989,47	24,390
989,64	60,000
989,80	100,000
989,97	77,941
990,14	69,565
990,30	125,000
990,47	51,220
990,63	234,783
990,80	166,667
990,96	170,833
991,13	19,444
991,29	52,941
991,46	115,686
991,62	-14,706
991,79	98,246
991,95	115,000
992,12	141,860
992,29	108,000
992,45	-115,385
992,62	90,000
992,78	48,148
992,95	66,667
993,11	23,333
993,28	40,741
993,44	156,522
993,61	433,333
993,77	680,000
993,94	144,186
994,10	357,143
994,27	216,000
994,43	105,882
994,60	42,424
994,76	136,842
994,93	281,818
995,09	-81,081
995,26	9,877
995,42	101,695
995,59	-21,429
995,75	187,500
995,92	218,182
996,08	283,333
996,25	-44,444
996,41	68,750
996,58	167,568
996,74	120,000
996,91	200,000
997,07	396,154
997,23	95,745
997,40	466,667
997,56	106,667
997,73	0,000
997,89	129,630
998,06	-35,294
998,22	-5400,000
998,39	204,348
998,55	-12,500
998,72	140,000
998,88	1400,000
999,05	-23,077
999,21	260,870
999,37	2000,000
999,54	-1000,000
999,70	192,308
999,87	156,250
1000,03	-6,250
1000,20	-416,667
1000,36	2600,000
1000,52	266,667
1000,69	31,818
1000,85	74,138
1001,02	63,077
1001,18	27,273
1001,35	-17,778
1001,51	-85,714
1001,67	-14,667
1001,84	416,667
1002,00	132,500
1002,17	-63,636
1002,33	-11,765
1002,50	122,222
1002,66	-3400,000
1002,82	88,571
1002,99	-96,154
1003,15	126,087
1003,32	106,452
1003,48	-560,000
1003,64	50,000
1003,81	32,143
1003,97	18,182
1004,14	1233,333
1004,30	-514,286
1004,46	1275,000
1004,63	163,158
1004,79	-53,333
1004,95	-8,824
1005,12	300,000
1005,28	203,448
1005,45	94,231
1005,61	-966,667
1005,77	144,737
1005,94	232,258
1006,10	-4700,000
1006,26	144,643
1006,43	400,000
1006,59	-29,630
1006,76	88,000
1006,92	-300,000
1007,08	-70,000
1007,25	-47,222
1007,41	-108,333
1007,57	-50,000
1007,74	-43,478
1007,90	-220,000
1008,06	140,000
1008,23	146,296
1008,39	1850,000
1008,55	142,857
1008,72	250,000
1008,88	52,000
1009,04	224,000
1009,21	58,824
1009,37	175,000
1009,53	-26,316
1009,70	-292,308
1009,86	104,545
1010,02	400,000
1010,19	0,000
1010,35	206,250
1010,51	566,667
1010,68	262,500
1010,84	66,667
1011,00	120,000
1011,17	-120,000
1011,33	229,412
1011,49	96,875
1011,66	82,609
1011,82	-13,208
1011,98	-18,182
1012,14	74,242
1012,31	-780,000
1012,47	833,333
1012,63	655,556
1012,80	84,000
1012,96	-345,455
1013,12	86,047
1013,29	92,105
1013,45	48,889
1013,61	-55,556
1013,77	55,556
1013,94	-3,125
1014,10	112,121
1014,26	2700,000
1014,43	-15,152
1014,59	-700,000
1014,75	750,000
1014,91	100,000
1015,08	-86,667
1015,24	-1733,333
1015,40	5,882
1015,56	116,667
1015,73	77,778
1015,89	233,333
1016,05	100,000
1016,21	-122,222
1016,38	-20,000
1016,54	-146,154
1016,70	33,333
1016,86	21,212
1017,03	100,000
1017,19	169,565
1017,35	-146,154
1017,51	140,000
1017,68	309,091
1017,84	3100,000
1018,00	71,429
1018,16	62,500
1018,33	-428,571
1018,49	87,805
1018,65	76,471
1018,81	100,000
1018,97	-175,000
1019,14	163,333
1019,30	150,000
1019,46	244,444
1019,62	360,000
1019,79	100,000
1019,95	0,000
1020,11	28,571
1020,27	316,667
1020,43	-442,857
1020,60	-278,947
1020,76	-72,222
1020,92	128,571
1021,08	-1100,000
1021,24	175,000
1021,41	85,294
1021,57	-18,182
1021,73	-600,000
1021,89	-364,286
1022,05	725,000
1022,21	169,231
1022,38	480,000
1022,54	750,000
1022,70	-159,091
1022,86	350,000
1023,02	-47,059
1023,19	133,333
1023,35	87,097
1023,51	82,143
1023,67	-20,833
1023,83	1033,333
1023,99	-11,111
1024,16	61,905
1024,32	-48,000
1024,48	172,727
1024,64	455,556
1024,80	-27,778
1024,96	89,655
1025,12	-214,286
1025,29	125,000
1025,45	72,222
1025,61	-300,000
1025,77	-6,452
1025,93	440,000
1026,09	24,390
1026,26	42,105
1026,42	-54,167
1026,58	-252,174
1026,74	308,333
1026,90	427,778
1027,06	-15,385
1027,22	-104,348
1027,38	82,609
1027,55	-333,333
1027,71	86,667
1027,87	-225,000
1028,03	131,250
1028,19	-164,706
1028,35	-300,000
1028,51	208,000
1028,67	0,000
1028,83	168,889
1029,00	587,500
1029,16	135,135
1029,32	71,429
1029,48	485,714
1029,64	92,308
1029,80	104,545
1029,96	416,667
1030,12	200,000
1030,28	1950,000
1030,44	1420,000
1030,61	86,364
1030,77	-683,333
1030,93	12,500
1031,09	650,000
1031,25	0,000
1031,41	70,000
1031,57	-1100,000
1031,73	-1200,000
1031,89	-45,455
1032,05	-32,558
1032,21	63,636
1032,37	107,143
1032,53	58,621
1032,69	103,846
1032,86	-266,667
1033,02	-166,667
1033,18	0,000
1033,34	-200,000
1033,50	343,750
1033,66	92,000
1033,82	366,667
1033,98	1700,000
1034,14	42,857
1034,30	-53,333
1034,46	182,353
1034,62	115,385
1034,78	34,783
1034,94	112,903
1035,10	-192,308
1035,26	644,444
1035,42	36,667
1035,58	162,500
1035,74	112,162
1035,90	356,250
1036,06	25,490
1036,22	63,636
1036,38	-6,250
1036,54	206,250
1036,70	-87,097
1036,86	60,000
1037,02	85,714
1037,18	-100,000
1037,34	-22,222
1037,50	240,000
1037,66	-2200,000
1037,82	252,381
1037,98	287,500
1038,14	-575,000
1038,30	220,690
1038,46	257,143
1038,62	144,444
1038,78	-500,000
1038,94	600,000
1039,10	228,000
1039,26	-79,167
1039,42	165,217
1039,58	325,000
1039,74	1950,000
1039,90	158,333
1040,06	26,154
>>>>>End Processed Spectral Data<<<<<
