SpectraSuite Data File
++++++++++++++++++++++++++++++++++++
Date: Tue Jan 31 18:47:05 EET 2017
User: optolab
Dark Spectrum Present: Yes
Reference Spectrum Present: Yes
Number of Sampled Component Spectra: 1
Spectrometers: USB4C02475
Integration Time (usec): 100000 (USB4C02475)
Spectra Averaged: 1 (USB4C02475)
Boxcar Smoothing: 0 (USB4C02475)
Correct for Electrical Dark: No (USB4C02475)
Strobe/Lamp Enabled: No (USB4C02475)
Correct for Detector Non-linearity: No (USB4C02475)
Correct for Stray Light: No (USB4C02475)
Number of Pixels in Processed Spectrum: 3648
>>>>>Begin Processed Spectral Data<<<<<
344,91	369,231
345,13	369,231
345,35	369,231
345,57	0,000
345,79	366,667
346,00	570,000
346,22	-141,667
346,44	123,077
346,66	1025,000
346,87	733,333
347,09	44,444
347,31	-700,000
347,53	-316,667
347,74	-215,385
347,96	328,571
348,18	1333,333
348,40	-271,429
348,61	60,000
348,83	80,488
349,05	96,429
349,27	194,737
349,48	105,769
349,70	223,529
349,92	58,537
350,14	111,111
350,35	180,488
350,57	68,571
350,79	88,235
351,01	376,923
351,22	-275,000
351,44	300,000
351,66	169,231
351,87	44,872
352,09	251,515
352,31	293,750
352,53	108,889
352,74	223,810
352,96	30,233
353,18	77,778
353,40	71,739
353,61	171,667
353,83	450,000
354,05	-21,212
354,26	153,571
354,48	-700,000
354,70	-24,390
354,92	48,485
355,13	158,824
355,35	0,000
355,57	122,222
355,78	47,059
356,00	105,882
356,22	266,667
356,44	-207,692
356,65	125,758
356,87	128,571
357,09	113,333
357,30	101,587
357,52	108,929
357,74	-2150,000
357,95	160,000
358,17	450,000
358,39	91,176
358,60	190,000
358,82	241,176
359,04	-193,750
359,26	154,687
359,47	134,783
359,69	45,946
359,91	211,538
360,12	307,692
360,34	82,524
360,56	186,207
360,77	342,857
360,99	100,000
361,21	220,833
361,42	15,625
361,64	300,000
361,86	58,333
362,07	55,769
362,29	64,706
362,51	200,000
362,72	41,892
362,94	166,667
363,16	225,000
363,37	12,903
363,59	193,103
363,81	-177,778
364,02	14,118
364,24	217,391
364,46	81,081
364,67	137,778
364,89	300,000
365,11	1550,000
365,32	109,639
365,54	150,000
365,76	24,138
365,97	142,857
366,19	525,000
366,41	146,154
366,62	192,105
366,84	171,053
367,05	167,692
367,27	-255,556
367,49	212,195
367,70	462,500
367,92	112,903
368,14	1200,000
368,35	69,014
368,57	30,769
368,79	44,118
369,00	0,000
369,22	366,667
369,43	177,273
369,65	74,627
369,87	63,380
370,08	514,286
370,30	235,294
370,51	135,185
370,73	92,308
370,95	309,524
371,16	633,333
371,38	111,364
371,60	115,385
371,81	89,189
372,03	242,105
372,24	754,545
372,46	69,512
372,68	140,625
372,89	188,571
373,11	-33,333
373,32	153,333
373,54	122,000
373,76	31,915
373,97	101,075
374,19	118,919
374,40	172,222
374,62	-733,333
374,84	224,000
375,05	162,162
375,27	98,113
375,48	125,581
375,70	36,364
375,92	233,333
376,13	48,889
376,35	1733,333
376,56	102,667
376,78	72,917
376,99	58,442
377,21	-3200,000
377,43	89,583
377,64	163,158
377,86	86,957
378,07	-13,333
378,29	-51,613
378,51	128,205
378,72	11,111
378,94	55,882
379,15	68,571
379,37	55,357
379,58	144,643
379,80	73,077
380,01	950,000
380,23	200,000
380,45	103,846
380,66	100,000
380,88	-700,000
381,09	105,714
381,31	79,710
381,52	158,333
381,74	144,776
381,95	143,902
382,17	96,667
382,39	113,636
382,60	392,308
382,82	182,857
383,03	92,308
383,25	94,872
383,46	126,829
383,68	130,357
383,89	780,000
384,11	36,364
384,32	-475,000
384,54	128,889
384,76	4400,000
384,97	88,889
385,19	29,167
385,40	81,250
385,62	211,111
385,83	164,865
386,05	155,814
386,26	102,703
386,48	108,000
386,69	141,509
386,91	141,176
387,12	191,667
387,34	78,431
387,55	100,000
387,77	252,381
387,98	-871,429
388,20	87,097
388,41	74,359
388,63	186,047
388,84	87,692
389,06	-2,564
389,27	64,286
389,49	181,250
389,70	63,095
389,92	67,187
390,13	-100,000
390,35	106,000
390,56	125,758
390,78	203,226
390,99	1066,667
391,21	82,143
391,42	145,902
391,64	44,444
391,85	106,667
392,07	102,000
392,28	52,500
392,50	38,596
392,71	-33,333
392,93	156,757
393,14	-52,632
393,36	328,125
393,57	150,980
393,79	137,879
394,00	94,545
394,22	72,727
394,43	245,000
394,65	1250,000
394,86	156,061
395,08	100,000
395,29	100,000
395,50	456,250
395,72	97,222
395,93	118,750
396,15	85,915
396,36	32,075
396,58	200,000
396,79	92,727
397,01	56,627
397,22	105,556
397,44	-60,000
397,65	109,211
397,87	94,872
398,08	78,000
398,29	-25,000
398,51	133,333
398,72	57,000
398,94	22,973
399,15	59,184
399,37	66,667
399,58	241,935
399,80	50,000
400,01	49,275
400,22	-2,041
400,44	113,333
400,65	393,333
400,87	1,639
401,08	38,158
401,30	71,000
401,51	31,818
401,72	27,907
401,94	114,516
402,15	45,763
402,37	87,879
402,58	86,667
402,80	17,857
403,01	85,106
403,22	41,667
403,44	55,000
403,65	-127,273
403,87	102,564
404,08	0,000
404,30	24,138
404,51	135,714
404,72	100,000
404,94	84,286
405,15	37,681
405,37	65,278
405,58	84,091
405,79	45,570
406,01	67,290
406,22	87,805
406,44	42,857
406,65	54,795
406,86	17,172
407,08	208,333
407,29	64,045
407,51	41,837
407,72	109,259
407,93	60,403
408,15	-27,027
408,36	68,519
408,58	31,707
408,79	64,516
409,00	53,409
409,22	41,758
409,43	42,697
409,64	35,088
409,86	29,078
410,07	24,074
410,29	5,618
410,50	28,082
410,71	83,721
410,93	16,471
411,14	32,031
411,35	4,310
411,57	20,874
411,78	16,588
412,00	32,768
412,21	43,931
412,42	26,961
412,64	27,778
412,85	9,845
413,06	12,195
413,28	27,429
413,49	10,795
413,70	26,715
413,92	18,352
414,13	17,375
414,34	13,242
414,56	15,161
414,77	10,227
414,98	9,254
415,20	23,393
415,41	13,480
415,63	9,146
415,84	24,233
416,05	14,320
416,27	10,386
416,48	12,500
416,69	12,319
416,91	8,740
417,12	7,094
417,33	4,038
417,55	2,643
417,76	12,146
417,97	15,905
418,19	10,453
418,40	5,082
418,61	5,317
418,83	7,527
419,04	4,878
419,25	12,745
419,46	12,107
419,68	7,989
419,89	6,083
420,10	3,141
420,32	5,450
420,53	4,642
420,74	10,967
420,96	5,155
421,17	4,867
421,38	5,049
421,60	5,970
421,81	9,677
422,02	3,434
422,23	9,414
422,45	4,577
422,66	5,678
422,87	3,793
423,09	5,685
423,30	2,276
423,51	0,870
423,73	4,715
423,94	4,552
424,15	2,630
424,36	3,719
424,58	5,696
424,79	2,495
425,00	2,742
425,22	2,881
425,43	3,887
425,64	1,413
425,85	6,137
426,07	1,484
426,28	5,626
426,49	3,616
426,71	2,331
426,92	2,765
427,13	2,891
427,34	4,687
427,56	1,917
427,77	1,479
427,98	1,213
428,19	0,329
428,41	2,542
428,62	1,961
428,83	1,304
429,04	2,901
429,26	1,278
429,47	2,679
429,68	1,421
429,89	0,939
430,11	2,721
430,32	1,209
430,53	1,243
430,74	0,905
430,96	0,938
431,17	0,565
431,38	1,898
431,59	2,775
431,81	1,229
432,02	1,375
432,23	0,926
432,44	1,990
432,66	1,439
432,87	0,186
433,08	1,222
433,29	0,484
433,51	0,807
433,72	0,457
433,93	0,308
434,14	0,829
434,35	1,552
434,57	0,622
434,78	0,954
434,99	0,682
435,20	0,981
435,42	1,060
435,63	0,734
435,84	1,269
436,05	-0,323
436,26	0,736
436,48	0,864
436,69	0,363
436,90	0,407
437,11	0,886
437,32	0,785
437,54	0,556
437,75	-0,122
437,96	1,130
438,17	0,992
438,38	0,417
438,60	0,736
438,81	0,681
439,02	0,719
439,23	0,638
439,44	0,994
439,66	0,584
439,87	0,685
440,08	1,114
440,29	0,477
440,50	0,708
440,72	0,626
440,93	-0,103
441,14	0,818
441,35	0,465
441,56	0,542
441,77	0,661
441,99	0,609
442,20	0,556
442,41	0,554
442,62	0,569
442,83	0,379
443,04	0,769
443,26	0,703
443,47	0,638
443,68	0,794
443,89	0,757
444,10	0,472
444,31	0,448
444,53	0,563
444,74	0,733
444,95	0,651
445,16	0,782
445,37	0,528
445,58	0,631
445,80	0,536
446,01	0,694
446,22	0,749
446,43	0,805
446,64	0,863
446,85	0,898
447,06	0,987
447,28	1,009
447,49	0,975
447,70	1,018
447,91	1,127
448,12	1,122
448,33	0,928
448,54	0,940
448,76	1,067
448,97	1,382
449,18	1,430
449,39	1,495
449,60	2,682
449,81	3,864
450,02	5,775
450,23	9,072
450,45	13,351
450,66	18,645
450,87	25,131
451,08	32,802
451,29	40,856
451,50	49,487
451,71	58,775
451,92	68,801
452,13	77,071
452,35	83,241
452,56	86,454
452,77	90,654
452,98	91,935
453,19	93,082
453,40	93,835
453,61	94,750
453,82	95,322
454,03	96,880
454,25	95,654
454,46	96,184
454,67	99,771
454,88	98,568
455,09	97,848
455,30	98,483
455,51	98,871
455,72	97,912
455,93	97,303
456,14	97,927
456,35	97,956
456,56	98,187
456,78	98,639
456,99	97,460
457,20	97,889
457,41	99,572
457,62	97,677
457,83	97,692
458,04	98,687
458,25	96,801
458,46	98,681
458,67	97,797
458,88	99,020
459,09	98,427
459,30	97,161
459,51	99,639
459,73	97,263
459,94	98,605
460,15	97,357
460,36	97,071
460,57	97,016
460,78	96,284
460,99	96,955
461,20	96,584
461,41	95,206
461,62	96,743
461,83	95,590
462,04	96,426
462,25	94,671
462,46	96,685
462,67	96,498
462,88	95,994
463,09	96,823
463,30	94,669
463,51	95,547
463,72	95,409
463,93	97,107
464,15	95,003
464,36	95,636
464,57	95,409
464,78	94,526
464,99	95,721
465,20	95,559
465,41	95,219
465,62	95,704
465,83	95,468
466,04	95,662
466,25	96,423
466,46	96,329
466,67	96,769
466,88	97,150
467,09	97,288
467,30	97,237
467,51	97,220
467,72	97,007
467,93	97,155
468,14	97,072
468,35	97,586
468,56	97,611
468,77	96,951
468,98	96,834
469,19	98,102
469,40	98,130
469,61	98,666
469,82	98,604
470,03	99,103
470,24	99,546
470,45	99,693
470,66	98,761
470,87	98,494
471,08	99,629
471,29	98,320
471,50	98,653
471,71	98,762
471,92	97,751
472,13	98,746
472,34	98,391
472,55	98,882
472,76	98,438
472,97	98,649
473,18	98,777
473,39	98,488
473,60	98,144
473,81	99,267
474,01	98,370
474,22	98,232
474,43	96,596
474,64	99,668
474,85	97,741
475,06	98,143
475,27	97,316
475,48	98,625
475,69	97,103
475,90	97,347
476,11	96,585
476,32	98,100
476,53	96,330
476,74	97,584
476,95	96,809
477,16	97,790
477,37	96,706
477,58	96,690
477,79	97,723
478,00	97,495
478,21	97,214
478,41	97,512
478,62	98,847
478,83	97,692
479,04	97,007
479,25	96,982
479,46	97,957
479,67	97,331
479,88	97,333
480,09	98,178
480,30	97,435
480,51	98,797
480,72	98,523
480,93	98,014
481,14	97,944
481,34	97,766
481,55	97,264
481,76	95,920
481,97	96,313
482,18	97,295
482,39	96,281
482,60	95,933
482,81	96,797
483,02	96,736
483,23	97,039
483,44	97,002
483,65	97,691
483,85	98,235
484,06	98,330
484,27	97,994
484,48	99,082
484,69	99,796
484,90	99,656
485,11	99,694
485,32	99,776
485,53	100,540
485,73	98,578
485,94	99,209
486,15	99,510
486,36	99,608
486,57	98,415
486,78	98,969
486,99	98,845
487,20	99,758
487,41	100,410
487,61	99,389
487,82	98,986
488,03	100,530
488,24	98,330
488,45	99,306
488,66	99,675
488,87	99,437
489,08	99,558
489,28	98,201
489,49	98,734
489,70	98,716
489,91	98,158
490,12	99,972
490,33	99,740
490,54	99,308
490,74	99,484
490,95	98,648
491,16	99,418
491,37	98,831
491,58	98,174
491,79	98,293
492,00	99,163
492,20	99,603
492,41	99,749
492,62	98,499
492,83	99,336
493,04	97,979
493,25	98,853
493,45	99,263
493,66	96,922
493,87	98,630
494,08	98,266
494,29	97,788
494,50	97,925
494,70	98,516
494,91	97,291
495,12	97,506
495,33	98,109
495,54	97,138
495,75	97,152
495,95	98,142
496,16	97,649
496,37	97,303
496,58	98,159
496,79	97,697
496,99	97,552
497,20	97,491
497,41	97,376
497,62	97,944
497,83	97,222
498,04	97,266
498,24	97,062
498,45	97,709
498,66	97,238
498,87	96,773
499,08	95,409
499,28	95,043
499,49	93,027
499,70	90,418
499,91	86,832
500,12	81,341
500,32	75,014
500,53	66,891
500,74	56,751
500,95	45,665
501,15	34,728
501,36	25,891
501,57	17,903
501,78	12,128
501,99	7,489
502,19	5,066
502,40	3,285
502,61	2,072
502,82	1,501
503,02	1,171
503,23	0,980
503,44	0,788
503,65	0,667
503,86	0,721
504,06	0,668
504,27	0,717
504,48	0,566
504,69	0,700
504,89	0,447
505,10	0,525
505,31	0,630
505,52	0,670
505,72	0,516
505,93	0,683
506,14	0,461
506,35	0,456
506,55	0,480
506,76	0,434
506,97	0,593
507,18	0,400
507,38	0,381
507,59	0,376
507,80	0,456
508,01	0,325
508,21	0,447
508,42	0,533
508,63	0,506
508,84	0,563
509,04	0,427
509,25	0,478
509,46	0,337
509,67	0,478
509,87	0,291
510,08	0,493
510,29	0,210
510,49	0,373
510,70	0,366
510,91	0,441
511,12	0,472
511,32	0,306
511,53	0,429
511,74	0,469
511,94	0,499
512,15	0,521
512,36	0,395
512,57	0,587
512,77	0,313
512,98	0,329
513,19	0,397
513,39	0,502
513,60	0,429
513,81	0,388
514,01	0,225
514,22	0,040
514,43	0,270
514,64	0,253
514,84	0,406
515,05	0,333
515,26	0,280
515,46	0,569
515,67	0,428
515,88	0,128
516,08	0,419
516,29	0,144
516,50	0,465
516,70	0,240
516,91	0,538
517,12	0,135
517,32	0,365
517,53	0,318
517,74	0,285
517,95	0,394
518,15	0,352
518,36	0,292
518,57	0,434
518,77	0,273
518,98	0,295
519,19	0,261
519,39	0,497
519,60	0,453
519,80	0,222
520,01	0,168
520,22	0,290
520,42	0,421
520,63	0,209
520,84	0,394
521,04	0,415
521,25	0,542
521,46	0,385
521,66	0,375
521,87	0,490
522,08	0,377
522,28	0,117
522,49	0,262
522,70	0,378
522,90	0,426
523,11	0,378
523,31	0,512
523,52	0,175
523,73	0,419
523,93	0,242
524,14	0,354
524,35	0,314
524,55	0,133
524,76	0,322
524,97	0,328
525,17	0,372
525,38	0,257
525,58	0,353
525,79	0,517
526,00	0,544
526,20	0,462
526,41	0,486
526,61	0,488
526,82	0,441
527,03	0,366
527,23	0,400
527,44	0,292
527,64	0,220
527,85	0,394
528,06	0,323
528,26	0,255
528,47	0,418
528,68	0,300
528,88	0,430
529,09	0,214
529,29	0,300
529,50	0,471
529,70	0,218
529,91	0,408
530,12	0,368
530,32	0,182
530,53	0,401
530,73	0,353
530,94	0,334
531,15	0,197
531,35	0,318
531,56	0,370
531,76	0,233
531,97	0,415
532,17	0,199
532,38	0,497
532,59	0,230
532,79	0,450
533,00	0,377
533,20	0,313
533,41	0,385
533,61	0,340
533,82	0,388
534,03	0,330
534,23	0,450
534,44	0,469
534,64	0,354
534,85	0,293
535,05	0,155
535,26	0,398
535,46	0,411
535,67	0,172
535,88	0,259
536,08	0,193
536,29	0,532
536,49	0,387
536,70	0,329
536,90	0,395
537,11	0,563
537,31	0,373
537,52	0,334
537,72	0,428
537,93	0,403
538,13	0,244
538,34	0,458
538,55	0,452
538,75	0,312
538,96	0,343
539,16	0,356
539,37	0,214
539,57	0,423
539,78	0,501
539,98	0,320
540,19	0,379
540,39	0,283
540,60	0,503
540,80	0,545
541,01	0,431
541,21	0,312
541,42	0,520
541,62	0,524
541,83	0,452
542,03	0,292
542,24	0,595
542,44	0,186
542,65	0,332
542,85	0,482
543,06	0,600
543,26	0,538
543,47	0,325
543,67	0,438
543,88	0,351
544,08	0,467
544,29	0,696
544,49	0,500
544,70	0,359
544,90	0,358
545,11	0,490
545,31	0,428
545,52	0,162
545,72	0,416
545,93	0,548
546,13	0,471
546,34	0,673
546,54	0,362
546,75	0,630
546,95	0,467
547,15	0,507
547,36	0,725
547,56	0,701
547,77	0,505
547,97	0,591
548,18	0,510
548,38	0,516
548,59	0,702
548,79	0,816
549,00	0,744
549,20	0,823
549,41	0,687
549,61	0,959
549,81	0,922
550,02	0,921
550,22	1,058
550,43	1,145
550,63	1,294
550,84	1,488
551,04	1,954
551,25	2,471
551,45	3,625
551,65	5,176
551,86	7,013
552,06	10,240
552,27	14,422
552,47	19,878
552,68	26,175
552,88	33,275
553,08	41,656
553,29	49,963
553,49	59,351
553,70	67,763
553,90	76,312
554,11	84,949
554,31	88,411
554,51	92,419
554,72	94,762
554,92	95,353
555,13	97,322
555,33	96,926
555,53	97,559
555,74	97,615
555,94	98,214
556,15	98,465
556,35	98,223
556,56	100,093
556,76	99,854
556,96	99,658
557,17	99,109
557,37	98,505
557,58	99,818
557,78	99,142
557,98	99,293
558,19	98,715
558,39	99,363
558,59	100,618
558,80	100,102
559,00	100,038
559,21	100,144
559,41	99,583
559,61	100,327
559,82	99,894
560,02	100,322
560,23	99,611
560,43	99,566
560,63	100,068
560,84	99,936
561,04	99,291
561,24	99,074
561,45	100,120
561,65	99,613
561,85	99,996
562,06	99,288
562,26	99,566
562,47	99,837
562,67	99,161
562,87	100,218
563,08	99,220
563,28	99,664
563,48	98,812
563,69	98,860
563,89	99,142
564,09	99,527
564,30	98,512
564,50	99,685
564,70	99,505
564,91	99,075
565,11	99,289
565,31	98,942
565,52	98,736
565,72	98,487
565,92	98,870
566,13	98,950
566,33	97,503
566,53	98,273
566,74	99,889
566,94	99,731
567,14	99,450
567,35	98,609
567,55	98,516
567,75	98,454
567,96	98,928
568,16	99,715
568,36	98,541
568,57	99,310
568,77	99,484
568,97	98,271
569,18	99,275
569,38	99,027
569,58	98,600
569,79	98,993
569,99	100,196
570,19	98,980
570,39	98,679
570,60	99,242
570,80	99,897
571,00	99,573
571,21	100,634
571,41	99,436
571,61	100,051
571,82	99,541
572,02	99,169
572,22	99,804
572,42	100,474
572,63	98,661
572,83	99,287
573,03	99,948
573,24	99,408
573,44	98,672
573,64	99,072
573,84	97,957
574,05	98,169
574,25	98,708
574,45	98,899
574,66	98,762
574,86	100,026
575,06	99,042
575,26	99,834
575,47	99,336
575,67	99,597
575,87	100,062
576,07	99,007
576,28	100,900
576,48	99,654
576,68	100,026
576,88	99,763
577,09	100,004
577,29	100,277
577,49	100,497
577,69	99,888
577,90	99,303
578,10	99,142
578,30	100,361
578,50	99,414
578,71	99,074
578,91	99,710
579,11	99,205
579,31	99,598
579,52	98,826
579,72	99,389
579,92	98,688
580,12	100,150
580,33	99,100
580,53	99,985
580,73	99,453
580,93	98,461
581,13	99,964
581,34	100,022
581,54	99,481
581,74	99,587
581,94	99,833
582,15	98,985
582,35	99,861
582,55	99,732
582,75	100,142
582,95	99,833
583,16	100,101
583,36	100,386
583,56	101,167
583,76	100,000
583,96	99,873
584,17	100,916
584,37	101,077
584,57	101,007
584,77	99,743
584,97	100,946
585,18	100,299
585,38	100,004
585,58	100,007
585,78	100,534
585,98	100,603
586,19	100,229
586,39	101,145
586,59	101,031
586,79	100,936
586,99	100,962
587,20	100,184
587,40	100,268
587,60	99,747
587,80	98,686
588,00	99,640
588,20	99,532
588,41	98,920
588,61	98,897
588,81	99,291
589,01	99,129
589,21	99,253
589,41	98,683
589,62	98,892
589,82	98,939
590,02	99,946
590,22	99,076
590,42	98,881
590,62	99,132
590,83	99,212
591,03	99,256
591,23	98,995
591,43	99,176
591,63	99,696
591,83	98,409
592,03	98,559
592,24	98,637
592,44	98,504
592,64	98,411
592,84	100,257
593,04	98,425
593,24	98,102
593,44	97,657
593,65	98,253
593,85	99,355
594,05	98,783
594,25	99,560
594,45	99,382
594,65	99,375
594,85	98,888
595,06	100,155
595,26	99,280
595,46	98,960
595,66	98,329
595,86	98,907
596,06	98,897
596,26	98,305
596,46	98,036
596,66	98,514
596,87	98,564
597,07	97,511
597,27	98,676
597,47	98,267
597,67	97,438
597,87	99,091
598,07	97,784
598,27	97,525
598,47	98,616
598,67	98,650
598,88	98,663
599,08	99,260
599,28	100,055
599,48	98,721
599,68	100,361
599,88	98,654
600,08	99,516
600,28	100,425
600,48	98,930
600,68	98,353
600,88	99,029
601,09	98,321
601,29	99,907
601,49	99,324
601,69	98,882
601,89	99,232
602,09	98,971
602,29	98,733
602,49	98,480
602,69	99,489
602,89	99,296
603,09	99,119
603,29	98,877
603,49	99,019
603,69	98,719
603,90	99,359
604,10	99,209
604,30	99,910
604,50	97,763
604,70	99,138
604,90	99,400
605,10	98,793
605,30	98,796
605,50	99,102
605,70	99,793
605,90	99,246
606,10	98,999
606,30	100,142
606,50	99,133
606,70	98,444
606,90	98,904
607,10	97,940
607,30	99,217
607,50	99,869
607,70	100,224
607,90	98,892
608,10	97,687
608,30	97,427
608,50	94,925
608,70	95,010
608,90	92,724
609,11	88,594
609,31	84,174
609,51	78,311
609,71	71,905
609,91	61,987
610,11	53,024
610,31	43,860
610,51	34,421
610,71	26,328
610,91	19,212
611,11	14,516
611,31	10,111
611,51	7,324
611,71	5,163
611,91	3,780
612,11	2,829
612,31	1,989
612,51	1,376
612,71	1,174
612,91	0,983
613,11	0,812
613,31	0,898
613,51	0,743
613,71	0,420
613,91	0,504
614,11	0,517
614,31	0,582
614,50	0,204
614,70	0,493
614,90	0,518
615,10	0,282
615,30	0,301
615,50	0,272
615,70	0,358
615,90	0,420
616,10	0,414
616,30	0,438
616,50	0,323
616,70	0,421
616,90	0,454
617,10	0,185
617,30	0,373
617,50	0,436
617,70	0,352
617,90	0,363
618,10	0,266
618,30	0,424
618,50	0,312
618,70	0,482
618,90	0,375
619,10	0,217
619,30	0,445
619,49	0,642
619,69	0,278
619,89	0,212
620,09	0,303
620,29	0,221
620,49	0,347
620,69	0,498
620,89	0,398
621,09	0,248
621,29	0,299
621,49	0,397
621,69	0,223
621,89	0,420
622,09	0,168
622,29	0,265
622,48	0,188
622,68	0,452
622,88	0,239
623,08	0,284
623,28	0,411
623,48	0,214
623,68	0,421
623,88	0,184
624,08	0,071
624,28	0,282
624,48	0,318
624,67	0,191
624,87	0,232
625,07	0,459
625,27	0,290
625,47	0,108
625,67	0,297
625,87	0,250
626,07	0,309
626,27	0,308
626,47	0,402
626,66	0,176
626,86	0,259
627,06	0,283
627,26	0,203
627,46	0,219
627,66	0,338
627,86	0,133
628,06	0,254
628,25	0,083
628,45	0,268
628,65	0,250
628,85	0,140
629,05	0,169
629,25	0,335
629,45	0,175
629,65	0,061
629,84	0,207
630,04	0,127
630,24	0,255
630,44	0,119
630,64	0,300
630,84	0,225
631,04	0,275
631,23	0,241
631,43	0,217
631,63	0,113
631,83	0,330
632,03	0,220
632,23	0,217
632,42	0,351
632,62	0,169
632,82	0,410
633,02	0,235
633,22	0,192
633,42	0,120
633,62	0,261
633,81	0,188
634,01	0,304
634,21	0,296
634,41	0,470
634,61	0,380
634,80	0,253
635,00	0,255
635,20	0,266
635,40	0,297
635,60	0,252
635,80	0,179
635,99	0,489
636,19	0,240
636,39	0,220
636,59	0,385
636,79	0,452
636,98	0,231
637,18	0,436
637,38	0,419
637,58	0,349
637,78	0,213
637,97	0,270
638,17	0,159
638,37	0,302
638,57	0,391
638,77	0,320
638,96	0,343
639,16	0,170
639,36	0,443
639,56	0,654
639,76	0,267
639,95	0,168
640,15	0,451
640,35	0,428
640,55	0,535
640,75	0,759
640,94	0,614
641,14	0,376
641,34	0,166
641,54	0,347
641,73	0,564
641,93	0,246
642,13	0,189
642,33	0,128
642,53	0,486
642,72	0,429
642,92	0,624
643,12	0,208
643,32	0,295
643,51	0,257
643,71	0,413
643,91	0,663
644,11	0,496
644,30	0,448
644,50	0,504
644,70	0,609
644,90	0,362
645,09	0,331
645,29	0,222
645,49	0,408
645,69	0,557
645,88	0,279
646,08	0,647
646,28	0,222
646,48	0,852
646,67	0,175
646,87	0,527
647,07	0,381
647,26	0,731
647,46	0,424
647,66	0,718
647,86	0,440
648,05	0,333
648,25	0,760
648,45	0,283
648,65	0,655
648,84	0,706
649,04	-0,091
649,24	0,720
649,43	0,627
649,63	0,611
649,83	0,579
650,03	0,622
650,22	0,797
650,42	0,677
650,62	0,273
650,81	1,336
651,01	1,318
651,21	1,751
651,40	2,026
651,60	2,799
651,80	3,320
652,00	4,883
652,19	6,158
652,39	7,930
652,59	10,689
652,78	14,535
652,98	17,847
653,18	23,083
653,37	29,690
653,57	34,577
653,77	40,878
653,96	48,007
654,16	56,157
654,36	63,698
654,55	70,039
654,75	75,463
654,95	81,046
655,14	84,266
655,34	89,138
655,54	90,297
655,73	92,235
655,93	95,456
656,13	94,426
656,32	94,347
656,52	95,395
656,72	97,124
656,91	95,264
657,11	93,732
657,31	95,019
657,50	95,963
657,70	95,951
657,90	94,530
658,09	94,766
658,29	94,751
658,49	95,295
658,68	94,307
658,88	96,432
659,07	95,819
659,27	96,070
659,47	97,580
659,66	98,357
659,86	96,497
660,06	96,603
660,25	96,416
660,45	96,087
660,64	97,530
660,84	97,067
661,04	95,600
661,23	96,487
661,43	97,102
661,63	96,730
661,82	96,544
662,02	96,590
662,21	97,044
662,41	95,772
662,61	95,482
662,80	98,147
663,00	97,677
663,19	97,135
663,39	98,474
663,59	98,362
663,78	96,511
663,98	97,458
664,17	95,828
664,37	96,493
664,57	96,459
664,76	98,158
664,96	96,123
665,15	97,211
665,35	97,234
665,55	97,542
665,74	96,929
665,94	96,645
666,13	96,992
666,33	96,172
666,53	96,359
666,72	95,371
666,92	97,981
667,11	97,421
667,31	95,611
667,50	94,289
667,70	96,597
667,90	95,361
668,09	96,215
668,29	96,372
668,48	93,879
668,68	96,135
668,87	95,464
669,07	95,567
669,26	96,455
669,46	94,091
669,66	95,648
669,85	96,431
670,05	95,901
670,24	96,867
670,44	94,677
670,63	94,445
670,83	96,072
671,02	96,713
671,22	95,783
671,42	94,384
671,61	95,415
671,81	98,061
672,00	94,650
672,20	96,437
672,39	96,333
672,59	96,451
672,78	96,511
672,98	95,015
673,17	94,983
673,37	95,558
673,56	96,217
673,76	94,851
673,95	97,036
674,15	96,561
674,34	96,606
674,54	95,323
674,73	95,409
674,93	95,277
675,13	95,646
675,32	95,871
675,52	96,783
675,71	95,773
675,91	97,566
676,10	94,959
676,30	95,976
676,49	95,497
676,69	96,081
676,88	96,487
677,08	95,198
677,27	95,201
677,47	95,537
677,66	94,607
677,86	94,991
678,05	96,569
678,24	95,443
678,44	95,109
678,63	95,196
678,83	95,073
679,02	94,903
679,22	95,399
679,41	95,095
679,61	93,518
679,80	94,467
680,00	94,874
680,19	93,639
680,39	93,665
680,58	94,805
680,78	94,253
680,97	95,061
681,17	93,451
681,36	94,870
681,56	93,554
681,75	94,032
681,94	93,950
682,14	93,367
682,33	93,705
682,53	94,437
682,72	94,334
682,92	93,099
683,11	94,230
683,31	93,371
683,50	94,559
683,69	94,356
683,89	93,792
684,08	93,954
684,28	93,571
684,47	94,390
684,67	94,093
684,86	92,551
685,06	92,931
685,25	94,232
685,44	93,920
685,64	94,496
685,83	94,640
686,03	95,054
686,22	94,299
686,42	94,161
686,61	95,507
686,80	94,986
687,00	95,628
687,19	95,295
687,39	95,053
687,58	95,427
687,77	94,966
687,97	94,983
688,16	95,585
688,36	95,260
688,55	94,612
688,74	94,394
688,94	95,650
689,13	94,694
689,33	94,927
689,52	95,697
689,71	95,142
689,91	94,985
690,10	95,266
690,30	94,675
690,49	94,294
690,68	94,994
690,88	95,470
691,07	95,232
691,27	95,318
691,46	95,645
691,65	94,768
691,85	95,289
692,04	95,793
692,23	96,175
692,43	95,413
692,62	96,360
692,82	96,371
693,01	96,074
693,20	96,135
693,40	96,881
693,59	97,342
693,78	97,239
693,98	97,879
694,17	97,630
694,36	98,378
694,56	98,242
694,75	98,596
694,94	99,541
695,14	99,653
695,33	100,266
695,53	100,090
695,72	100,725
695,91	99,785
696,11	100,504
696,30	101,083
696,49	101,802
696,69	100,714
696,88	101,127
697,07	102,541
697,27	103,043
697,46	102,651
697,65	103,864
697,85	102,969
698,04	103,856
698,23	104,331
698,43	104,660
698,62	103,737
698,81	105,017
699,01	104,079
699,20	104,494
699,39	105,145
699,58	103,685
699,78	105,186
699,97	105,398
700,16	105,337
700,36	106,144
700,55	106,112
700,74	107,448
700,94	107,247
701,13	105,818
701,32	105,819
701,52	104,926
701,71	105,244
701,90	105,771
702,09	105,451
702,29	103,698
702,48	104,048
702,67	105,694
702,87	106,949
703,06	103,211
703,25	105,975
703,44	104,854
703,64	103,606
703,83	103,315
704,02	105,066
704,22	105,539
704,41	101,461
704,60	102,310
704,79	102,171
704,99	101,147
705,18	103,734
705,37	102,597
705,56	104,529
705,76	100,615
705,95	104,782
706,14	100,420
706,33	102,632
706,53	101,626
706,72	100,332
706,91	105,134
707,11	98,113
707,30	102,960
707,49	99,828
707,68	100,066
707,88	99,841
708,07	100,835
708,26	98,757
708,45	94,814
708,64	94,978
708,84	94,115
709,03	89,979
709,22	86,506
709,41	84,902
709,61	81,003
709,80	75,650
709,99	66,885
710,18	61,189
710,38	56,765
710,57	47,788
710,76	42,724
710,95	35,003
711,14	27,595
711,34	24,171
711,53	17,356
711,72	14,252
711,91	11,720
712,11	9,569
712,30	8,348
712,49	5,732
712,68	6,721
712,87	5,236
713,07	6,056
713,26	3,066
713,45	2,638
713,64	3,235
713,83	4,113
714,03	1,460
714,22	0,654
714,41	4,066
714,60	3,273
714,79	3,718
714,99	2,235
715,18	2,493
715,37	0,726
715,56	2,952
715,75	2,933
715,94	1,017
716,14	0,529
716,33	0,932
716,52	2,392
716,71	2,981
716,90	1,846
717,10	3,427
717,29	4,260
717,48	2,494
717,67	2,372
717,86	1,773
718,05	3,859
718,24	3,528
718,44	3,177
718,63	2,612
718,82	3,832
719,01	0,615
719,20	3,185
719,39	4,023
719,59	3,483
719,78	1,309
719,97	5,662
720,16	0,630
720,35	3,259
720,54	3,696
720,73	2,842
720,93	2,577
721,12	-0,432
721,31	4,300
721,50	4,048
721,69	4,331
721,88	4,020
722,07	3,108
722,27	1,090
722,46	-0,579
722,65	4,404
722,84	3,315
723,03	4,307
723,22	4,878
723,41	2,903
723,60	-2,104
723,79	2,002
723,99	4,383
724,18	1,845
724,37	1,064
724,56	2,790
724,75	1,786
724,94	6,940
725,13	2,032
725,32	3,607
725,51	1,075
725,71	2,164
725,90	4,949
726,09	2,186
726,28	5,932
726,47	6,066
726,66	0,876
726,85	5,745
727,04	3,421
727,23	5,176
727,42	4,084
727,61	-0,520
727,81	2,925
728,00	6,419
728,19	8,042
728,38	-0,641
728,57	5,161
728,76	7,605
728,95	0,000
729,14	8,146
729,33	0,000
729,52	4,611
729,71	6,752
729,90	2,095
730,09	2,249
730,28	6,147
730,48	1,695
730,67	6,824
730,86	6,805
731,05	2,331
731,24	0,589
731,43	9,275
731,62	-0,617
731,81	4,805
732,00	7,098
732,19	2,381
732,38	6,424
732,57	4,397
732,76	-3,881
732,95	6,675
733,14	5,013
733,33	3,194
733,52	3,930
733,71	6,117
733,90	3,458
734,09	0,801
734,28	11,286
734,47	1,029
734,66	2,525
734,85	4,372
735,04	6,026
735,23	9,418
735,42	5,957
735,61	1,524
735,81	5,256
736,00	-2,256
736,19	-1,649
736,38	0,902
736,57	3,639
736,76	2,798
736,95	1,595
737,14	7,515
737,33	-0,156
737,52	1,520
737,71	13,110
737,90	3,035
738,09	0,690
738,28	5,682
738,47	9,003
738,66	6,610
738,85	0,000
739,04	2,576
739,22	7,719
739,41	-5,236
739,60	0,898
739,79	2,842
739,98	7,345
740,17	6,419
740,36	7,197
740,55	3,097
740,74	1,487
740,93	5,902
741,12	17,128
741,31	4,294
741,50	2,962
741,69	4,067
741,88	5,954
742,07	8,304
742,26	2,677
742,45	4,710
742,64	3,265
742,83	2,637
743,02	-0,402
743,21	-4,740
743,40	12,835
743,59	4,126
743,78	-6,329
743,97	12,903
744,16	-1,724
744,34	4,132
744,53	10,776
744,72	3,397
744,91	10,062
745,10	8,276
745,29	-2,113
745,48	7,860
745,67	12,000
745,86	3,942
746,05	6,040
746,24	4,741
746,43	6,576
746,62	11,243
746,81	0,948
747,00	12,917
747,18	3,636
747,37	3,864
747,56	14,416
747,75	3,069
747,94	2,020
748,13	10,981
748,32	7,073
748,51	3,981
748,70	17,986
748,89	5,108
749,08	10,591
749,26	8,000
749,45	7,963
749,64	2,584
749,83	7,371
750,02	2,413
750,21	4,948
750,40	2,111
750,59	11,968
750,78	18,795
750,96	8,978
751,15	15,818
751,34	12,776
751,53	12,778
751,72	9,920
751,91	-2,100
752,10	19,437
752,29	0,000
752,47	6,609
752,66	13,905
752,85	15,608
753,04	2,973
753,23	8,946
753,42	8,978
753,61	20,365
753,80	-2,102
753,98	9,687
754,17	12,748
754,36	7,843
754,55	8,795
754,74	15,676
754,93	16,774
755,12	-3,077
755,30	-4,797
755,49	4,985
755,68	14,521
755,87	17,747
756,06	10,086
756,25	-9,571
756,43	6,475
756,62	5,054
756,81	-3,529
757,00	17,033
757,19	12,883
757,38	17,915
757,56	18,581
757,75	-7,252
757,94	5,172
758,13	8,917
758,32	1,894
758,51	14,839
758,69	0,000
758,88	15,738
759,07	21,708
759,26	-5,442
759,45	18,929
759,63	1,581
759,82	8,394
760,01	12,153
760,20	20,803
760,39	19,157
760,57	2,146
760,76	-1,908
760,95	9,195
761,14	1,923
761,33	10,547
761,51	21,111
761,70	18,621
761,89	25,581
762,08	0,862
762,27	-0,481
762,45	-1,887
762,64	6,637
762,83	24,535
763,02	23,875
763,21	9,859
763,39	4,977
763,58	2,449
763,77	2,128
763,96	23,392
764,14	5,394
764,33	26,692
764,52	18,304
764,71	5,419
764,89	13,514
765,08	18,352
765,27	7,426
765,46	-0,455
765,65	12,183
765,83	11,905
766,02	12,088
766,21	10,970
766,40	40,930
766,58	21,719
766,77	-19,209
766,96	3,077
767,15	14,010
767,33	8,173
767,52	-2,370
767,71	-4,444
767,90	-4,167
768,08	19,742
768,27	-6,977
768,46	6,667
768,64	5,825
768,83	4,324
769,02	15,238
769,21	18,229
769,39	-5,369
769,58	28,500
769,77	5,978
769,96	11,921
770,14	20,229
770,33	26,203
770,52	31,410
770,70	14,356
770,89	10,714
771,08	16,146
771,27	10,309
771,45	27,746
771,64	7,237
771,83	20,968
772,01	-6,107
772,20	-0,505
772,39	-14,013
772,57	26,563
772,76	29,655
772,95	23,350
773,14	29,651
773,32	20,330
773,51	22,326
773,70	-1,325
773,88	26,131
774,07	28,870
774,26	46,951
774,44	32,663
774,63	22,152
774,82	24,699
775,00	22,707
775,19	18,391
775,38	10,000
775,56	25,610
775,75	0,000
775,94	8,955
776,12	33,333
776,31	20,958
776,50	23,030
776,68	-3,704
776,87	26,573
777,06	-10,959
777,24	10,656
777,43	15,447
777,62	5,926
777,80	17,391
777,99	13,376
778,18	35,669
778,36	29,008
778,55	12,593
778,74	-12,121
778,92	47,964
779,11	22,581
779,29	30,065
779,48	-11,570
779,67	19,424
779,85	30,400
780,04	52,817
780,23	21,678
780,41	-2,941
780,60	2,924
780,79	29,167
780,97	17,143
781,16	18,400
781,34	36,364
781,53	17,308
781,72	48,148
781,90	20,192
782,09	-1,639
782,28	37,398
782,46	14,634
782,65	8,392
782,83	-9,160
783,02	28,000
783,21	28,682
783,39	24,359
783,58	44,000
783,76	-22,973
783,95	20,530
784,14	5,263
784,32	2,752
784,51	-10,112
784,69	-1,911
784,88	39,355
785,06	6,383
785,25	0,752
785,44	47,973
785,62	-5,714
785,81	21,642
785,99	10,884
786,18	13,115
786,37	28,276
786,55	26,866
786,74	30,435
786,92	5,233
787,11	-0,800
787,29	11,765
787,48	14,000
787,67	10,204
787,85	-43,750
788,04	19,863
788,22	6,481
788,41	31,579
788,59	55,782
788,78	-0,694
788,96	24,762
789,15	29,508
789,34	43,902
789,52	17,164
789,71	-12,698
789,89	27,193
790,08	12,745
790,26	25,397
790,45	46,715
790,63	13,816
790,82	29,839
791,00	29,365
791,19	17,857
791,38	27,397
791,56	26,316
791,75	4,054
791,93	-4,902
792,12	-3,030
792,30	28,289
792,49	21,495
792,67	22,857
792,86	-2,703
793,04	-4,762
793,23	41,447
793,41	23,226
793,60	22,152
793,78	38,255
793,97	42,241
794,15	26,144
794,34	14,286
794,52	21,705
794,71	30,864
794,89	18,571
795,08	10,256
795,26	12,000
795,45	34,043
795,63	13,836
795,82	35,294
796,00	-46,154
796,19	7,792
796,37	12,712
796,56	-57,407
796,74	30,469
796,93	-2,521
797,11	20,000
797,30	46,565
797,48	25,874
797,67	55,645
797,85	-9,420
798,04	9,009
798,22	26,619
798,41	56,780
798,59	3,571
798,77	25,641
798,96	11,290
799,14	21,296
799,33	23,894
799,51	12,871
799,70	-17,582
799,88	-0,917
800,07	16,547
800,25	28,244
800,44	74,257
800,62	17,986
800,80	-4,545
800,99	-17,949
801,17	21,379
801,36	16,667
801,54	19,380
801,73	19,697
801,91	37,079
802,10	62,353
802,28	19,685
802,46	26,613
802,65	7,947
802,83	20,661
803,02	40,306
803,20	35,593
803,39	32,110
803,57	19,718
803,75	21,429
803,94	38,514
804,12	38,509
804,31	9,615
804,49	41,935
804,67	1,802
804,86	8,075
805,04	31,008
805,23	47,445
805,41	10,784
805,59	19,277
805,78	7,857
805,96	35,542
806,15	22,400
806,33	-7,299
806,51	39,744
806,70	-29,070
806,88	9,091
807,07	51,639
807,25	23,478
807,43	-41,111
807,62	28,906
807,80	2,439
807,99	23,022
808,17	25,694
808,35	-23,585
808,54	20,112
808,72	9,615
808,90	30,081
809,09	-11,679
809,27	18,447
809,46	5,607
809,64	25,434
809,82	21,379
810,01	16,129
810,19	13,636
810,37	39,773
810,56	4,636
810,74	38,365
810,92	5,634
811,11	11,043
811,29	29,193
811,48	2,609
811,66	19,797
811,84	-18,644
812,03	18,919
812,21	24,848
812,39	29,839
812,58	20,468
812,76	35,036
812,94	-13,423
813,13	9,146
813,31	46,032
813,49	40,000
813,68	18,852
813,86	16,667
814,04	27,928
814,23	20,769
814,41	-2,740
814,59	4,575
814,78	26,174
814,96	19,553
815,14	22,111
815,33	-23,140
815,51	11,811
815,69	19,847
815,87	-6,452
816,06	44,279
816,24	13,725
816,42	11,905
816,61	25,309
816,79	12,717
816,97	8,974
817,16	8,929
817,34	17,059
817,52	23,364
817,70	21,762
817,89	14,833
818,07	-2,667
818,25	22,785
818,44	11,230
818,62	22,277
818,80	12,088
818,98	2,564
819,17	17,373
819,35	-5,369
819,53	23,077
819,72	15,676
819,90	23,556
820,08	23,762
820,26	7,763
820,45	-12,366
820,63	15,205
820,81	-3,211
820,99	25,328
821,18	12,651
821,36	12,500
821,54	7,463
821,73	24,044
821,91	2,113
822,09	13,609
822,27	22,957
822,46	17,734
822,64	8,947
822,82	38,579
823,00	19,895
823,19	28,571
823,37	20,940
823,55	4,641
823,73	7,865
823,91	-21,925
824,10	13,021
824,28	6,612
824,46	-21,711
824,64	29,151
824,83	18,009
825,01	-17,059
825,19	29,258
825,37	14,706
825,56	18,321
825,74	17,316
825,92	32,296
826,10	12,335
826,28	15,867
826,47	14,008
826,65	13,669
826,83	22,368
827,01	20,079
827,19	28,682
827,38	20,974
827,56	19,000
827,74	0,474
827,92	1,951
828,10	13,889
828,29	-0,369
828,47	11,314
828,65	14,453
828,83	-1,266
829,01	-3,153
829,20	16,923
829,38	11,066
829,56	15,152
829,74	10,769
829,92	13,765
830,10	0,858
830,29	16,092
830,47	13,433
830,65	3,766
830,83	6,122
831,01	5,381
831,20	-6,934
831,38	12,378
831,56	3,158
831,74	13,559
831,92	1,465
832,10	8,228
832,29	8,834
832,47	11,348
832,65	8,852
832,83	19,620
833,01	18,127
833,19	14,205
833,37	16,413
833,56	11,607
833,74	12,459
833,92	14,865
834,10	19,277
834,28	0,348
834,46	8,382
834,64	20,267
834,83	5,949
835,01	12,794
835,19	-1,418
835,37	8,475
835,55	15,581
835,73	-1,130
835,91	5,310
836,09	11,184
836,28	4,573
836,46	9,440
836,64	6,824
836,82	5,769
837,00	-9,265
837,18	2,667
837,36	9,384
837,54	3,005
837,72	4,051
837,91	9,348
838,09	-1,515
838,27	-2,073
838,45	13,973
838,63	6,479
838,81	3,647
838,99	8,223
839,17	-2,795
839,35	7,449
839,53	2,041
839,72	17,582
839,90	8,000
840,08	8,000
840,26	6,037
840,44	0,763
840,62	-12,129
840,80	18,242
840,98	15,436
841,16	1,630
841,34	15,033
841,52	1,522
841,70	0,248
841,89	9,795
842,07	9,425
842,25	10,273
842,43	2,433
842,61	8,511
842,79	3,855
842,97	7,094
843,15	0,835
843,33	6,996
843,51	2,826
843,69	8,789
843,87	17,137
844,05	5,832
844,23	5,613
844,41	15,308
844,59	8,506
844,77	0,825
844,95	4,978
845,13	4,000
845,31	3,143
845,50	4,348
845,68	8,351
845,86	3,252
846,04	8,787
846,22	8,947
846,40	0,826
846,58	9,163
846,76	11,968
846,94	-3,777
847,12	0,192
847,30	7,692
847,48	5,829
847,66	-0,412
847,84	6,184
848,02	-1,287
848,20	5,085
848,38	4,643
848,56	2,693
848,74	10,565
848,92	8,247
849,10	9,331
849,28	3,465
849,46	-1,848
849,64	6,822
849,82	11,981
850,00	-2,698
850,18	3,170
850,36	1,656
850,54	11,821
850,72	2,648
850,90	8,709
851,08	4,567
851,26	0,000
851,44	6,624
851,62	11,931
851,80	1,205
851,98	1,508
852,16	0,598
852,34	4,507
852,52	6,065
852,70	6,531
852,87	1,456
853,05	2,006
853,23	0,295
853,41	8,169
853,59	4,329
853,77	4,215
853,95	2,212
854,13	5,114
854,31	0,270
854,49	1,406
854,67	9,423
854,85	4,852
855,03	7,595
855,21	2,646
855,39	13,394
855,57	5,742
855,75	4,648
855,93	-5,618
856,11	1,686
856,28	1,731
856,46	0,000
856,64	1,039
856,82	6,519
857,00	1,015
857,18	7,020
857,36	5,473
857,54	8,648
857,72	6,541
857,90	-2,349
858,08	-2,734
858,26	2,854
858,44	0,239
858,61	4,294
858,79	0,119
858,97	9,298
859,15	7,843
859,33	4,444
859,51	2,890
859,69	3,409
859,87	4,595
860,05	-3,690
860,23	2,836
860,40	1,639
860,58	1,998
860,76	-0,435
860,94	1,282
861,12	3,723
861,30	3,132
861,48	5,171
861,66	5,846
861,84	0,649
862,01	4,404
862,19	7,317
862,37	2,167
862,55	4,251
862,73	-0,517
862,91	5,994
863,09	2,053
863,27	-0,310
863,44	4,230
863,62	8,180
863,80	1,561
863,98	5,341
864,16	2,757
864,34	2,994
864,52	8,885
864,69	7,430
864,87	-0,102
865,05	1,369
865,23	-1,717
865,41	-4,861
865,59	3,479
865,76	3,918
865,94	1,657
866,12	3,217
866,30	1,759
866,48	3,366
866,66	6,783
866,83	3,942
867,01	2,560
867,19	3,462
867,37	3,276
867,55	4,337
867,73	2,490
867,90	3,577
868,08	4,508
868,26	3,382
868,44	1,338
868,62	4,366
868,79	1,005
868,97	3,912
869,15	1,679
869,33	5,087
869,51	3,066
869,69	0,322
869,86	-0,084
870,04	4,305
870,22	6,711
870,40	8,320
870,57	2,222
870,75	3,501
870,93	0,918
871,11	3,914
871,29	5,751
871,46	0,462
871,64	5,367
871,82	6,033
872,00	6,175
872,18	6,370
872,35	6,996
872,53	7,631
872,71	4,932
872,89	7,868
873,06	8,623
873,24	12,005
873,42	12,302
873,60	10,571
873,77	13,167
873,95	11,273
874,13	15,047
874,31	14,352
874,49	13,263
874,66	12,077
874,84	14,041
875,02	16,088
875,20	14,375
875,37	12,696
875,55	13,914
875,73	14,543
875,91	15,012
876,08	10,559
876,26	12,338
876,44	12,530
876,61	14,008
876,79	11,852
876,97	9,377
877,15	13,153
877,32	7,262
877,50	13,152
877,68	11,853
877,86	13,012
878,03	14,003
878,21	11,358
878,39	11,915
878,56	14,101
878,74	17,346
878,92	14,286
879,10	16,550
879,27	21,056
879,45	18,497
879,63	17,805
879,80	19,403
879,98	21,929
880,16	23,018
880,34	25,133
880,51	26,652
880,69	25,564
880,87	27,778
881,04	29,177
881,22	30,569
881,40	33,349
881,57	31,479
881,75	35,150
881,93	35,618
882,10	38,224
882,28	36,436
882,46	39,633
882,63	42,003
882,81	39,398
882,99	39,241
883,16	39,346
883,34	40,629
883,52	40,487
883,69	37,684
883,87	38,399
884,05	36,036
884,22	30,682
884,40	30,125
884,58	26,144
884,75	26,034
884,93	26,223
885,11	26,809
885,28	24,989
885,46	19,154
885,64	18,708
885,81	17,103
885,99	16,174
886,17	17,527
886,34	15,173
886,52	15,697
886,70	13,595
886,87	11,331
887,05	14,291
887,22	12,120
887,40	14,836
887,58	11,184
887,75	14,189
887,93	12,654
888,11	11,794
888,28	14,409
888,46	13,698
888,63	13,732
888,81	15,047
888,99	17,347
889,16	13,560
889,34	15,970
889,51	17,818
889,69	17,448
889,87	18,721
890,04	19,331
890,22	19,579
890,39	19,256
890,57	23,288
890,75	24,405
890,92	23,466
891,10	23,729
891,27	25,757
891,45	25,725
891,63	26,236
891,80	26,882
891,98	26,091
892,15	25,295
892,33	27,087
892,51	26,580
892,68	24,900
892,86	27,506
893,03	23,876
893,21	26,977
893,38	25,961
893,56	25,411
893,74	24,788
893,91	21,510
894,09	21,595
894,26	17,590
894,44	17,651
894,61	17,668
894,79	17,038
894,96	14,065
895,14	14,307
895,32	12,905
895,49	13,041
895,67	10,938
895,84	11,875
896,02	9,694
896,19	9,135
896,37	9,263
896,54	9,450
896,72	7,547
896,89	8,461
897,07	6,898
897,25	6,325
897,42	7,904
897,60	7,390
897,77	5,250
897,95	5,227
898,12	6,291
898,30	5,736
898,47	4,952
898,65	6,347
898,82	5,618
899,00	6,298
899,17	5,560
899,35	5,748
899,52	5,556
899,70	5,054
899,87	5,026
900,05	6,601
900,22	5,197
900,40	5,632
900,57	5,417
900,75	6,712
900,92	5,477
901,10	5,427
901,27	5,576
901,45	5,086
901,62	6,965
901,80	6,556
901,97	7,186
902,15	7,124
902,32	8,052
902,50	8,746
902,67	9,523
902,85	9,479
903,02	8,062
903,20	9,899
903,37	9,623
903,54	10,191
903,72	11,241
903,89	11,887
904,07	11,915
904,24	13,230
904,42	13,327
904,59	14,388
904,77	15,323
904,94	15,881
905,12	16,609
905,29	16,267
905,47	18,745
905,64	18,517
905,81	17,970
905,99	18,724
906,16	20,408
906,34	20,583
906,51	20,054
906,69	20,251
906,86	22,420
907,03	21,716
907,21	20,775
907,38	21,137
907,56	20,939
907,73	21,029
907,91	20,955
908,08	21,216
908,25	20,135
908,43	22,118
908,60	20,548
908,78	19,016
908,95	18,358
909,13	16,998
909,30	16,083
909,47	17,127
909,65	16,053
909,82	15,068
910,00	14,649
910,17	15,442
910,34	13,761
910,52	12,759
910,69	11,722
910,87	12,133
911,04	10,937
911,21	12,184
911,39	12,240
911,56	10,594
911,73	9,917
911,91	11,104
912,08	11,888
912,26	11,199
912,43	10,786
912,60	10,533
912,78	10,205
912,95	10,522
913,13	9,778
913,30	10,708
913,47	10,002
913,65	10,464
913,82	9,915
913,99	9,926
914,17	11,396
914,34	10,457
914,51	11,711
914,69	10,534
914,86	12,748
915,03	12,027
915,21	11,433
915,38	13,287
915,56	14,048
915,73	12,014
915,90	13,225
916,08	16,778
916,25	16,235
916,42	16,435
916,60	17,539
916,77	18,275
916,94	19,105
917,12	19,925
917,29	20,642
917,46	21,773
917,64	22,418
917,81	23,266
917,98	23,888
918,16	26,345
918,33	28,301
918,50	29,017
918,67	29,859
918,85	31,594
919,02	33,190
919,19	35,624
919,37	37,163
919,54	39,195
919,71	39,244
919,89	39,748
920,06	42,991
920,23	44,491
920,41	44,164
920,58	45,086
920,75	48,523
920,92	48,587
921,10	50,018
921,27	51,504
921,44	51,935
921,62	51,209
921,79	52,303
921,96	53,414
922,13	53,868
922,31	53,960
922,48	52,313
922,65	53,424
922,82	52,347
923,00	52,140
923,17	51,296
923,34	50,243
923,52	48,226
923,69	49,044
923,86	47,407
924,03	45,825
924,21	44,705
924,38	44,780
924,55	43,846
924,72	43,302
924,90	42,586
925,07	41,601
925,24	40,226
925,41	39,791
925,59	40,968
925,76	40,442
925,93	40,404
926,10	40,383
926,28	39,434
926,45	40,986
926,62	39,599
926,79	38,966
926,96	37,730
927,14	39,661
927,31	38,955
927,48	39,841
927,65	41,191
927,83	41,244
928,00	40,947
928,17	41,216
928,34	42,848
928,51	42,970
928,69	43,674
928,86	44,749
929,03	45,973
929,20	46,508
929,37	46,673
929,55	48,443
929,72	49,458
929,89	52,079
930,06	50,523
930,23	49,954
930,41	53,857
930,58	53,858
930,75	51,230
930,92	56,060
931,09	55,961
931,27	56,534
931,44	57,525
931,61	57,220
931,78	59,118
931,95	60,281
932,12	59,167
932,30	60,461
932,47	59,882
932,64	57,990
932,81	60,317
932,98	60,700
933,16	61,682
933,33	61,171
933,50	59,653
933,67	60,232
933,84	59,158
934,01	57,081
934,18	57,166
934,36	56,357
934,53	55,851
934,70	57,004
934,87	55,561
935,04	53,910
935,21	53,156
935,38	55,031
935,56	52,478
935,73	50,691
935,90	50,205
936,07	50,089
936,24	49,349
936,41	47,149
936,58	46,513
936,76	47,926
936,93	45,429
937,10	44,838
937,27	45,583
937,44	45,932
937,61	44,374
937,78	43,600
937,95	43,680
938,13	43,161
938,30	44,509
938,47	44,459
938,64	44,956
938,81	43,986
938,98	45,203
939,15	44,818
939,32	44,770
939,49	46,087
939,66	44,626
939,84	47,220
940,01	48,018
940,18	48,407
940,35	50,153
940,52	49,412
940,69	49,561
940,86	51,356
941,03	53,203
941,20	52,937
941,37	52,463
941,54	54,456
941,71	54,825
941,89	55,327
942,06	56,929
942,23	58,180
942,40	57,204
942,57	58,736
942,74	58,758
942,91	57,998
943,08	63,199
943,25	61,209
943,42	60,862
943,59	63,893
943,76	63,075
943,93	62,542
944,10	63,944
944,27	64,872
944,44	62,312
944,61	63,524
944,79	61,920
944,96	62,219
945,13	61,775
945,30	60,863
945,47	59,993
945,64	60,411
945,81	59,018
945,98	60,728
946,15	57,860
946,32	56,540
946,49	56,940
946,66	54,373
946,83	54,136
947,00	51,100
947,17	51,681
947,34	50,924
947,51	47,806
947,68	49,268
947,85	49,115
948,02	46,318
948,19	45,860
948,36	47,543
948,53	42,678
948,70	42,784
948,87	42,043
949,04	41,552
949,21	39,636
949,38	38,624
949,55	38,024
949,72	37,621
949,89	37,957
950,06	36,565
950,23	36,396
950,40	35,485
950,57	35,196
950,74	36,525
950,91	33,325
951,08	35,806
951,25	35,353
951,42	33,879
951,59	34,511
951,76	36,180
951,93	37,045
952,10	33,983
952,27	34,766
952,44	37,168
952,61	36,380
952,77	35,603
952,94	34,487
953,11	36,215
953,28	37,610
953,45	36,781
953,62	38,637
953,79	37,756
953,96	41,407
954,13	37,763
954,30	39,692
954,47	39,808
954,64	41,947
954,81	40,346
954,98	41,894
955,15	42,120
955,32	42,382
955,49	43,813
955,65	46,718
955,82	46,611
955,99	45,144
956,16	45,842
956,33	47,211
956,50	48,611
956,67	45,955
956,84	46,574
957,01	49,829
957,18	46,846
957,35	50,421
957,52	46,007
957,68	44,620
957,85	45,600
958,02	48,114
958,19	47,168
958,36	46,585
958,53	47,797
958,70	46,720
958,87	45,347
959,04	48,752
959,21	44,297
959,37	46,268
959,54	42,222
959,71	43,954
959,88	40,605
960,05	38,323
960,22	38,842
960,39	43,760
960,56	36,283
960,72	38,197
960,89	36,064
961,06	36,916
961,23	31,703
961,40	39,690
961,57	30,722
961,74	33,583
961,90	33,239
962,07	30,119
962,24	35,430
962,41	28,935
962,58	30,769
962,75	29,586
962,92	27,614
963,08	28,992
963,25	29,502
963,42	24,877
963,59	24,970
963,76	27,635
963,93	21,767
964,10	22,036
964,26	25,100
964,43	30,055
964,60	20,562
964,77	17,917
964,94	24,462
965,10	23,039
965,27	21,284
965,44	26,333
965,61	15,637
965,78	24,780
965,95	22,642
966,11	20,668
966,28	18,901
966,45	20,571
966,62	16,453
966,79	21,341
966,95	22,629
967,12	22,488
967,29	28,271
967,46	24,348
967,63	19,506
967,79	20,652
967,96	18,110
968,13	34,169
968,30	11,475
968,47	20,053
968,63	23,077
968,80	25,172
968,97	28,286
969,14	19,174
969,31	24,038
969,47	26,183
969,64	36,304
969,81	30,526
969,98	31,287
970,14	16,667
970,31	37,634
970,48	28,826
970,65	20,775
970,81	37,755
970,98	32,959
971,15	56,682
971,32	31,780
971,48	26,838
971,65	39,496
971,82	32,143
971,99	45,274
972,15	46,316
972,32	21,399
972,49	22,747
972,66	25,664
972,82	44,059
972,99	62,979
973,16	57,732
973,33	46,190
973,49	52,222
973,66	60,504
973,83	40,816
974,00	35,246
974,16	59,748
974,33	56,098
974,50	64,583
974,67	55,789
974,83	53,107
975,00	53,623
975,17	36,054
975,33	48,551
975,50	67,879
975,67	43,750
975,84	53,901
976,00	60,000
976,17	45,588
976,34	59,574
976,50	31,304
976,67	63,793
976,84	117,949
977,00	20,301
977,17	55,118
977,34	55,914
977,50	77,660
977,67	52,632
977,84	56,364
978,01	100,000
978,17	64,103
978,34	58,333
978,51	12,121
978,67	17,582
978,84	47,917
979,01	13,846
979,17	75,758
979,34	262,500
979,51	78,846
979,67	122,500
979,84	27,381
980,01	-37,705
980,17	55,294
980,34	71,014
980,51	102,273
980,67	112,000
980,84	68,966
981,01	-43,590
981,17	84,000
981,34	212,500
981,50	92,647
981,67	144,828
981,84	65,517
982,00	30,435
982,17	263,636
982,34	76,923
982,50	215,789
982,67	88,889
982,84	109,524
983,00	84,000
983,17	-50,000
983,33	37,097
983,50	47,826
983,67	139,130
983,83	850,000
984,00	171,875
984,17	120,000
984,33	98,649
984,50	47,917
984,66	132,143
984,83	70,930
985,00	160,656
985,16	61,538
985,33	206,250
985,49	231,034
985,66	112,121
985,83	103,509
985,99	45,946
986,16	220,000
986,32	128,986
986,49	291,667
986,66	25,581
986,82	98,246
986,99	11,905
987,15	79,310
987,32	38,889
987,49	55,556
987,65	210,000
987,82	-141,176
987,98	94,118
988,15	246,429
988,31	102,000
988,48	-41,667
988,65	200,000
988,81	143,478
988,98	266,667
989,14	48,980
989,31	83,333
989,47	168,293
989,64	67,143
989,80	13,333
989,97	111,765
990,14	21,739
990,30	182,500
990,47	119,512
990,63	139,130
990,80	90,909
990,96	125,000
991,13	116,667
991,29	100,000
991,46	103,922
991,62	50,000
991,79	45,614
991,95	190,000
992,12	241,860
992,29	60,000
992,45	-153,846
992,62	-250,000
992,78	-77,778
992,95	61,111
993,11	170,000
993,28	59,259
993,44	256,522
993,61	1166,667
993,77	-40,000
993,94	169,767
994,10	290,476
994,27	196,000
994,43	170,588
994,60	-75,758
994,76	47,368
994,93	213,636
995,09	-105,405
995,26	80,247
995,42	30,508
995,59	107,143
995,75	150,000
995,92	259,091
996,08	204,167
996,25	-255,556
996,41	91,667
996,58	129,730
996,74	320,000
996,91	205,556
997,07	173,077
997,23	155,319
997,40	-500,000
997,56	360,000
997,73	0,000
997,89	96,296
998,06	9,804
998,22	-300,000
998,39	326,087
998,55	-108,333
998,72	310,000
998,88	1033,333
999,05	269,231
999,21	39,130
999,37	-1400,000
999,54	-2100,000
999,70	230,769
999,87	156,250
1000,03	50,000
1000,20	133,333
1000,36	2700,000
1000,52	166,667
1000,69	15,909
1000,85	100,000
1001,02	123,077
1001,18	100,000
1001,35	-35,556
1001,51	-228,571
1001,67	32,000
1001,84	633,333
1002,00	37,500
1002,17	18,182
1002,33	-64,706
1002,50	-77,778
1002,66	-300,000
1002,82	77,143
1002,99	-96,154
1003,15	217,391
1003,32	35,484
1003,48	-260,000
1003,64	12,500
1003,81	10,714
1003,97	186,364
1004,14	1700,000
1004,30	-485,714
1004,46	-375,000
1004,63	126,316
1004,79	-26,667
1004,95	38,235
1005,12	785,714
1005,28	203,448
1005,45	96,154
1005,61	-800,000
1005,77	197,368
1005,94	161,290
1006,10	-5100,000
1006,26	32,143
1006,43	311,111
1006,59	-25,926
1006,76	40,000
1006,92	960,000
1007,08	450,000
1007,25	-25,000
1007,41	-108,333
1007,57	25,000
1007,74	78,261
1007,90	-720,000
1008,06	97,143
1008,23	148,148
1008,39	350,000
1008,55	14,286
1008,72	106,250
1008,88	84,000
1009,04	36,000
1009,21	111,765
1009,37	-25,000
1009,53	-142,105
1009,70	-0,000
1009,86	90,909
1010,02	500,000
1010,19	0,000
1010,35	-56,250
1010,51	200,000
1010,68	75,000
1010,84	-66,667
1011,00	73,333
1011,17	-740,000
1011,33	341,176
1011,49	146,875
1011,66	230,435
1011,82	-18,868
1011,98	9,091
1012,14	74,242
1012,31	-400,000
1012,47	266,667
1012,63	611,111
1012,80	140,000
1012,96	-27,273
1013,12	151,163
1013,29	84,211
1013,45	53,333
1013,61	-333,333
1013,77	38,889
1013,94	131,250
1014,10	-100,000
1014,26	1050,000
1014,43	-151,515
1014,59	-362,500
1014,75	2050,000
1014,91	866,667
1015,08	213,333
1015,24	-600,000
1015,40	-235,294
1015,56	0,000
1015,73	208,889
1015,89	0,000
1016,05	840,000
1016,21	-511,111
1016,38	0,000
1016,54	-61,538
1016,70	85,185
1016,86	51,515
1017,03	64,103
1017,19	152,174
1017,35	-130,769
1017,51	111,429
1017,68	481,818
1017,84	5300,000
1018,00	85,714
1018,16	0,000
1018,33	-71,429
1018,49	180,488
1018,65	-41,176
1018,81	-200,000
1018,97	350,000
1019,14	126,667
1019,30	181,250
1019,46	644,444
1019,62	273,333
1019,79	300,000
1019,95	-47,917
1020,11	-457,143
1020,27	300,000
1020,43	-214,286
1020,60	-152,632
1020,76	-11,111
1020,92	342,857
1021,08	5100,000
1021,24	115,000
1021,41	23,529
1021,57	309,091
1021,73	-1025,000
1021,89	-171,429
1022,05	800,000
1022,21	51,282
1022,38	300,000
1022,54	450,000
1022,70	113,636
1022,86	250,000
1023,02	17,647
1023,19	-222,222
1023,35	90,323
1023,51	214,286
1023,67	237,500
1023,83	1166,667
1023,99	11,111
1024,16	47,619
1024,32	-128,000
1024,48	200,000
1024,64	144,444
1024,80	-55,556
1024,96	17,241
1025,12	-142,857
1025,29	135,714
1025,45	91,667
1025,61	-1100,000
1025,77	-80,645
1025,93	270,000
1026,09	60,976
1026,26	226,316
1026,42	-62,500
1026,58	-65,217
1026,74	316,667
1026,90	427,778
1027,06	25,641
1027,22	4,348
1027,38	178,261
1027,55	333,333
1027,71	133,333
1027,87	237,500
1028,03	-25,000
1028,19	-188,235
1028,35	-428,571
1028,51	196,000
1028,67	85,294
1028,83	82,222
1029,00	250,000
1029,16	81,081
1029,32	71,429
1029,48	-28,571
1029,64	-92,308
1029,80	118,182
1029,96	383,333
1030,12	205,263
1030,28	-950,000
1030,44	740,000
1030,61	168,182
1030,77	-700,000
1030,93	-300,000
1031,09	700,000
1031,25	0,000
1031,41	320,000
1031,57	-375,000
1031,73	-825,000
1031,89	-50,000
1032,05	-95,349
1032,21	-66,667
1032,37	60,714
1032,53	100,000
1032,69	80,769
1032,86	-550,000
1033,02	-55,556
1033,18	125,000
1033,34	-2400,000
1033,50	343,750
1033,66	-32,000
1033,82	255,556
1033,98	1200,000
1034,14	-135,714
1034,30	-273,333
1034,46	141,176
1034,62	94,872
1034,78	-78,261
1034,94	145,161
1035,10	-38,462
1035,26	166,667
1035,42	-43,333
1035,58	266,667
1035,74	58,108
1035,90	556,250
1036,06	7,843
1036,22	157,576
1036,38	6,250
1036,54	6,250
1036,70	22,581
1036,86	225,000
1037,02	35,714
1037,18	-88,235
1037,34	-100,000
1037,50	-340,000
1037,66	-600,000
1037,82	233,333
1037,98	275,000
1038,14	-1125,000
1038,30	141,379
1038,46	-228,571
1038,62	522,222
1038,78	-371,429
1038,94	250,000
1039,10	300,000
1039,26	-104,167
1039,42	132,609
1039,58	-275,000
1039,74	100,000
1039,90	-133,333
1040,06	80,000
>>>>>End Processed Spectral Data<<<<<
