SpectraSuite Data File
++++++++++++++++++++++++++++++++++++
Date: Tue Jan 31 18:48:34 EET 2017
User: optolab
Dark Spectrum Present: Yes
Reference Spectrum Present: Yes
Number of Sampled Component Spectra: 1
Spectrometers: USB4C02475
Integration Time (usec): 100000 (USB4C02475)
Spectra Averaged: 1 (USB4C02475)
Boxcar Smoothing: 0 (USB4C02475)
Correct for Electrical Dark: No (USB4C02475)
Strobe/Lamp Enabled: No (USB4C02475)
Correct for Detector Non-linearity: No (USB4C02475)
Correct for Stray Light: No (USB4C02475)
Number of Pixels in Processed Spectrum: 3648
>>>>>Begin Processed Spectral Data<<<<<
344,91	292,308
345,13	292,308
345,35	292,308
345,57	0,000
345,79	83,333
346,00	230,000
346,22	5,556
346,44	230,769
346,66	1200,000
346,87	266,667
347,09	11,111
347,31	-1033,333
347,53	150,000
347,74	-469,231
347,96	-42,857
348,18	2666,667
348,40	-207,143
348,61	85,714
348,83	126,829
349,05	73,214
349,27	289,474
349,48	65,385
349,70	288,235
349,92	90,244
350,14	277,778
350,35	41,463
350,57	194,286
350,79	452,941
351,01	15,385
351,22	162,500
351,44	-300,000
351,66	276,923
351,87	117,949
352,09	221,212
352,31	468,750
352,53	135,556
352,74	23,810
352,96	16,279
353,18	44,444
353,40	123,913
353,61	143,333
353,83	250,000
354,05	124,242
354,26	317,857
354,48	-525,000
354,70	90,244
354,92	30,303
355,13	-26,471
355,35	0,000
355,57	91,667
355,78	-52,941
356,00	35,294
356,22	155,556
356,44	-84,615
356,65	175,758
356,87	171,429
357,09	293,333
357,30	73,016
357,52	146,429
357,74	-550,000
357,95	1060,000
358,17	366,667
358,39	82,353
358,60	560,000
358,82	323,529
359,04	56,250
359,26	142,187
359,47	-65,217
359,69	27,027
359,91	153,846
360,12	146,154
360,34	92,233
360,56	148,276
360,77	457,143
360,99	138,462
361,21	145,833
361,42	171,875
361,64	315,385
361,86	158,333
362,07	53,846
362,29	64,706
362,51	142,308
362,72	25,676
362,94	104,762
363,16	195,000
363,37	-12,903
363,59	258,621
363,81	-44,444
364,02	74,118
364,24	352,174
364,46	91,892
364,67	124,444
364,89	190,000
365,11	1850,000
365,32	113,253
365,54	514,286
365,76	58,621
365,97	-64,286
366,19	-100,000
366,41	130,769
366,62	131,579
366,84	221,053
367,05	112,308
367,27	-66,667
367,49	212,195
367,70	350,000
367,92	90,323
368,14	1350,000
368,35	116,901
368,57	151,282
368,79	47,059
369,00	0,000
369,22	333,333
369,43	109,091
369,65	19,403
369,87	66,197
370,08	128,571
370,30	117,647
370,51	55,556
370,73	67,308
370,95	290,476
371,16	666,667
371,38	125,000
371,60	165,385
371,81	135,135
372,03	415,789
372,24	709,091
372,46	59,756
372,68	96,875
372,89	91,429
373,11	104,762
373,32	200,000
373,54	92,000
373,76	119,149
373,97	60,215
374,19	148,649
374,40	55,556
374,62	-333,333
374,84	240,000
375,05	200,000
375,27	113,208
375,48	160,465
375,70	2,273
375,92	75,000
376,13	91,111
376,35	3100,000
376,56	97,333
376,78	72,917
376,99	59,740
377,21	-7100,000
377,43	89,583
377,64	263,158
377,86	182,609
378,07	166,667
378,29	16,129
378,51	135,897
378,72	62,222
378,94	92,647
379,15	317,143
379,37	137,500
379,58	98,214
379,80	200,000
380,01	575,000
380,23	136,842
380,45	130,769
380,66	211,111
380,88	-1550,000
381,09	102,857
381,31	33,333
381,52	58,333
381,74	113,433
381,95	114,634
382,17	215,000
382,39	181,818
382,60	569,231
382,82	254,286
383,03	123,077
383,25	125,641
383,46	148,780
383,68	105,357
383,89	740,000
384,11	47,727
384,32	-312,500
384,54	120,000
384,76	1400,000
384,97	60,494
385,19	62,500
385,40	183,333
385,62	50,000
385,83	75,676
386,05	93,023
386,26	121,622
386,48	136,000
386,69	94,340
386,91	300,000
387,12	116,667
387,34	56,863
387,55	104,545
387,77	157,143
387,98	28,571
388,20	177,419
388,41	220,513
388,63	202,326
388,84	84,615
389,06	76,923
389,27	100,000
389,49	262,500
389,70	59,524
389,92	31,250
390,13	-65,217
390,35	92,000
390,56	134,848
390,78	158,065
390,99	-33,333
391,21	132,143
391,42	72,131
391,64	25,926
391,85	45,000
392,07	54,000
392,28	101,250
392,50	54,386
392,71	96,296
392,93	62,162
393,14	-52,632
393,36	131,250
393,57	86,275
393,79	115,152
394,00	90,909
394,22	86,364
394,43	32,500
394,65	1050,000
394,86	148,485
395,08	113,699
395,29	130,233
395,50	418,750
395,72	113,889
395,93	85,417
396,15	69,014
396,36	71,698
396,58	133,333
396,79	96,364
397,01	91,566
397,22	94,444
397,44	-320,000
397,65	107,895
397,87	33,333
398,08	60,000
398,29	168,750
398,51	129,167
398,72	65,000
398,94	72,973
399,15	51,020
399,37	39,744
399,58	277,419
399,80	56,250
400,01	44,928
400,22	-28,571
400,44	313,333
400,65	-93,333
400,87	8,197
401,08	78,947
401,30	96,000
401,51	48,485
401,72	97,674
401,94	106,452
402,15	57,627
402,37	157,576
402,58	148,889
402,80	5,357
403,01	85,106
403,22	46,667
403,44	87,500
403,65	-36,364
403,87	143,590
404,08	52,308
404,30	89,655
404,51	60,714
404,72	107,317
404,94	111,429
405,15	66,667
405,37	36,111
405,58	61,364
405,79	96,203
406,01	77,570
406,22	24,390
406,44	57,143
406,65	21,918
406,86	29,293
407,08	177,778
407,29	23,596
407,51	74,490
407,72	138,889
407,93	60,403
408,15	47,297
408,36	27,778
408,58	63,415
408,79	48,387
409,00	56,818
409,22	39,560
409,43	43,820
409,64	6,140
409,86	30,496
410,07	30,556
410,29	37,079
410,50	53,425
410,71	24,419
410,93	32,941
411,14	26,563
411,35	10,345
411,57	30,583
411,78	37,441
412,00	29,379
412,21	27,746
412,42	33,333
412,64	32,870
412,85	27,461
413,06	27,805
413,28	25,714
413,49	6,818
413,70	37,906
413,92	24,719
414,13	32,432
414,34	10,046
414,56	21,613
414,77	12,121
414,98	16,119
415,20	26,221
415,41	9,091
415,63	-13,415
415,84	-2,454
416,05	20,146
416,27	15,459
416,48	3,500
416,69	13,768
416,91	24,390
417,12	13,043
417,33	5,701
417,55	0,881
417,76	0,202
417,97	14,115
418,19	13,937
418,40	6,352
418,61	9,777
418,83	-1,254
419,04	6,341
419,25	3,595
419,46	8,333
419,68	7,989
419,89	6,973
420,10	3,266
420,32	10,266
420,53	4,015
420,74	8,255
420,96	7,560
421,17	6,952
421,38	8,562
421,60	3,625
421,81	4,624
422,02	4,343
422,23	7,205
422,45	3,972
422,66	6,186
422,87	5,488
423,09	3,037
423,30	-0,488
423,51	4,859
423,73	3,574
423,94	5,419
424,15	2,038
424,36	2,231
424,58	2,718
424,79	2,861
425,00	4,959
425,22	5,254
425,43	2,887
425,64	4,728
425,85	6,247
426,07	1,088
426,28	4,061
426,49	2,893
426,71	2,285
426,92	2,357
427,13	2,497
427,34	3,636
427,56	2,773
427,77	3,774
427,98	3,092
428,19	0,511
428,41	3,595
428,62	0,109
428,83	1,613
429,04	2,601
429,26	3,705
429,47	2,679
429,68	1,693
429,89	1,627
430,11	1,843
430,32	2,221
430,53	0,746
430,74	0,822
430,96	1,745
431,17	1,850
431,38	0,764
431,59	1,835
431,81	1,901
432,02	1,695
432,23	1,529
432,44	1,990
432,66	1,891
432,87	1,426
433,08	1,262
433,29	0,872
433,51	1,191
433,72	0,844
433,93	1,360
434,14	0,311
434,35	1,222
434,57	1,162
434,78	1,376
434,99	0,444
435,20	0,567
435,42	0,957
435,63	1,310
435,84	1,021
436,05	0,436
436,26	0,682
436,48	0,681
436,69	0,576
436,90	0,506
437,11	1,090
437,32	0,571
437,54	0,922
437,75	0,467
437,96	0,576
438,17	0,704
438,38	0,896
438,60	0,905
438,81	1,175
439,02	1,003
439,23	0,516
439,44	1,022
439,66	0,881
439,87	0,578
440,08	0,805
440,29	0,599
440,50	1,095
440,72	0,667
440,93	0,493
441,14	1,032
441,35	0,708
441,56	0,722
441,77	0,824
441,99	0,700
442,20	0,535
442,41	0,561
442,62	0,779
442,83	0,806
443,04	1,087
443,26	0,900
443,47	0,918
443,68	0,621
443,89	0,933
444,10	0,748
444,31	0,816
444,53	1,327
444,74	0,836
444,95	0,700
445,16	0,878
445,37	0,916
445,58	1,029
445,80	0,804
446,01	1,300
446,22	0,950
446,43	1,781
446,64	2,297
446,85	3,414
447,06	5,285
447,28	7,249
447,49	10,211
447,70	13,482
447,91	17,798
448,12	22,411
448,33	26,882
448,54	30,860
448,76	35,810
448,97	39,376
449,18	41,684
449,39	45,399
449,60	50,135
449,81	53,802
450,02	60,499
450,23	66,419
450,45	74,048
450,66	81,022
450,87	85,752
451,08	89,419
451,29	92,283
451,50	94,458
451,71	93,309
451,92	95,402
452,13	94,332
452,35	95,605
452,56	94,291
452,77	95,281
452,98	96,372
453,19	96,996
453,40	97,945
453,61	96,370
453,82	96,263
454,03	98,027
454,25	97,188
454,46	98,499
454,67	98,355
454,88	99,382
455,09	99,589
455,30	98,410
455,51	98,792
455,72	98,683
455,93	98,490
456,14	98,712
456,35	97,457
456,56	98,672
456,78	97,721
456,99	97,272
457,20	96,727
457,41	98,757
457,62	96,787
457,83	96,411
458,04	97,702
458,25	96,283
458,46	98,161
458,67	96,350
458,88	98,013
459,09	97,080
459,30	96,280
459,51	97,439
459,73	96,098
459,94	96,508
460,15	96,166
460,36	96,652
460,57	96,236
460,78	97,318
460,99	98,935
461,20	95,596
461,41	95,902
461,62	96,605
461,83	95,807
462,04	95,789
462,25	96,236
462,46	95,703
462,67	95,705
462,88	95,044
463,09	95,708
463,30	94,352
463,51	95,309
463,72	95,637
463,93	96,716
464,15	96,212
464,36	96,871
464,57	96,863
464,78	97,747
464,99	98,287
465,20	97,356
465,41	98,339
465,62	98,141
465,83	97,237
466,04	97,418
466,25	97,832
466,46	98,036
466,67	96,946
466,88	97,250
467,09	97,491
467,30	97,794
467,51	97,798
467,72	97,394
467,93	98,262
468,14	98,328
468,35	98,495
468,56	97,790
468,77	98,133
468,98	98,365
469,19	99,448
469,40	98,404
469,61	100,000
469,82	99,816
470,03	98,950
470,24	100,248
470,45	99,670
470,66	99,191
470,87	100,023
471,08	99,064
471,29	99,002
471,50	99,305
471,71	97,838
471,92	98,499
472,13	99,609
472,34	98,087
472,55	99,284
472,76	99,017
472,97	98,559
473,18	98,536
473,39	97,426
473,60	97,290
473,81	98,332
474,01	97,325
474,22	96,552
474,43	96,771
474,64	98,573
474,85	97,076
475,06	97,300
475,27	97,501
475,48	97,741
475,69	96,816
475,90	98,084
476,11	97,943
476,32	99,505
476,53	98,962
476,74	98,301
476,95	98,859
477,16	100,513
477,37	99,496
477,58	99,632
477,79	98,971
478,00	98,355
478,21	99,518
478,41	99,441
478,62	100,717
478,83	98,760
479,04	97,696
479,25	98,098
479,46	98,915
479,67	97,386
479,88	97,683
480,09	97,983
480,30	98,052
480,51	99,986
480,72	99,580
480,93	99,240
481,14	99,717
481,34	99,346
481,55	99,465
481,76	99,677
481,97	99,730
482,18	100,747
482,39	99,921
482,60	100,168
482,81	100,211
483,02	98,816
483,23	99,310
483,44	100,227
483,65	99,581
483,85	99,511
484,06	99,565
484,27	98,986
484,48	99,587
484,69	100,840
484,90	99,459
485,11	100,349
485,32	100,318
485,53	99,661
485,73	99,953
485,94	100,281
486,15	99,350
486,36	99,979
486,57	98,282
486,78	99,861
486,99	100,162
487,20	100,296
487,41	99,858
487,61	99,512
487,82	99,816
488,03	100,253
488,24	100,033
488,45	100,644
488,66	100,150
488,87	99,955
489,08	100,625
489,28	99,489
489,49	100,128
489,70	98,796
489,91	98,915
490,12	100,092
490,33	100,524
490,54	100,169
490,74	100,893
490,95	98,338
491,16	100,418
491,37	99,327
491,58	98,691
491,79	98,909
492,00	99,222
492,20	99,603
492,41	99,459
492,62	99,549
492,83	100,284
493,04	99,073
493,25	99,188
493,45	98,962
493,66	97,164
493,87	98,958
494,08	98,607
494,29	97,531
494,50	97,699
494,70	97,763
494,91	97,897
495,12	97,544
495,33	97,364
495,54	96,944
495,75	96,658
495,95	96,619
496,16	95,519
496,37	94,708
496,58	92,660
496,79	90,788
496,99	87,387
497,20	83,801
497,41	79,242
497,62	74,035
497,83	67,543
498,04	60,037
498,24	51,799
498,45	43,065
498,66	34,726
498,87	26,326
499,08	19,675
499,28	13,972
499,49	9,715
499,70	6,529
499,91	4,392
500,12	2,732
500,32	2,011
500,53	1,436
500,74	1,086
500,95	0,790
501,15	0,791
501,36	0,832
501,57	0,375
501,78	0,595
501,99	0,539
502,19	0,489
502,40	0,749
502,61	0,399
502,82	0,716
503,02	0,527
503,23	0,560
503,44	0,444
503,65	0,619
503,86	0,587
504,06	0,548
504,27	0,694
504,48	0,660
504,69	0,641
504,89	0,500
505,10	0,472
505,31	0,461
505,52	0,553
505,72	0,513
505,93	0,508
506,14	0,306
506,35	0,558
506,55	0,382
506,76	0,483
506,97	0,635
507,18	0,503
507,38	0,562
507,59	0,391
507,80	0,487
508,01	0,438
508,21	0,462
508,42	0,432
508,63	0,451
508,84	0,668
509,04	0,419
509,25	0,470
509,46	0,521
509,67	0,349
509,87	0,132
510,08	0,513
510,29	0,313
510,49	0,188
510,70	0,438
510,91	0,276
511,12	0,631
511,32	0,342
511,53	0,358
511,74	0,418
511,94	0,443
512,15	0,461
512,36	0,431
512,57	0,477
512,77	0,301
512,98	0,448
513,19	0,345
513,39	0,525
513,60	0,314
513,81	0,356
514,01	0,321
514,22	0,190
514,43	0,278
514,64	0,297
514,84	0,490
515,05	0,384
515,26	0,408
515,46	0,625
515,67	0,363
515,88	0,324
516,08	0,479
516,29	0,339
516,50	0,421
516,70	0,208
516,91	0,621
517,12	0,262
517,32	0,417
517,53	0,354
517,74	0,329
517,95	0,429
518,15	0,403
518,36	0,436
518,57	0,328
518,77	0,450
518,98	0,423
519,19	0,333
519,39	0,370
519,60	0,155
519,80	0,230
520,01	0,196
520,22	0,251
520,42	0,286
520,63	0,379
520,84	0,343
521,04	0,422
521,25	0,335
521,46	0,247
521,66	0,287
521,87	0,442
522,08	0,385
522,28	0,552
522,49	0,317
522,70	0,450
522,90	0,350
523,11	0,394
523,31	0,385
523,52	0,323
523,73	0,336
523,93	0,353
524,14	0,326
524,35	0,414
524,55	0,153
524,76	0,298
524,97	0,435
525,17	0,460
525,38	0,350
525,58	0,293
525,79	0,517
526,00	0,511
526,20	0,591
526,41	0,397
526,61	0,360
526,82	0,421
527,03	0,523
527,23	0,549
527,44	0,422
527,64	0,460
527,85	0,519
528,06	0,443
528,26	0,432
528,47	0,329
528,68	0,422
528,88	0,546
529,09	0,356
529,29	0,365
529,50	0,552
529,70	0,282
529,91	0,431
530,12	0,392
530,32	0,254
530,53	0,301
530,73	0,142
530,94	0,436
531,15	0,161
531,35	0,403
531,56	0,471
531,76	0,385
531,97	0,488
532,17	0,203
532,38	0,501
532,59	0,271
532,79	0,478
533,00	0,540
533,20	0,325
533,41	0,626
533,61	0,596
533,82	0,493
534,03	0,379
534,23	0,454
534,44	0,345
534,64	0,479
534,85	0,454
535,05	0,424
535,26	0,475
535,46	0,395
535,67	0,148
535,88	0,461
536,08	0,530
536,29	0,399
536,49	0,541
536,70	0,614
536,90	0,431
537,11	0,567
537,31	0,594
537,52	0,495
537,72	0,653
537,93	0,468
538,13	0,340
538,34	0,542
538,55	0,601
538,75	0,312
538,96	0,343
539,16	0,460
539,37	0,485
539,57	0,774
539,78	0,582
539,98	0,375
540,19	0,593
540,39	0,324
540,60	0,583
540,80	0,585
541,01	0,431
541,21	0,708
541,42	0,536
541,62	0,648
541,83	0,535
542,03	0,300
542,24	0,699
542,44	0,273
542,65	0,396
542,85	0,724
543,06	0,687
543,26	0,630
543,47	0,500
543,67	0,785
543,88	0,446
544,08	0,676
544,29	0,612
544,49	0,715
544,70	0,620
544,90	0,719
545,11	0,811
545,31	0,698
545,52	0,641
545,72	0,781
545,93	0,894
546,13	0,886
546,34	1,021
546,54	1,012
546,75	1,179
546,95	1,306
547,15	1,714
547,36	2,470
547,56	3,289
547,77	3,950
547,97	5,162
548,18	6,706
548,38	9,338
548,59	11,764
548,79	14,462
549,00	18,170
549,20	22,194
549,41	26,671
549,61	30,894
549,81	35,352
550,02	39,168
550,22	44,030
550,43	48,799
550,63	53,356
550,84	59,085
551,04	64,743
551,25	71,385
551,45	77,106
551,65	82,396
551,86	88,284
552,06	91,556
552,27	93,822
552,47	95,137
552,68	96,141
552,88	97,106
553,08	97,192
553,29	97,407
553,49	97,223
553,70	97,375
553,90	98,305
554,11	98,534
554,31	98,194
554,51	99,004
554,72	99,210
554,92	99,723
555,13	99,403
555,33	99,873
555,53	98,964
555,74	99,619
555,94	100,586
556,15	99,482
556,35	100,234
556,56	100,484
556,76	100,581
556,96	100,581
557,17	100,122
557,37	100,195
557,58	100,000
557,78	100,099
557,98	100,524
558,19	99,766
558,39	100,505
558,59	100,542
558,80	98,960
559,00	100,121
559,21	100,406
559,41	99,259
559,61	100,139
559,82	100,462
560,02	99,762
560,23	99,970
560,43	99,043
560,63	99,762
560,84	99,740
561,04	99,201
561,24	98,880
561,45	99,524
561,65	99,455
561,85	100,559
562,06	99,865
562,26	99,787
562,47	99,701
562,67	99,157
562,87	100,417
563,08	99,794
563,28	99,834
563,48	99,439
563,69	98,905
563,89	98,747
564,09	100,424
564,30	99,693
564,50	99,651
564,70	99,703
564,91	99,456
565,11	99,673
565,31	99,681
565,52	98,685
565,72	99,417
565,92	98,889
566,13	98,625
566,33	98,091
566,53	98,919
566,74	99,294
566,94	99,996
567,14	98,351
567,35	98,428
567,55	98,842
567,75	98,081
567,96	99,002
568,16	99,308
568,36	98,751
568,57	99,367
568,77	99,343
568,97	98,627
569,18	98,837
569,38	98,764
569,58	98,441
569,79	99,443
569,99	99,663
570,19	99,379
570,39	98,619
570,60	98,651
570,80	99,347
571,00	98,321
571,21	99,536
571,41	98,861
571,61	99,102
571,82	99,471
572,02	98,312
572,22	99,804
572,42	100,764
572,63	99,158
572,83	99,350
573,03	100,894
573,24	100,243
573,44	100,100
573,64	101,630
573,84	99,923
574,05	99,985
574,25	99,705
574,45	99,538
574,66	99,418
574,86	100,257
575,06	99,993
575,26	100,243
575,47	99,960
575,67	100,194
575,87	100,408
576,07	99,224
576,28	100,382
576,48	100,058
576,68	100,505
576,88	99,872
577,09	99,716
577,29	101,376
577,49	101,245
577,69	100,043
577,90	99,858
578,10	100,167
578,30	100,522
578,50	98,936
578,71	99,426
578,91	98,544
579,11	98,835
579,31	99,103
579,52	100,014
579,72	99,309
579,92	99,531
580,12	100,209
580,33	99,741
580,53	100,838
580,73	100,179
580,93	99,441
581,13	100,047
581,34	99,861
581,54	99,470
581,74	100,289
581,94	100,759
582,15	99,967
582,35	99,974
582,55	99,873
582,75	100,802
582,95	100,614
583,16	100,264
583,36	100,160
583,56	100,857
583,76	99,424
583,96	100,527
584,17	100,464
584,37	101,375
584,57	100,535
584,77	100,033
584,97	99,808
585,18	100,117
585,38	99,033
585,58	99,331
585,78	100,037
585,98	100,004
586,19	99,757
586,39	99,483
586,59	100,171
586,79	100,863
586,99	99,855
587,20	98,412
587,40	100,080
587,60	100,586
587,80	99,433
588,00	100,727
588,20	100,256
588,41	99,617
588,61	99,721
588,81	99,531
589,01	100,359
589,21	99,777
589,41	99,561
589,62	100,011
589,82	99,471
590,02	100,472
590,22	99,501
590,42	98,910
590,62	98,558
590,83	99,303
591,03	98,737
591,23	99,253
591,43	99,015
591,63	99,172
591,83	97,677
592,03	98,477
592,24	98,394
592,44	98,479
592,64	98,941
592,84	99,686
593,04	97,419
593,24	97,569
593,44	97,551
593,65	98,278
593,85	98,237
594,05	97,519
594,25	98,645
594,45	97,769
594,65	98,147
594,85	97,335
595,06	98,775
595,26	98,588
595,46	98,656
595,66	98,038
595,86	99,511
596,06	99,027
596,26	99,295
596,46	98,782
596,66	99,671
596,87	99,662
597,07	98,164
597,27	99,183
597,47	98,911
597,67	97,981
597,87	99,547
598,07	99,492
598,27	98,416
598,47	99,284
598,67	98,418
598,88	98,791
599,08	98,921
599,28	99,088
599,48	98,786
599,68	98,977
599,88	98,447
600,08	99,109
600,28	100,262
600,48	98,757
600,68	99,461
600,88	99,485
601,09	99,956
601,29	100,034
601,49	99,899
601,69	99,929
601,89	99,385
602,09	98,860
602,29	98,866
602,49	98,602
602,69	98,993
602,89	98,908
603,09	98,723
603,29	98,078
603,49	96,302
603,69	98,224
603,90	97,813
604,10	97,672
604,30	97,334
604,50	95,798
604,70	94,916
604,90	93,821
605,10	91,719
605,30	88,792
605,50	86,206
605,70	83,326
605,90	77,881
606,10	72,216
606,30	67,177
606,50	59,919
606,70	51,243
606,90	44,501
607,10	37,124
607,30	30,320
607,50	24,007
607,70	18,446
607,90	13,731
608,10	10,617
608,30	7,419
608,50	5,803
608,70	4,253
608,90	3,219
609,11	2,797
609,31	1,864
609,51	1,498
609,71	1,356
609,91	0,955
610,11	0,726
610,31	0,747
610,51	0,632
610,71	0,612
610,91	0,559
611,11	0,598
611,31	0,502
611,51	0,575
611,71	0,451
611,91	0,568
612,11	0,415
612,31	0,532
612,51	0,293
612,71	0,306
612,91	0,386
613,11	0,544
613,31	0,524
613,51	0,581
613,71	0,448
613,91	0,480
614,11	0,405
614,31	0,542
614,50	0,276
614,70	0,501
614,90	0,653
615,10	0,479
615,30	0,325
615,50	0,390
615,70	0,370
615,90	0,338
616,10	0,438
616,30	0,383
616,50	0,449
616,70	0,374
616,90	0,529
617,10	0,252
617,30	0,203
617,50	0,546
617,70	0,348
617,90	0,438
618,10	0,460
618,30	0,420
618,50	0,359
618,70	0,431
618,90	0,419
619,10	0,244
619,30	0,489
619,49	0,462
619,69	0,325
619,89	0,067
620,09	0,493
620,29	0,201
620,49	0,467
620,69	0,389
620,89	0,452
621,09	0,345
621,29	0,361
621,49	0,316
621,69	0,292
621,89	0,312
622,09	0,210
622,29	0,234
622,48	0,214
622,68	0,483
622,88	0,377
623,08	0,424
623,28	0,347
623,48	0,210
623,68	0,247
623,88	0,230
624,08	0,368
624,28	0,312
624,48	0,254
624,67	0,060
624,87	0,184
625,07	0,292
625,27	0,249
625,47	0,291
625,67	0,394
625,87	0,261
626,07	0,376
626,27	0,169
626,47	0,366
626,66	0,168
626,86	0,237
627,06	0,323
627,26	0,442
627,46	0,227
627,66	0,417
627,86	0,220
628,06	0,379
628,25	0,216
628,45	0,365
628,65	0,207
628,85	0,227
629,05	0,255
629,25	0,306
629,45	0,317
629,65	0,175
629,84	0,407
630,04	0,083
630,24	0,248
630,44	0,130
630,64	0,441
630,84	0,225
631,04	0,301
631,23	0,115
631,43	0,268
631,63	0,173
631,83	0,520
632,03	0,296
632,23	0,310
632,42	0,367
632,62	0,295
632,82	0,399
633,02	0,178
633,22	0,233
633,42	0,327
633,62	0,493
633,81	0,256
634,01	0,295
634,21	0,326
634,41	0,572
634,61	0,604
634,80	0,497
635,00	0,246
635,20	0,350
635,40	0,391
635,60	0,329
635,80	0,407
635,99	0,617
636,19	0,572
636,39	0,220
636,59	0,405
636,79	0,452
636,98	0,513
637,18	0,509
637,38	0,450
637,58	0,433
637,78	0,272
637,97	0,447
638,17	0,209
638,37	0,428
638,57	0,352
638,77	0,768
638,96	0,512
639,16	0,311
639,36	0,477
639,56	0,837
639,76	0,337
639,95	0,272
640,15	0,570
640,35	0,470
640,55	0,493
640,75	0,468
640,94	0,705
641,14	0,437
641,34	0,387
641,54	0,495
641,73	0,613
641,93	0,699
642,13	0,240
642,33	0,549
642,53	0,672
642,72	0,544
642,92	0,754
643,12	0,371
643,32	0,485
643,51	0,559
643,71	0,511
643,91	0,762
644,11	0,836
644,30	0,469
644,50	0,627
644,70	0,733
644,90	0,549
645,09	0,331
645,29	0,937
645,49	0,773
645,69	0,979
645,88	0,529
646,08	1,117
646,28	1,354
646,48	1,446
646,67	1,760
646,87	2,282
647,07	3,057
647,26	3,544
647,46	4,427
647,66	5,388
647,86	6,644
648,05	8,620
648,25	10,659
648,45	12,801
648,65	15,088
648,84	17,876
649,04	20,431
649,24	24,460
649,43	27,818
649,63	31,773
649,83	35,818
650,03	39,014
650,22	43,817
650,42	47,725
650,62	52,405
650,81	57,403
651,01	62,178
651,21	67,114
651,40	72,175
651,60	77,485
651,80	80,690
652,00	84,576
652,19	87,661
652,39	91,007
652,59	92,058
652,78	91,795
652,98	92,272
653,18	94,059
653,37	94,356
653,57	94,162
653,77	94,610
653,96	96,236
654,16	96,449
654,36	96,655
654,55	97,030
654,75	96,164
654,95	95,656
655,14	95,562
655,34	98,974
655,54	97,228
655,73	96,512
655,93	98,836
656,13	96,584
656,32	97,696
656,52	100,579
656,72	99,177
656,91	97,141
657,11	96,369
657,31	97,624
657,50	98,995
657,70	97,097
657,90	98,509
658,09	97,893
658,29	97,418
658,49	98,094
658,68	96,737
658,88	99,213
659,07	97,779
659,27	98,455
659,47	98,897
659,66	99,076
659,86	97,968
660,06	97,609
660,25	95,170
660,45	97,405
660,64	97,866
660,84	97,025
661,04	95,960
661,23	97,407
661,43	96,374
661,63	97,359
661,82	96,839
662,02	97,707
662,21	96,868
662,41	95,589
662,61	97,347
662,80	98,072
663,00	96,507
663,19	98,070
663,39	97,837
663,59	99,009
663,78	95,975
663,98	95,281
664,17	96,122
664,37	95,723
664,57	95,839
664,76	98,705
664,96	95,751
665,15	97,235
665,35	95,489
665,55	95,244
665,74	96,189
665,94	95,962
666,13	96,855
666,33	95,931
666,53	96,097
666,72	95,577
666,92	96,216
667,11	97,024
667,31	94,558
667,50	95,300
667,70	96,317
667,90	95,191
668,09	97,464
668,29	96,742
668,48	95,003
668,68	96,511
668,87	95,147
669,07	96,387
669,26	96,088
669,46	95,969
669,66	95,536
669,85	95,371
670,05	95,894
670,24	97,314
670,44	95,749
670,63	96,036
670,83	96,116
671,02	95,279
671,22	95,555
671,42	95,748
671,61	95,789
671,81	97,368
672,00	93,580
672,20	95,084
672,39	95,739
672,59	95,581
672,78	95,352
672,98	95,989
673,17	94,414
673,37	96,432
673,56	96,526
673,76	95,972
673,95	96,936
674,15	95,962
674,34	96,917
674,54	96,225
674,73	95,124
674,93	94,406
675,13	95,179
675,32	96,495
675,52	96,491
675,71	95,679
675,91	97,183
676,10	95,828
676,30	95,590
676,49	95,658
676,69	96,222
676,88	96,676
677,08	95,534
677,27	94,758
677,47	95,809
677,66	94,907
677,86	96,397
678,05	95,427
678,24	96,139
678,44	96,392
678,63	95,663
678,83	96,865
679,02	96,977
679,22	95,836
679,41	95,349
679,61	95,468
679,80	95,511
680,00	94,674
680,19	95,560
680,39	94,732
680,58	95,044
680,78	93,962
680,97	95,881
681,17	94,188
681,36	94,693
681,56	94,884
681,75	94,772
681,94	94,438
682,14	92,963
682,33	94,022
682,53	94,686
682,72	94,577
682,92	93,046
683,11	93,757
683,31	93,262
683,50	93,878
683,69	94,155
683,89	94,610
684,08	94,725
684,28	94,272
684,47	94,177
684,67	94,468
684,86	94,383
685,06	94,313
685,25	94,588
685,44	95,635
685,64	93,867
685,83	95,336
686,03	95,834
686,22	95,573
686,42	94,266
686,61	96,097
686,80	95,819
687,00	95,339
687,19	95,062
687,39	95,397
687,58	95,139
687,77	94,802
687,97	95,595
688,16	95,438
688,36	95,291
688,55	94,604
688,74	95,126
688,94	96,121
689,13	94,648
689,33	94,471
689,52	95,788
689,71	95,476
689,91	94,817
690,10	95,147
690,30	95,224
690,49	95,257
690,68	95,784
690,88	95,387
691,07	94,941
691,27	95,771
691,46	95,624
691,65	94,923
691,85	95,221
692,04	95,905
692,23	96,006
692,43	96,180
692,62	95,617
692,82	97,279
693,01	95,740
693,20	95,815
693,40	97,609
693,59	97,122
693,78	97,162
693,98	98,020
694,17	97,358
694,36	97,678
694,56	98,806
694,75	99,118
694,94	99,580
695,14	99,493
695,33	99,705
695,53	99,122
695,72	99,954
695,91	100,641
696,11	101,039
696,30	100,864
696,49	101,247
696,69	101,174
696,88	102,572
697,07	102,386
697,27	103,632
697,46	103,426
697,65	103,251
697,85	103,220
698,04	103,699
698,23	104,139
698,43	103,080
698,62	104,486
698,81	105,729
699,01	104,073
699,20	105,348
699,39	105,511
699,58	103,148
699,78	104,980
699,97	104,838
700,16	104,913
700,36	107,083
700,55	105,695
700,74	104,951
700,94	106,178
701,13	105,818
701,32	104,429
701,52	102,710
701,71	103,289
701,90	103,510
702,09	103,193
702,29	101,964
702,48	100,525
702,67	100,759
702,87	103,295
703,06	97,828
703,25	98,004
703,44	98,275
703,64	96,911
703,83	94,449
704,02	93,732
704,22	91,741
704,41	87,748
704,60	83,466
704,79	81,858
704,99	77,628
705,18	74,744
705,37	69,193
705,56	65,547
705,76	58,954
705,95	56,742
706,14	51,013
706,33	45,589
706,53	39,509
706,72	35,501
706,91	30,371
707,11	25,095
707,30	21,522
707,49	18,526
707,68	16,725
707,88	12,295
708,07	10,443
708,26	9,615
708,45	6,740
708,64	5,510
708,84	4,758
709,03	4,738
709,22	2,852
709,41	3,802
709,61	2,340
709,80	2,740
709,99	2,596
710,18	2,169
710,38	3,818
710,57	2,331
710,76	3,413
710,95	4,308
711,14	3,648
711,34	2,573
711,53	1,345
711,72	2,687
711,91	3,735
712,11	2,503
712,30	2,807
712,49	1,960
712,68	2,472
712,87	3,517
713,07	4,483
713,26	3,711
713,45	2,803
713,64	3,522
713,83	4,819
714,03	2,620
714,22	1,264
714,41	3,664
714,60	2,010
714,79	2,318
714,99	3,621
715,18	1,881
715,37	1,695
715,56	2,905
715,75	3,926
715,94	2,645
716,14	1,058
716,33	2,279
716,52	4,264
716,71	3,902
716,90	0,000
717,10	4,501
717,29	3,139
717,48	4,365
717,67	5,421
717,86	2,002
718,05	5,300
718,24	2,082
718,44	3,177
718,63	5,164
718,82	2,764
719,01	1,844
719,20	3,305
719,39	5,468
719,59	3,737
719,78	3,308
719,97	5,852
720,16	0,350
720,35	6,975
720,54	5,175
720,73	4,736
720,93	4,526
721,12	0,432
721,31	8,309
721,50	7,670
721,69	3,944
721,88	2,266
722,07	2,274
722,27	1,480
722,46	0,993
722,65	2,430
722,84	5,683
723,03	3,367
723,22	4,959
723,41	4,597
723,60	1,347
723,79	3,003
723,99	6,412
724,18	2,373
724,37	2,748
724,56	5,057
724,75	4,732
724,94	4,004
725,13	6,979
725,32	7,124
725,51	2,867
725,71	5,681
725,90	5,602
726,09	5,894
726,28	1,507
726,47	5,331
726,66	0,779
726,85	2,532
727,04	8,602
727,23	6,836
727,42	7,968
727,61	2,391
727,81	1,733
728,00	3,410
728,19	4,339
728,38	0,427
728,57	6,452
728,76	7,708
728,95	4,590
729,14	9,646
729,33	6,534
729,52	11,168
729,71	3,143
729,90	4,191
730,09	3,195
730,28	9,338
730,48	-0,484
730,67	8,000
730,86	8,189
731,05	-2,209
731,24	8,716
731,43	6,897
731,62	5,556
731,81	5,950
732,00	4,483
732,19	6,266
732,38	7,394
732,57	3,015
732,76	-1,791
732,95	6,932
733,14	8,997
733,33	2,500
733,52	5,691
733,71	5,984
733,90	3,734
734,09	7,210
734,28	11,942
734,47	3,088
734,66	4,348
734,85	4,090
735,04	5,022
735,23	6,787
735,42	10,496
735,61	7,756
735,81	8,807
736,00	6,316
736,19	7,196
736,38	2,256
736,57	1,741
736,76	10,015
736,95	1,435
737,14	7,362
737,33	1,090
737,52	9,271
737,71	7,622
737,90	11,821
738,09	6,379
738,28	9,091
738,47	7,074
738,66	4,576
738,85	3,150
739,04	5,797
739,22	6,346
739,41	3,316
739,60	6,284
739,79	10,302
739,98	12,429
740,17	9,966
740,36	8,902
740,55	11,293
740,74	5,576
740,93	6,408
741,12	13,668
741,31	-0,204
741,50	7,143
741,69	6,285
741,88	11,559
742,07	5,300
742,26	8,413
742,45	12,138
742,64	9,592
742,83	-2,198
743,02	5,422
743,21	0,226
743,40	7,280
743,59	9,037
743,78	3,376
743,97	14,231
744,16	-1,940
744,34	3,926
744,53	6,250
744,72	11,677
744,91	2,259
745,10	1,379
745,29	5,164
745,48	11,135
745,67	7,333
745,86	9,129
746,05	7,159
746,24	11,853
746,43	13,379
746,62	12,426
746,81	8,057
747,00	13,750
747,18	7,273
747,37	3,409
747,56	12,357
747,75	3,836
747,94	15,404
748,13	4,673
748,32	10,244
748,51	17,096
748,70	15,827
748,89	5,108
749,08	19,212
749,26	3,733
749,45	8,431
749,64	6,202
749,83	19,410
750,02	1,340
750,21	7,031
750,40	7,652
750,59	6,383
750,78	15,422
750,96	16,708
751,15	14,745
751,34	19,902
751,53	16,944
751,72	10,724
751,91	9,186
752,10	10,141
752,29	-6,957
752,47	15,230
752,66	16,272
752,85	10,582
753,04	3,784
753,23	7,029
753,42	18,703
753,61	8,511
753,80	4,204
753,98	12,188
754,17	4,816
754,36	8,170
754,55	5,212
754,74	20,811
754,93	16,452
755,12	2,462
755,30	-2,214
755,49	18,768
755,68	20,822
755,87	8,191
756,06	19,597
756,25	2,310
756,43	14,029
756,62	-3,610
756,81	2,353
757,00	17,308
757,19	26,994
757,38	9,772
757,56	14,865
757,75	9,924
757,94	16,810
758,13	22,293
758,32	6,439
758,51	14,194
758,69	14,103
758,88	12,787
759,07	22,064
759,26	13,265
759,45	23,214
759,63	-9,486
759,82	27,007
760,01	9,722
760,20	25,547
760,39	10,728
760,57	-15,880
760,76	35,115
760,95	5,364
761,14	5,385
761,33	8,203
761,51	26,296
761,70	31,379
761,89	22,481
762,08	21,983
762,27	10,096
762,45	20,283
762,64	6,195
762,83	17,844
763,02	18,685
763,21	14,437
763,39	14,480
763,58	13,878
763,77	7,979
763,96	26,316
764,14	3,320
764,33	28,947
764,52	6,250
764,71	7,882
764,89	34,122
765,08	37,828
765,27	11,386
765,46	5,909
765,65	14,721
765,83	10,952
766,02	17,949
766,21	10,970
766,40	27,442
766,58	11,765
766,77	-7,910
766,96	9,744
767,15	7,729
767,33	8,173
767,52	4,739
767,71	20,000
767,90	-1,250
768,08	12,876
768,27	-0,930
768,46	15,714
768,64	20,388
768,83	44,865
769,02	6,667
769,21	5,208
769,39	-8,725
769,58	3,500
769,77	8,696
769,96	9,272
770,14	11,832
770,33	6,952
770,52	20,513
770,70	27,228
770,89	-2,041
771,08	17,187
771,27	4,639
771,45	40,462
771,64	39,474
771,83	25,269
772,01	19,084
772,20	25,758
772,39	14,013
772,57	29,688
772,76	5,517
772,95	-4,569
773,14	41,860
773,32	-10,440
773,51	7,442
773,70	21,854
773,88	37,186
774,07	40,586
774,26	12,805
774,44	38,693
774,63	27,848
774,82	26,506
775,00	26,201
775,19	9,195
775,38	1,333
775,56	25,000
775,75	-7,186
775,94	38,060
776,12	9,167
776,31	22,754
776,50	21,818
776,68	34,568
776,87	16,084
777,06	32,877
777,24	6,557
777,43	35,772
777,62	28,148
777,80	34,783
777,99	8,917
778,18	12,739
778,36	29,771
778,55	9,630
778,74	-10,606
778,92	35,294
779,11	32,903
779,29	30,065
779,48	4,132
779,67	10,791
779,85	40,000
780,04	28,169
780,23	12,587
780,41	28,235
780,60	12,281
780,79	11,111
780,97	11,429
781,16	31,200
781,34	18,939
781,53	54,487
781,72	41,667
781,90	52,885
782,09	6,557
782,28	15,447
782,46	34,146
782,65	16,084
782,83	19,084
783,02	14,400
783,21	46,512
783,39	30,769
783,58	42,000
783,76	63,514
783,95	43,046
784,14	26,316
784,32	26,606
784,51	4,494
784,69	22,293
784,88	41,290
785,06	26,241
785,25	23,308
785,44	28,378
785,62	37,857
785,81	29,104
785,99	8,163
786,18	21,311
786,37	46,207
786,55	14,179
786,74	51,553
786,92	23,837
787,11	28,800
787,29	25,882
787,48	27,000
787,67	-2,041
787,85	-46,875
788,04	26,027
788,22	35,185
788,41	32,237
788,59	45,578
788,78	57,639
788,96	37,143
789,15	31,967
789,34	35,366
789,52	28,358
789,71	14,286
789,89	27,193
790,08	-11,765
790,26	34,921
790,45	39,416
790,63	51,974
790,82	5,645
791,00	11,905
791,19	17,857
791,38	24,658
791,56	53,947
791,75	31,081
791,93	6,863
792,12	22,727
792,30	17,763
792,49	27,103
792,67	37,143
792,86	2,703
793,04	14,286
793,23	24,342
793,41	47,742
793,60	30,380
793,78	40,268
793,97	42,241
794,15	35,294
794,34	29,592
794,52	23,256
794,71	40,123
794,89	35,000
795,08	26,282
795,26	0,000
795,45	48,936
795,63	9,434
795,82	5,042
796,00	-40,000
796,19	58,442
796,37	61,017
796,56	20,370
796,74	21,875
796,93	36,975
797,11	18,333
797,30	33,588
797,48	24,476
797,67	41,129
797,85	48,551
798,04	13,514
798,22	36,691
798,41	79,661
798,59	18,571
798,77	27,350
798,96	32,258
799,14	40,741
799,33	3,540
799,51	13,861
799,70	36,264
799,88	33,028
800,07	36,691
800,25	40,458
800,44	22,772
800,62	22,302
800,80	27,273
800,99	14,103
801,17	35,172
801,36	3,125
801,54	21,705
801,73	9,091
801,91	17,978
802,10	27,059
802,28	-3,150
802,46	16,129
802,65	29,139
802,83	33,884
803,02	45,408
803,20	50,847
803,39	-4,587
803,57	5,634
803,75	32,857
803,94	31,757
804,12	33,540
804,31	25,962
804,49	29,032
804,67	13,514
804,86	20,497
805,04	44,186
805,23	45,985
805,41	36,275
805,59	16,265
805,78	30,000
805,96	31,928
806,15	18,400
806,33	2,190
806,51	54,487
806,70	-18,605
806,88	-8,182
807,07	24,590
807,25	21,739
807,43	-7,778
807,62	45,313
807,80	30,488
807,99	35,252
808,17	5,556
808,35	20,755
808,54	27,933
808,72	35,897
808,90	13,821
809,09	-0,730
809,27	41,748
809,46	10,280
809,64	36,994
809,82	28,276
810,01	50,538
810,19	-0,909
810,37	21,591
810,56	29,801
810,74	37,736
810,92	2,817
811,11	15,337
811,29	37,888
811,48	36,522
811,66	18,782
811,84	9,322
812,03	5,405
812,21	27,879
812,39	45,161
812,58	31,579
812,76	29,197
812,94	26,174
813,13	9,756
813,31	23,810
813,49	30,667
813,68	26,230
813,86	28,205
814,04	58,559
814,23	2,308
814,41	1,370
814,59	1,961
814,78	17,450
814,96	36,313
815,14	26,633
815,33	-9,091
815,51	11,811
815,69	18,321
815,87	-7,097
816,06	24,876
816,24	20,261
816,42	6,548
816,61	28,395
816,79	29,480
816,97	29,487
817,16	5,952
817,34	4,706
817,52	14,486
817,70	8,290
817,89	20,574
818,07	25,333
818,25	36,076
818,44	22,995
818,62	29,208
818,80	24,176
818,98	6,154
819,17	33,475
819,35	28,859
819,53	13,846
819,72	18,378
819,90	4,889
820,08	28,218
820,26	9,132
820,45	15,054
820,63	17,544
820,81	24,312
820,99	30,568
821,18	9,036
821,36	13,125
821,54	10,945
821,73	22,951
821,91	14,085
822,09	20,710
822,27	12,062
822,46	18,227
822,64	12,632
822,82	13,706
823,00	13,613
823,19	14,762
823,37	36,752
823,55	17,300
823,73	49,438
823,91	-4,813
824,10	17,708
824,28	21,901
824,46	-37,500
824,64	31,734
824,83	15,166
825,01	10,588
825,19	17,467
825,37	29,902
825,56	9,160
825,74	9,091
825,92	20,233
826,10	19,383
826,28	9,594
826,47	22,957
826,65	22,662
826,83	20,175
827,01	22,835
827,19	30,233
827,38	2,996
827,56	4,000
827,74	-1,896
827,92	13,171
828,10	17,708
828,29	-7,011
828,47	22,263
828,65	17,578
828,83	17,300
829,01	0,000
829,20	9,615
829,38	10,656
829,56	6,061
829,74	15,385
829,92	5,668
830,10	-0,858
830,29	32,567
830,47	8,582
830,65	9,623
830,83	6,463
831,01	16,143
831,20	5,474
831,38	12,052
831,56	15,439
831,74	16,949
831,92	14,652
832,10	10,127
832,29	18,728
832,47	18,085
832,65	24,590
832,83	12,658
833,01	8,761
833,19	13,920
833,37	18,541
833,56	8,036
833,74	20,984
833,92	13,176
834,10	10,542
834,28	9,059
834,46	8,092
834,64	39,200
834,83	-6,232
835,01	10,966
835,19	6,028
835,37	12,147
835,55	18,697
835,73	6,497
835,91	11,504
836,09	16,447
836,28	4,573
836,46	8,850
836,64	19,160
836,82	3,297
837,00	4,473
837,18	22,333
837,36	19,941
837,54	-0,546
837,72	10,380
837,91	0,850
838,09	4,242
838,27	5,699
838,45	14,247
838,63	16,620
838,81	6,383
838,99	12,997
839,17	2,174
839,35	9,707
839,53	-0,255
839,72	19,505
839,90	2,444
840,08	7,059
840,26	7,349
840,44	5,344
840,62	8,895
840,80	10,989
840,98	11,409
841,16	-1,359
841,34	12,636
841,52	-1,087
841,70	0,496
841,89	5,239
842,07	7,816
842,25	7,757
842,43	9,002
842,61	3,546
842,79	7,937
842,97	0,686
843,15	4,384
843,33	5,144
843,51	4,783
843,69	6,445
843,87	13,911
844,05	0,864
844,23	7,069
844,41	17,296
844,59	8,921
844,77	5,773
844,95	8,658
845,13	0,421
845,31	5,501
845,50	14,493
845,68	10,921
845,86	4,675
846,04	13,884
846,22	4,737
846,40	3,099
846,58	7,968
846,76	4,260
846,94	0,000
847,12	8,654
847,30	1,313
847,48	4,554
847,66	-3,086
847,84	-0,353
848,02	1,654
848,20	5,273
848,38	3,571
848,56	5,206
848,74	6,375
848,92	12,199
849,10	7,746
849,28	7,874
849,46	-8,318
849,64	10,233
849,82	8,626
850,00	5,734
850,18	5,071
850,36	4,967
850,54	8,626
850,72	2,804
850,90	8,087
851,08	6,614
851,26	-4,531
851,44	2,100
851,62	15,228
851,80	5,120
851,98	4,072
852,16	11,659
852,34	8,592
852,52	9,320
852,70	11,030
852,87	1,892
853,05	12,321
853,23	2,655
853,41	5,634
853,59	2,597
853,77	5,523
853,95	4,572
854,13	2,841
854,31	2,156
854,49	4,501
854,67	8,017
854,85	2,426
855,03	12,785
855,21	8,069
855,39	10,403
855,57	4,902
855,75	4,648
855,93	-3,792
856,11	5,447
856,28	4,261
856,46	6,579
856,64	7,922
856,82	10,824
857,00	4,822
857,18	1,987
857,36	7,836
857,54	4,994
857,72	6,541
857,90	5,315
858,08	0,911
858,26	1,902
858,44	3,943
858,61	3,729
858,79	3,456
858,97	12,810
859,15	11,111
859,33	4,444
859,51	5,434
859,69	7,727
859,87	3,990
860,05	-0,246
860,23	4,932
860,40	1,202
860,58	1,887
860,76	0,435
860,94	1,175
861,12	4,964
861,30	7,724
861,48	11,169
861,66	4,906
861,84	3,355
862,01	2,102
862,19	3,659
862,37	0,000
862,55	3,846
862,73	5,785
862,91	8,944
863,09	4,312
863,27	2,683
863,44	3,122
863,62	7,464
863,80	3,415
863,98	1,197
864,16	7,034
864,34	5,489
864,52	8,160
864,69	3,112
864,87	-0,204
865,05	6,934
865,23	2,626
865,41	0,397
865,59	5,709
865,76	11,843
865,94	6,262
866,12	6,174
866,30	5,189
866,48	10,275
866,66	8,174
866,83	7,712
867,01	10,062
867,19	10,387
867,37	9,914
867,55	11,820
867,73	9,959
867,90	11,138
868,08	13,439
868,26	11,188
868,44	10,117
868,62	14,415
868,79	14,154
868,97	13,850
869,15	10,495
869,33	15,024
869,51	14,308
869,69	9,670
869,86	12,395
870,04	13,647
870,22	12,537
870,40	16,949
870,57	15,238
870,75	16,286
870,93	16,450
871,11	14,505
871,29	13,443
871,46	14,077
871,64	14,135
871,82	17,496
872,00	17,545
872,18	12,741
872,35	15,022
872,53	17,135
872,71	13,867
872,89	16,103
873,06	19,058
873,24	19,714
873,42	20,825
873,60	19,380
873,77	19,127
873,95	22,477
874,13	21,862
874,31	22,259
874,49	21,088
874,66	24,154
874,84	20,831
875,02	24,710
875,20	25,361
875,37	21,924
875,55	22,367
875,73	26,705
875,91	21,154
876,08	22,250
876,26	26,342
876,44	25,719
876,61	26,562
876,79	25,908
876,97	27,723
877,15	31,291
877,32	28,810
877,50	28,968
877,68	29,632
877,86	29,055
878,03	28,611
878,21	31,393
878,39	29,232
878,56	30,730
878,74	28,689
878,92	31,077
879,10	28,855
879,27	33,464
879,45	31,897
879,63	27,061
879,80	30,160
879,98	28,664
880,16	26,880
880,34	27,205
880,51	27,665
880,69	26,216
880,87	24,738
881,04	22,228
881,22	21,794
881,40	20,519
881,57	20,551
881,75	19,686
881,93	18,388
882,10	19,836
882,28	16,370
882,46	17,772
882,63	17,086
882,81	14,433
882,99	15,377
883,16	16,629
883,34	17,921
883,52	16,682
883,69	15,635
883,87	16,703
884,05	19,499
884,22	19,087
884,40	18,353
884,58	16,576
884,75	18,512
884,93	18,412
885,11	20,326
885,28	19,821
885,46	20,089
885,64	21,061
885,81	19,149
885,99	21,526
886,17	20,579
886,34	20,191
886,52	25,342
886,70	22,475
886,87	23,283
887,05	24,538
887,22	20,631
887,40	22,897
887,58	21,442
887,75	24,264
887,93	22,115
888,11	21,514
888,28	21,669
888,46	22,769
888,63	20,725
888,81	20,380
888,99	20,733
889,16	19,664
889,34	18,221
889,51	18,992
889,69	17,589
889,87	16,157
890,04	17,520
890,22	12,814
890,39	13,008
890,57	15,274
890,75	11,163
890,92	11,782
891,10	11,142
891,27	10,876
891,45	9,584
891,63	10,533
891,80	8,798
891,98	8,956
892,15	8,257
892,33	6,300
892,51	6,637
892,68	6,771
892,86	7,271
893,03	6,016
893,21	7,464
893,38	6,315
893,56	7,291
893,74	8,525
893,91	5,554
894,09	6,582
894,26	5,168
894,44	5,569
894,61	5,860
894,79	8,071
894,96	5,274
895,14	8,449
895,32	6,895
895,49	5,998
895,67	6,188
895,84	6,259
896,02	7,042
896,19	8,201
896,37	9,122
896,54	8,643
896,72	7,631
896,89	9,574
897,07	8,048
897,25	8,872
897,42	9,226
897,60	9,826
897,77	9,690
897,95	10,008
898,12	11,876
898,30	11,172
898,47	11,774
898,65	13,140
898,82	13,550
899,00	13,138
899,17	12,545
899,35	13,695
899,52	15,839
899,70	15,518
899,87	15,265
900,05	16,967
900,22	16,955
900,40	15,489
900,57	15,852
900,75	16,413
900,92	17,430
901,10	16,653
901,27	18,551
901,45	17,188
901,62	18,789
901,80	19,429
901,97	19,921
902,15	19,076
902,32	17,288
902,50	18,473
902,67	18,717
902,85	18,156
903,02	18,628
903,20	18,308
903,37	18,550
903,54	17,102
903,72	17,345
903,89	16,838
904,07	15,622
904,24	16,150
904,42	15,757
904,59	16,119
904,77	16,318
904,94	14,685
905,12	15,767
905,29	13,400
905,47	14,942
905,64	13,388
905,81	13,078
905,99	13,170
906,16	13,589
906,34	12,743
906,51	10,989
906,69	11,914
906,86	12,554
907,03	12,553
907,21	12,788
907,38	11,106
907,56	11,275
907,73	11,518
907,91	11,002
908,08	11,656
908,25	10,672
908,43	13,266
908,60	13,199
908,78	14,003
908,95	13,399
909,13	12,568
909,30	13,669
909,47	14,722
909,65	14,924
909,82	14,768
910,00	14,469
910,17	15,817
910,34	16,440
910,52	16,745
910,69	17,638
910,87	18,833
911,04	19,063
911,21	19,859
911,39	21,580
911,56	21,122
911,73	21,988
911,91	22,077
912,08	23,026
912,26	25,144
912,43	25,281
912,60	26,290
912,78	28,185
912,95	28,925
913,13	27,383
913,30	30,510
913,47	30,886
913,65	31,699
913,82	34,318
913,99	35,256
914,17	36,769
914,34	35,736
914,51	38,147
914,69	37,966
914,86	40,393
915,03	41,605
915,21	41,915
915,38	41,382
915,56	43,687
915,73	45,482
915,90	45,041
916,08	45,701
916,25	48,039
916,42	47,675
916,60	48,971
916,77	49,015
916,94	47,587
917,12	48,516
917,29	48,521
917,46	50,548
917,64	47,938
917,81	47,704
917,98	47,645
918,16	47,670
918,33	48,513
918,50	46,220
918,67	47,865
918,85	46,766
919,02	46,148
919,19	44,465
919,37	45,957
919,54	45,824
919,71	45,567
919,89	44,723
920,06	42,899
920,23	43,739
920,41	42,937
920,58	41,786
920,75	41,942
920,92	41,567
921,10	41,408
921,27	42,533
921,44	41,460
921,62	40,760
921,79	40,701
921,96	42,362
922,13	41,999
922,31	40,871
922,48	40,438
922,65	41,999
922,82	42,081
923,00	42,198
923,17	43,658
923,34	43,897
923,52	44,151
923,69	44,042
923,86	45,003
924,03	44,460
924,21	44,343
924,38	46,461
924,55	47,298
924,72	48,436
924,90	47,698
925,07	49,157
925,24	50,716
925,41	48,862
925,59	50,385
925,76	51,204
925,93	51,702
926,10	52,776
926,28	52,087
926,45	53,755
926,62	53,368
926,79	53,662
926,96	52,969
927,14	55,206
927,31	54,505
927,48	54,777
927,65	56,122
927,83	54,662
928,00	54,966
928,17	52,301
928,34	55,079
928,51	54,280
928,69	54,146
928,86	54,632
929,03	52,688
929,20	54,087
929,37	52,374
929,55	51,715
929,72	52,647
929,89	51,181
930,06	50,369
930,23	50,076
930,41	51,374
930,58	49,296
930,75	47,426
930,92	48,946
931,09	48,898
931,27	48,604
931,44	48,151
931,61	46,518
931,78	48,656
931,95	47,913
932,12	46,788
932,30	46,317
932,47	46,327
932,64	44,945
932,81	45,774
932,98	45,559
933,16	45,735
933,33	45,538
933,50	45,604
933,67	46,272
933,84	46,698
934,01	46,091
934,18	46,745
934,36	46,299
934,53	49,343
934,70	48,803
934,87	49,486
935,04	49,327
935,21	50,634
935,38	51,310
935,56	49,445
935,73	52,059
935,90	50,864
936,07	52,341
936,24	53,390
936,41	52,321
936,58	54,109
936,76	53,963
936,93	55,420
937,10	54,866
937,27	55,351
937,44	57,764
937,61	56,948
937,78	55,790
937,95	56,199
938,13	58,512
938,30	57,086
938,47	58,202
938,64	57,569
938,81	57,914
938,98	58,151
939,15	58,103
939,32	58,327
939,49	56,937
939,66	56,030
939,84	56,477
940,01	56,548
940,18	57,824
940,35	55,443
940,52	55,288
940,69	53,467
940,86	53,554
941,03	54,762
941,20	53,169
941,37	52,908
941,54	52,791
941,71	50,762
941,89	48,649
942,06	49,708
942,23	49,698
942,40	48,120
942,57	47,131
942,74	46,288
942,91	46,317
943,08	46,006
943,25	44,953
943,42	43,334
943,59	42,595
943,76	42,067
943,93	40,831
944,10	40,309
944,27	41,285
944,44	40,430
944,61	38,554
944,79	39,346
944,96	39,163
945,13	39,332
945,30	37,507
945,47	38,200
945,64	38,116
945,81	38,156
945,98	37,194
946,15	36,899
946,32	36,737
946,49	37,179
946,66	37,067
946,83	38,679
947,00	36,632
947,17	38,523
947,34	39,225
947,51	38,284
947,68	38,455
947,85	39,536
948,02	38,174
948,19	40,222
948,36	40,914
948,53	38,194
948,70	41,161
948,87	39,548
949,04	41,552
949,21	42,168
949,38	40,395
949,55	41,763
949,72	44,378
949,89	44,940
950,06	44,334
950,23	41,562
950,40	43,735
950,57	41,811
950,74	45,828
950,91	45,369
951,08	45,585
951,25	44,694
951,42	45,584
951,59	43,238
951,76	45,321
951,93	46,894
952,10	45,978
952,27	45,027
952,44	47,087
952,61	46,439
952,77	45,759
952,94	46,710
953,11	46,530
953,28	46,327
953,45	48,017
953,62	45,686
953,79	44,679
953,96	45,981
954,13	43,355
954,30	42,668
954,47	41,958
954,64	41,503
954,81	39,707
954,98	38,352
955,15	36,604
955,32	39,936
955,49	39,513
955,65	38,524
955,82	34,281
955,99	33,552
956,16	34,404
956,33	34,512
956,50	32,407
956,67	29,866
956,84	31,132
957,01	26,725
957,18	26,551
957,35	30,179
957,52	26,653
957,68	27,989
957,85	25,853
958,02	26,286
958,19	27,070
958,36	23,584
958,53	26,011
958,70	24,752
958,87	22,299
959,04	25,033
959,21	25,856
959,37	24,950
959,54	24,242
959,71	20,312
959,88	23,110
960,05	19,461
960,22	22,468
960,39	23,557
960,56	18,665
960,72	24,549
960,89	22,351
961,06	23,436
961,23	24,629
961,40	22,536
961,57	18,750
961,74	24,041
961,90	27,479
962,07	24,056
962,24	22,327
962,41	26,882
962,58	29,431
962,75	25,207
962,92	20,114
963,08	23,556
963,25	23,578
963,42	21,569
963,59	22,557
963,76	25,578
963,93	27,913
964,10	25,515
964,26	30,708
964,43	31,421
964,60	30,473
964,77	21,899
964,94	31,231
965,10	31,373
965,27	28,209
965,44	34,000
965,61	28,958
965,78	32,162
965,95	25,043
966,11	28,810
966,28	38,022
966,45	37,714
966,62	30,342
966,79	35,366
966,95	26,509
967,12	31,100
967,29	39,720
967,46	36,957
967,63	36,543
967,79	38,859
967,96	37,008
968,13	43,260
968,30	33,607
968,47	44,855
968,63	45,266
968,80	51,379
968,97	50,286
969,14	42,478
969,31	48,077
969,47	60,252
969,64	55,776
969,81	59,298
969,98	46,784
970,14	47,778
970,31	55,914
970,48	42,349
970,65	36,620
970,81	40,816
970,98	53,184
971,15	78,341
971,32	53,390
971,48	52,941
971,65	55,462
971,82	52,041
971,99	49,254
972,15	72,632
972,32	54,321
972,49	43,777
972,66	16,814
972,82	42,574
972,99	62,128
973,16	54,639
973,33	50,952
973,49	86,667
973,66	57,983
973,83	67,347
974,00	52,459
974,16	62,893
974,33	75,000
974,50	51,389
974,67	61,579
974,83	63,277
975,00	73,188
975,17	86,395
975,33	31,159
975,50	101,212
975,67	82,143
975,84	73,050
976,00	36,154
976,17	5,882
976,34	41,135
976,50	64,348
976,67	46,552
976,84	66,667
977,00	56,391
977,17	75,591
977,34	88,172
977,50	107,447
977,67	61,404
977,84	70,000
978,01	87,356
978,17	48,718
978,34	41,667
978,51	16,667
978,67	60,440
978,84	102,083
979,01	47,692
979,17	78,788
979,34	300,000
979,51	55,769
979,67	101,250
979,84	47,619
980,01	88,525
980,17	42,353
980,34	95,652
980,51	138,636
980,67	25,333
980,84	37,931
981,01	20,513
981,17	100,000
981,34	125,000
981,50	82,353
981,67	220,690
981,84	55,172
982,00	10,870
982,17	422,727
982,34	141,026
982,50	184,211
982,67	103,704
982,84	66,667
983,00	94,000
983,17	70,833
983,33	70,968
983,50	26,087
983,67	39,130
983,83	683,333
984,00	153,125
984,17	145,000
984,33	93,243
984,50	42,708
984,66	189,286
984,83	100,000
985,00	149,180
985,16	12,821
985,33	300,000
985,49	244,828
985,66	275,758
985,83	70,175
985,99	64,865
986,16	32,000
986,32	92,754
986,49	541,667
986,66	13,953
986,82	64,912
986,99	114,286
987,15	62,069
987,32	79,630
987,49	130,556
987,65	280,000
987,82	-35,294
987,98	100,000
988,15	67,857
988,31	126,000
988,48	62,500
988,65	222,222
988,81	130,435
988,98	133,333
989,14	83,673
989,31	156,667
989,47	63,415
989,64	47,143
989,80	140,000
989,97	55,882
990,14	13,043
990,30	55,000
990,47	121,951
990,63	52,174
990,80	242,424
990,96	216,667
991,13	125,000
991,29	149,020
991,46	156,863
991,62	85,294
991,79	156,140
991,95	70,000
992,12	30,233
992,29	108,000
992,45	-346,154
992,62	-300,000
992,78	-192,593
992,95	161,111
993,11	123,333
993,28	46,914
993,44	443,478
993,61	766,667
993,77	-160,000
993,94	197,674
994,10	257,143
994,27	12,000
994,43	197,059
994,60	87,879
994,76	236,842
994,93	231,818
995,09	97,297
995,26	77,778
995,42	74,576
995,59	178,571
995,75	237,500
995,92	122,727
996,08	116,667
996,25	-111,111
996,41	156,250
996,58	148,649
996,74	20,000
996,91	277,778
997,07	188,462
997,23	89,362
997,40	1266,667
997,56	326,667
997,73	0,000
997,89	88,889
998,06	-58,824
998,22	-2900,000
998,39	326,087
998,55	-129,167
998,72	195,000
998,88	1400,000
999,05	215,385
999,21	200,000
999,37	-1000,000
999,54	300,000
999,70	92,308
999,87	-18,750
1000,03	-28,125
1000,20	150,000
1000,36	1900,000
1000,52	366,667
1000,69	68,182
1000,85	134,483
1001,02	112,308
1001,18	13,636
1001,35	-31,111
1001,51	-92,857
1001,67	4,000
1001,84	433,333
1002,00	117,500
1002,17	100,000
1002,33	-176,471
1002,50	-311,111
1002,66	-2400,000
1002,82	117,143
1002,99	-65,385
1003,15	65,217
1003,32	80,645
1003,48	40,000
1003,64	47,500
1003,81	17,857
1003,97	159,091
1004,14	1633,333
1004,30	-557,143
1004,46	1100,000
1004,63	147,368
1004,79	-326,667
1004,95	82,353
1005,12	214,286
1005,28	220,690
1005,45	92,308
1005,61	-266,667
1005,77	152,632
1005,94	87,097
1006,10	-3800,000
1006,26	103,571
1006,43	666,667
1006,59	-81,481
1006,76	-80,000
1006,92	600,000
1007,08	370,000
1007,25	30,556
1007,41	-233,333
1007,57	-137,500
1007,74	-186,957
1007,90	-900,000
1008,06	68,571
1008,23	87,037
1008,39	1050,000
1008,55	-42,857
1008,72	287,500
1008,88	142,000
1009,04	216,000
1009,21	-58,824
1009,37	-112,500
1009,53	-305,263
1009,70	-323,077
1009,86	34,091
1010,02	130,769
1010,19	0,000
1010,35	156,250
1010,51	322,222
1010,68	212,500
1010,84	100,000
1011,00	46,667
1011,17	-520,000
1011,33	170,588
1011,49	18,750
1011,66	369,565
1011,82	9,434
1011,98	-68,182
1012,14	125,758
1012,31	-380,000
1012,47	733,333
1012,63	-88,889
1012,80	276,000
1012,96	218,182
1013,12	83,721
1013,29	73,684
1013,45	168,889
1013,61	-88,889
1013,77	44,444
1013,94	37,500
1014,10	33,333
1014,26	1900,000
1014,43	-78,788
1014,59	-512,500
1014,75	2100,000
1014,91	933,333
1015,08	113,333
1015,24	166,667
1015,40	-170,588
1015,56	161,111
1015,73	233,333
1015,89	238,095
1016,05	620,000
1016,21	-455,556
1016,38	340,000
1016,54	-161,538
1016,70	-11,111
1016,86	72,727
1017,03	56,410
1017,19	91,304
1017,35	30,769
1017,51	148,571
1017,68	-190,909
1017,84	7200,000
1018,00	157,143
1018,16	143,750
1018,33	-585,714
1018,49	168,293
1018,65	41,176
1018,81	-135,000
1018,97	-75,000
1019,14	83,333
1019,30	193,750
1019,46	400,000
1019,62	246,667
1019,79	58,333
1019,95	68,750
1020,11	-457,143
1020,27	441,667
1020,43	-471,429
1020,60	-31,579
1020,76	-127,778
1020,92	542,857
1021,08	4100,000
1021,24	230,000
1021,41	-2,941
1021,57	363,636
1021,73	-1475,000
1021,89	171,429
1022,05	1425,000
1022,21	120,513
1022,38	-80,000
1022,54	2500,000
1022,70	-86,364
1022,86	-50,000
1023,02	-47,059
1023,19	-333,333
1023,35	148,387
1023,51	39,286
1023,67	41,667
1023,83	900,000
1023,99	133,333
1024,16	197,619
1024,32	104,000
1024,48	236,364
1024,64	511,111
1024,80	-77,778
1024,96	86,207
1025,12	-171,429
1025,29	192,857
1025,45	91,667
1025,61	-266,667
1025,77	-70,968
1025,93	350,000
1026,09	56,098
1026,26	315,789
1026,42	-72,917
1026,58	-117,391
1026,74	150,000
1026,90	261,111
1027,06	-15,385
1027,22	-126,087
1027,38	104,348
1027,55	-300,000
1027,71	166,667
1027,87	-375,000
1028,03	100,000
1028,19	-105,882
1028,35	-400,000
1028,51	28,000
1028,67	185,294
1028,83	215,556
1029,00	-337,500
1029,16	100,000
1029,32	78,571
1029,48	-14,286
1029,64	-115,385
1029,80	81,818
1029,96	916,667
1030,12	242,105
1030,28	-500,000
1030,44	1380,000
1030,61	136,364
1030,77	-283,333
1030,93	-237,500
1031,09	-700,000
1031,25	0,000
1031,41	190,000
1031,57	-475,000
1031,73	-1375,000
1031,89	36,364
1032,05	-60,465
1032,21	-48,485
1032,37	144,643
1032,53	-6,897
1032,69	138,462
1032,86	-233,333
1033,02	33,333
1033,18	-83,333
1033,34	-800,000
1033,50	243,750
1033,66	-112,000
1033,82	233,333
1033,98	-200,000
1034,14	35,714
1034,30	-40,000
1034,46	94,118
1034,62	141,026
1034,78	-108,696
1034,94	74,194
1035,10	-261,538
1035,26	177,778
1035,42	-96,667
1035,58	216,667
1035,74	132,432
1035,90	293,750
1036,06	29,412
1036,22	124,242
1036,38	-225,000
1036,54	-243,750
1036,70	45,161
1036,86	-5,000
1037,02	250,000
1037,18	35,294
1037,34	222,222
1037,50	-740,000
1037,66	-5500,000
1037,82	242,857
1037,98	537,500
1038,14	-1200,000
1038,30	203,448
1038,46	-28,571
1038,62	266,667
1038,78	-342,857
1038,94	50,000
1039,10	172,000
1039,26	-108,333
1039,42	226,087
1039,58	-75,000
1039,74	2650,000
1039,90	-16,667
1040,06	63,077
>>>>>End Processed Spectral Data<<<<<
