SpectraSuite Data File
++++++++++++++++++++++++++++++++++++
Date: Tue Jan 31 18:51:42 EET 2017
User: optolab
Dark Spectrum Present: Yes
Reference Spectrum Present: Yes
Number of Sampled Component Spectra: 1
Spectrometers: USB4C02475
Integration Time (usec): 100000 (USB4C02475)
Spectra Averaged: 1 (USB4C02475)
Boxcar Smoothing: 0 (USB4C02475)
Correct for Electrical Dark: No (USB4C02475)
Strobe/Lamp Enabled: No (USB4C02475)
Correct for Detector Non-linearity: No (USB4C02475)
Correct for Stray Light: No (USB4C02475)
Number of Pixels in Processed Spectrum: 3648
>>>>>Begin Processed Spectral Data<<<<<
344,91	230,769
345,13	230,769
345,35	230,769
345,57	0,000
345,79	83,333
346,00	310,000
346,22	-138,889
346,44	138,462
346,66	1275,000
346,87	333,333
347,09	-58,333
347,31	-1533,333
347,53	-866,667
347,74	-192,308
347,96	171,429
348,18	1266,667
348,40	-128,571
348,61	68,571
348,83	100,000
349,05	80,357
349,27	357,895
349,48	119,231
349,70	252,941
349,92	121,951
350,14	477,778
350,35	160,976
350,57	177,143
350,79	205,882
351,01	361,538
351,22	137,500
351,44	-183,333
351,66	392,308
351,87	106,410
352,09	87,879
352,31	743,750
352,53	124,444
352,74	209,524
352,96	137,209
353,18	112,963
353,40	93,478
353,61	150,000
353,83	400,000
354,05	106,061
354,26	103,571
354,48	-1200,000
354,70	85,366
354,92	103,030
355,13	129,412
355,35	0,000
355,57	152,778
355,78	26,471
356,00	61,765
356,22	288,889
356,44	-169,231
356,65	125,758
356,87	0,000
357,09	156,667
357,30	63,492
357,52	191,071
357,74	-700,000
357,95	-40,000
358,17	683,333
358,39	144,118
358,60	370,000
358,82	47,059
359,04	-100,000
359,26	101,562
359,47	195,652
359,69	-56,757
359,91	153,846
360,12	553,846
360,34	61,165
360,56	72,414
360,77	557,143
360,99	88,462
361,21	145,833
361,42	181,250
361,64	130,769
361,86	200,000
362,07	140,385
362,29	54,412
362,51	169,231
362,72	68,919
362,94	366,667
363,16	220,000
363,37	59,677
363,59	168,966
363,81	-127,778
364,02	56,471
364,24	178,261
364,46	118,919
364,67	173,333
364,89	230,000
365,11	800,000
365,32	86,747
365,54	121,429
365,76	53,448
365,97	292,857
366,19	0,000
366,41	223,077
366,62	173,684
366,84	176,316
367,05	55,385
367,27	222,222
367,49	192,683
367,70	675,000
367,92	104,839
368,14	3800,000
368,35	84,507
368,57	28,205
368,79	61,765
369,00	0,000
369,22	366,667
369,43	90,909
369,65	59,701
369,87	90,141
370,08	842,857
370,30	182,353
370,51	101,852
370,73	157,692
370,95	133,333
371,16	583,333
371,38	140,909
371,60	261,538
371,81	132,432
372,03	405,263
372,24	409,091
372,46	91,463
372,68	82,813
372,89	111,429
373,11	166,667
373,32	166,667
373,54	136,000
373,76	65,957
373,97	83,871
374,19	150,000
374,40	138,889
374,62	-566,667
374,84	220,000
375,05	129,730
375,27	41,509
375,48	106,977
375,70	22,727
375,92	179,167
376,13	84,444
376,35	1133,333
376,56	64,000
376,78	133,333
376,99	49,351
377,21	-8100,000
377,43	52,083
377,64	181,579
377,86	171,739
378,07	30,000
378,29	-90,323
378,51	171,795
378,72	113,333
378,94	73,529
379,15	265,714
379,37	76,786
379,58	96,429
379,80	153,846
380,01	337,500
380,23	152,632
380,45	165,385
380,66	183,333
380,88	-3250,000
381,09	118,571
381,31	63,768
381,52	58,333
381,74	113,433
381,95	29,268
382,17	96,667
382,39	390,909
382,60	223,077
382,82	208,571
383,03	175,000
383,25	50,000
383,46	124,390
383,68	44,643
383,89	670,000
384,11	72,727
384,32	-375,000
384,54	166,667
384,76	3300,000
384,97	79,012
385,19	66,667
385,40	129,167
385,62	150,000
385,83	45,946
386,05	111,628
386,26	129,730
386,48	220,000
386,69	75,472
386,91	132,353
387,12	462,500
387,34	70,588
387,55	88,636
387,77	123,810
387,98	-1028,571
388,20	241,935
388,41	164,103
388,63	118,605
388,84	106,154
389,06	69,231
389,27	60,714
389,49	171,875
389,70	27,381
389,92	78,125
390,13	-104,348
390,35	94,000
390,56	148,485
390,78	67,742
390,99	966,667
391,21	119,643
391,42	104,918
391,64	122,222
391,85	93,333
392,07	106,000
392,28	90,000
392,50	64,912
392,71	122,222
392,93	181,081
393,14	-115,789
393,36	109,375
393,57	147,059
393,79	77,273
394,00	89,091
394,22	-18,182
394,43	85,000
394,65	225,000
394,86	107,576
395,08	61,644
395,29	148,837
395,50	281,250
395,72	97,222
395,93	164,583
396,15	94,366
396,36	52,830
396,58	44,444
396,79	25,455
397,01	77,108
397,22	211,111
397,44	-1580,000
397,65	105,263
397,87	46,154
398,08	58,000
398,29	218,750
398,51	258,333
398,72	42,000
398,94	89,189
399,15	51,020
399,37	53,846
399,58	203,226
399,80	-25,000
400,01	17,391
400,22	132,653
400,44	213,333
400,65	93,333
400,87	37,705
401,08	88,158
401,30	78,000
401,51	22,727
401,72	20,930
401,94	66,129
402,15	49,153
402,37	181,818
402,58	95,556
402,80	98,214
403,01	59,574
403,22	98,333
403,44	96,250
403,65	-0,000
403,87	23,077
404,08	80,000
404,30	134,483
404,51	71,429
404,72	91,463
404,94	122,857
405,15	60,870
405,37	75,000
405,58	65,909
405,79	75,949
406,01	66,355
406,22	-82,927
406,44	39,796
406,65	69,863
406,86	57,576
407,08	180,556
407,29	24,719
407,51	103,061
407,72	74,074
407,93	61,745
408,15	85,135
408,36	23,148
408,58	35,772
408,79	79,570
409,00	56,818
409,22	79,121
409,43	5,618
409,64	35,088
409,86	23,404
410,07	34,259
410,29	40,449
410,50	28,767
410,71	66,279
410,93	54,706
411,14	51,563
411,35	25,862
411,57	35,437
411,78	26,066
412,00	35,593
412,21	17,341
412,42	18,137
412,64	30,556
412,85	27,461
413,06	18,049
413,28	24,571
413,49	0,000
413,70	35,379
413,92	23,596
414,13	27,413
414,34	4,110
414,56	14,839
414,77	11,742
414,98	19,403
415,20	20,566
415,41	-0,940
415,63	0,000
415,84	13,497
416,05	17,718
416,27	10,386
416,48	6,250
416,69	10,386
416,91	20,732
417,12	15,332
417,33	9,739
417,55	6,388
417,76	17,409
417,97	18,290
418,19	12,195
418,40	13,975
418,61	17,667
418,83	3,763
419,04	10,244
419,25	10,784
419,46	10,063
419,68	12,553
419,89	6,231
420,10	6,910
420,32	6,971
420,53	7,654
420,74	9,552
420,96	5,384
421,17	6,025
421,38	4,171
421,60	3,412
421,81	8,925
422,02	0,000
422,23	6,820
422,45	5,354
422,66	3,983
422,87	3,228
423,09	6,854
423,30	4,715
423,51	4,061
423,73	3,954
423,94	2,095
424,15	5,786
424,36	1,082
424,58	4,660
424,79	4,991
425,00	4,551
425,22	4,068
425,43	4,053
425,64	5,326
425,85	7,233
426,07	3,462
426,28	5,284
426,49	4,291
426,71	1,874
426,92	3,581
427,13	3,811
427,34	2,909
427,56	1,958
427,77	4,280
427,98	1,526
428,19	-0,548
428,41	2,251
428,62	1,489
428,83	2,266
429,04	2,901
429,26	2,587
429,47	2,238
429,68	2,539
429,89	1,627
430,11	2,194
430,32	2,165
430,53	0,718
430,74	1,617
430,96	1,615
431,17	1,850
431,38	0,937
431,59	2,821
431,81	1,089
432,02	1,672
432,23	1,636
432,44	1,947
432,66	2,302
432,87	1,716
433,08	1,282
433,29	0,407
433,51	1,806
433,72	1,494
433,93	1,324
434,14	1,054
434,35	1,783
434,57	0,868
434,78	1,298
434,99	1,555
435,20	0,659
435,42	1,281
435,63	1,224
435,84	1,476
436,05	0,984
436,26	1,057
436,48	1,218
436,69	0,726
436,90	1,098
437,11	1,749
437,32	1,427
437,54	1,256
437,75	1,134
437,96	1,130
438,17	2,070
438,38	2,604
438,60	2,158
438,81	3,071
439,02	3,890
439,23	4,718
439,44	6,650
439,66	8,135
439,87	10,394
440,08	12,551
440,29	13,998
440,50	17,927
440,72	20,249
440,93	23,118
441,14	26,887
441,35	29,583
441,56	32,175
441,77	34,688
441,99	36,369
442,20	38,492
442,41	40,294
442,62	41,785
442,83	42,198
443,04	44,594
443,26	44,737
443,47	44,701
443,68	45,018
443,89	45,817
444,10	45,592
444,31	47,099
444,53	47,743
444,74	49,206
444,95	50,277
445,16	54,642
445,37	57,160
445,58	61,800
445,80	66,182
446,01	72,384
446,22	78,831
446,43	82,533
446,64	85,243
446,85	87,827
447,06	88,185
447,28	90,299
447,49	89,374
447,70	89,330
447,91	90,281
448,12	89,127
448,33	92,247
448,54	90,862
448,76	92,711
448,97	92,412
449,18	93,603
449,39	93,263
449,60	93,872
449,81	94,578
450,02	94,023
450,23	94,719
450,45	95,576
450,66	96,295
450,87	94,653
451,08	95,138
451,29	95,796
451,50	96,033
451,71	94,010
451,92	94,699
452,13	95,590
452,35	94,032
452,56	94,367
452,77	93,750
452,98	95,451
453,19	95,972
453,40	95,408
453,61	95,470
453,82	95,623
454,03	97,467
454,25	95,864
454,46	96,110
454,67	97,559
454,88	97,794
455,09	97,373
455,30	97,191
455,51	95,941
455,72	95,162
455,93	95,391
456,14	95,226
456,35	93,438
456,56	92,894
456,78	92,924
456,99	92,180
457,20	90,094
457,41	91,111
457,62	91,358
457,83	90,943
458,04	93,732
458,25	92,577
458,46	94,635
458,67	94,142
458,88	95,859
459,09	96,199
459,30	95,997
459,51	97,317
459,73	96,473
459,94	97,559
460,15	96,336
460,36	97,236
460,57	97,248
460,78	97,172
460,99	97,959
461,20	97,083
461,41	96,820
461,62	97,166
461,83	97,435
462,04	97,389
462,25	96,883
462,46	97,506
462,67	98,549
462,88	98,375
463,09	98,077
463,30	96,940
463,51	97,910
463,72	97,800
463,93	98,195
464,15	98,127
464,36	98,278
464,57	97,706
464,78	97,813
464,99	98,642
465,20	98,466
465,41	98,476
465,62	98,540
465,83	97,823
466,04	97,175
466,25	97,336
466,46	97,774
466,67	96,630
466,88	96,039
467,09	97,438
467,30	96,548
467,51	95,957
467,72	96,090
467,93	95,421
468,14	96,451
468,35	95,738
468,56	95,034
468,77	95,537
468,98	95,917
469,19	96,685
469,40	97,132
469,61	97,664
469,82	97,581
470,03	97,388
470,24	98,829
470,45	98,511
470,66	98,722
470,87	98,494
471,08	100,176
471,29	97,946
471,50	98,191
471,71	98,494
471,92	98,229
472,13	98,003
472,34	97,955
472,55	98,010
472,76	97,252
472,97	97,294
473,18	97,105
473,39	96,506
473,60	96,865
473,81	97,583
474,01	96,803
474,22	97,010
474,43	96,654
474,64	99,101
474,85	99,091
475,06	98,245
475,27	98,976
475,48	99,807
475,69	99,150
475,90	99,861
476,11	100,004
476,32	101,606
476,53	100,088
476,74	101,045
476,95	100,479
477,16	101,259
477,37	100,243
477,58	100,306
477,79	100,264
478,00	99,892
478,21	101,077
478,41	99,836
478,62	100,563
478,83	99,208
479,04	99,316
479,25	99,652
479,46	99,791
479,67	99,068
479,88	99,696
480,09	98,806
480,30	98,182
480,51	98,975
480,72	98,528
480,93	97,974
481,14	98,541
481,34	97,905
481,55	97,762
481,76	96,960
481,97	97,529
482,18	98,731
482,39	97,375
482,60	97,167
482,81	96,907
483,02	97,384
483,23	96,472
483,44	96,267
483,65	96,989
483,85	97,300
484,06	96,909
484,27	96,388
484,48	96,650
484,69	97,696
484,90	96,885
485,11	96,929
485,32	97,111
485,53	97,100
485,73	95,021
485,94	96,306
486,15	95,815
486,36	96,332
486,57	94,236
486,78	94,913
486,99	93,686
487,20	93,598
487,41	93,064
487,61	90,950
487,82	90,116
488,03	89,113
488,24	87,333
488,45	85,635
488,66	82,892
488,87	79,872
489,08	77,399
489,28	73,676
489,49	70,128
489,70	66,459
489,91	61,836
490,12	57,255
490,33	52,407
490,54	47,411
490,74	42,501
490,95	36,184
491,16	31,921
491,37	26,502
491,58	21,448
491,79	17,043
492,00	13,629
492,20	10,810
492,41	7,661
492,62	5,679
492,83	3,908
493,04	2,883
493,25	1,863
493,45	1,485
493,66	1,080
493,87	0,702
494,08	0,607
494,29	0,610
494,50	0,560
494,70	0,746
494,91	0,617
495,12	0,380
495,33	0,438
495,54	0,425
495,75	0,498
495,95	0,403
496,16	0,483
496,37	0,715
496,58	0,452
496,79	0,518
496,99	0,562
497,20	0,387
497,41	0,485
497,62	0,479
497,83	0,318
498,04	0,460
498,24	0,443
498,45	0,481
498,66	0,274
498,87	0,407
499,08	0,365
499,28	0,233
499,49	0,327
499,70	0,398
499,91	0,400
500,12	0,357
500,32	0,356
500,53	0,363
500,74	0,395
500,95	0,180
501,15	0,386
501,36	0,471
501,57	0,250
501,78	0,367
501,99	0,111
502,19	0,313
502,40	0,353
502,61	0,240
502,82	0,376
503,02	0,354
503,23	0,328
503,44	0,237
503,65	0,136
503,86	0,262
504,06	0,410
504,27	0,627
504,48	0,306
504,69	0,350
504,89	0,303
505,10	0,277
505,31	0,293
505,52	0,418
505,72	0,281
505,93	0,387
506,14	0,245
506,35	0,205
506,55	0,287
506,76	0,278
506,97	0,474
507,18	0,346
507,38	0,281
507,59	0,146
507,80	0,384
508,01	0,178
508,21	0,354
508,42	0,359
508,63	0,416
508,84	0,330
509,04	0,192
509,25	0,376
509,46	0,318
509,67	0,274
509,87	0,016
510,08	0,415
510,29	0,238
510,49	0,279
510,70	0,306
510,91	0,291
511,12	0,313
511,32	0,175
511,53	0,266
511,74	0,294
511,94	0,360
512,15	0,453
512,36	0,499
512,57	0,430
512,77	0,277
512,98	0,242
513,19	0,249
513,39	0,340
513,60	0,425
513,81	0,400
514,01	0,321
514,22	0,339
514,43	0,171
514,64	0,285
514,84	0,438
515,05	0,150
515,26	0,296
515,46	0,513
515,67	0,339
515,88	0,068
516,08	0,275
516,29	0,060
516,50	0,176
516,70	0,280
516,91	0,392
517,12	0,222
517,32	0,432
517,53	0,318
517,74	0,329
517,95	0,390
518,15	0,132
518,36	0,300
518,57	0,284
518,77	0,173
518,98	0,323
519,19	0,301
519,39	0,294
519,60	0,338
519,80	0,186
520,01	0,172
520,22	0,350
520,42	0,433
520,63	0,170
520,84	0,410
521,04	0,407
521,25	0,383
521,46	0,177
521,66	0,219
521,87	0,303
522,08	0,373
522,28	0,347
522,49	0,266
522,70	0,390
522,90	0,418
523,11	0,338
523,31	0,334
523,52	0,287
523,73	0,400
523,93	0,377
524,14	0,306
524,35	0,617
524,55	0,225
524,76	0,241
524,97	0,316
525,17	0,428
525,38	0,378
525,58	0,245
525,79	0,521
526,00	0,419
526,20	0,422
526,41	0,486
526,61	0,512
526,82	0,571
527,03	0,358
527,23	0,308
527,44	0,296
527,64	0,354
527,85	0,322
528,06	0,399
528,26	0,364
528,47	0,211
528,68	0,459
528,88	0,582
529,09	0,331
529,29	0,312
529,50	0,523
529,70	0,403
529,91	0,412
530,12	0,388
530,32	0,274
530,53	0,425
530,73	0,463
530,94	0,448
531,15	0,254
531,35	0,419
531,56	0,580
531,76	0,466
531,97	0,556
532,17	0,280
532,38	0,625
532,59	0,436
532,79	0,466
533,00	0,626
533,20	0,546
533,41	0,647
533,61	0,429
533,82	0,703
534,03	0,628
534,23	0,655
534,44	0,569
534,64	0,535
534,85	0,695
535,05	0,697
535,26	0,647
535,46	0,685
535,67	0,641
535,88	0,825
536,08	0,920
536,29	1,270
536,49	1,263
536,70	1,835
536,90	2,248
537,11	2,735
537,31	3,323
537,52	3,953
537,72	4,941
537,93	6,080
538,13	7,290
538,34	8,792
538,55	10,998
538,75	12,657
538,96	15,341
539,16	17,250
539,37	19,592
539,57	22,394
539,78	24,894
539,98	26,711
540,19	29,539
540,39	31,821
540,60	34,112
540,80	35,699
541,01	37,195
541,21	39,390
541,42	40,200
541,62	41,625
541,83	43,156
542,03	43,812
542,24	45,179
542,44	45,562
542,65	47,742
542,85	49,331
543,06	50,981
543,26	53,361
543,47	55,110
543,67	58,097
543,88	61,064
544,08	65,395
544,29	68,055
544,49	72,480
544,70	76,419
544,90	79,829
545,11	82,374
545,31	85,232
545,52	88,206
545,72	89,940
545,93	91,383
546,13	92,592
546,34	93,968
546,54	95,260
546,75	96,194
546,95	97,241
547,15	97,016
547,36	98,020
547,56	98,633
547,77	99,315
547,97	99,591
548,18	100,526
548,38	99,251
548,59	100,062
548,79	99,422
549,00	99,143
549,20	100,353
549,41	100,223
549,61	101,091
549,81	101,618
550,02	100,058
550,22	100,381
550,43	99,736
550,63	100,508
550,84	100,125
551,04	99,726
551,25	100,554
551,45	99,754
551,65	99,810
551,86	98,703
552,06	99,327
552,27	99,798
552,47	99,366
552,68	99,950
552,88	99,331
553,08	99,896
553,29	100,109
553,49	98,673
553,70	98,764
553,90	98,984
554,11	100,210
554,31	99,128
554,51	100,054
554,72	99,746
554,92	99,285
555,13	100,550
555,33	99,700
555,53	98,450
555,74	99,323
555,94	100,401
556,15	99,336
556,35	99,651
556,56	100,221
556,76	99,723
556,96	100,600
557,17	99,357
557,37	99,657
557,58	98,932
557,78	99,935
557,98	99,457
558,19	98,202
558,39	98,577
558,59	99,716
558,80	98,844
559,00	98,467
559,21	98,301
559,41	98,147
559,61	98,108
559,82	98,516
560,02	98,565
560,23	97,645
560,43	97,394
560,63	97,828
560,84	98,156
561,04	97,808
561,24	97,826
561,45	98,166
561,65	98,032
561,85	98,600
562,06	98,670
562,26	97,955
562,47	98,712
562,67	97,903
562,87	98,981
563,08	99,190
563,28	98,825
563,48	98,531
563,69	98,628
563,89	97,554
564,09	98,625
564,30	98,505
564,50	98,792
564,70	98,312
564,91	98,788
565,11	98,274
565,31	98,736
565,52	98,633
565,72	99,178
565,92	99,158
566,13	99,017
566,33	97,958
566,53	99,194
566,74	99,041
566,94	98,962
567,14	99,309
567,35	98,654
567,55	99,523
567,75	98,786
567,96	99,253
568,16	99,578
568,36	99,904
568,57	99,790
568,77	99,083
568,97	100,167
569,18	99,688
569,38	100,520
569,58	100,322
569,79	99,985
569,99	100,604
570,19	100,618
570,39	100,591
570,60	99,918
570,80	100,653
571,00	100,199
571,21	100,679
571,41	99,042
571,61	99,846
571,82	100,655
572,02	99,730
572,22	100,833
572,42	101,034
572,63	100,384
572,83	100,451
573,03	100,678
573,24	100,066
573,44	100,466
573,64	100,568
573,84	100,216
574,05	99,876
574,25	99,919
574,45	99,508
574,66	99,742
574,86	99,820
575,06	99,356
575,26	100,699
575,47	99,931
575,67	98,748
575,87	99,699
576,07	98,677
576,28	100,099
576,48	98,493
576,68	100,520
576,88	99,278
577,09	98,820
577,29	100,069
577,49	100,188
577,69	98,603
577,90	98,219
578,10	99,058
578,30	100,164
578,50	99,139
578,71	99,034
578,91	98,826
579,11	99,245
579,31	99,193
579,52	98,899
579,72	99,266
579,92	98,201
580,12	99,571
580,33	98,914
580,53	99,383
580,73	98,763
580,93	98,057
581,13	98,305
581,34	99,157
581,54	98,773
581,74	99,367
581,94	98,943
582,15	99,003
582,35	98,275
582,55	98,795
582,75	99,049
582,95	99,538
583,16	98,761
583,36	99,712
583,56	99,489
583,76	98,658
583,96	98,987
584,17	99,449
584,37	99,532
584,57	100,289
584,77	98,344
584,97	99,145
585,18	98,922
585,38	98,464
585,58	98,694
585,78	99,466
585,98	98,341
586,19	98,638
586,39	98,273
586,59	98,875
586,79	98,948
586,99	99,161
587,20	98,505
587,40	98,647
587,60	98,940
587,80	98,312
588,00	99,127
588,20	98,977
588,41	97,902
588,61	97,926
588,81	97,542
589,01	97,985
589,21	97,990
589,41	98,501
589,62	97,972
589,82	97,777
590,02	97,008
590,22	97,736
590,42	96,801
590,62	97,371
590,83	98,031
591,03	96,775
591,23	97,555
591,43	96,151
591,63	96,870
591,83	95,800
592,03	96,192
592,24	95,583
592,44	95,735
592,64	95,991
592,84	96,035
593,04	94,425
593,24	93,691
593,44	92,801
593,65	92,672
593,85	92,143
594,05	89,867
594,25	89,801
594,45	87,177
594,65	85,699
594,85	82,931
595,06	81,429
595,26	77,683
595,46	74,160
595,66	70,377
595,86	67,181
596,06	62,931
596,26	58,781
596,46	54,894
596,66	50,573
596,87	45,776
597,07	41,229
597,27	37,094
597,47	32,290
597,67	28,122
597,87	24,575
598,07	20,456
598,27	16,857
598,47	14,182
598,67	11,636
598,88	9,403
599,08	7,449
599,28	5,965
599,48	4,507
599,68	3,488
599,88	2,470
600,08	2,049
600,28	1,736
600,48	1,391
600,68	1,134
600,88	0,956
601,09	0,682
601,29	0,828
601,49	0,639
601,69	0,482
601,89	0,544
602,09	0,388
602,29	0,352
602,49	0,493
602,69	0,444
602,89	0,467
603,09	0,492
603,29	0,291
603,49	0,279
603,69	0,267
603,90	0,353
604,10	0,386
604,30	0,283
604,50	0,383
604,70	0,314
604,90	0,349
605,10	0,300
605,30	0,440
605,50	0,186
605,70	0,453
605,90	0,428
606,10	0,227
606,30	0,223
606,50	0,160
606,70	0,368
606,90	0,406
607,10	0,214
607,30	0,139
607,50	0,315
607,70	0,448
607,90	0,302
608,10	0,354
608,30	0,218
608,50	0,349
608,70	0,218
608,90	0,077
609,11	0,421
609,31	0,234
609,51	0,423
609,71	0,459
609,91	0,356
610,11	0,264
610,31	0,215
610,51	0,271
610,71	0,230
610,91	0,268
611,11	0,469
611,31	0,000
611,51	0,250
611,71	0,265
611,91	0,189
612,11	0,203
612,31	0,222
612,51	0,139
612,71	0,291
612,91	0,177
613,11	0,228
613,31	0,260
613,51	0,245
613,71	0,157
613,91	0,256
614,11	0,276
614,31	0,369
614,50	0,220
614,70	0,324
614,90	0,382
615,10	0,169
615,30	0,004
615,50	0,193
615,70	0,264
615,90	0,165
616,10	0,141
616,30	0,264
616,50	0,083
616,70	0,143
616,90	0,474
617,10	0,240
617,30	0,171
617,50	0,396
617,70	0,182
617,90	0,379
618,10	0,163
618,30	0,373
618,50	0,184
618,70	0,423
618,90	0,170
619,10	0,275
619,30	0,284
619,49	0,430
619,69	0,180
619,89	0,122
620,09	0,248
620,29	0,159
620,49	0,351
620,69	0,377
620,89	0,363
621,09	0,202
621,29	0,194
621,49	0,227
621,69	0,115
621,89	0,201
622,09	0,161
622,29	0,219
622,48	0,191
622,68	0,395
622,88	0,204
623,08	0,242
623,28	0,347
623,48	0,256
623,68	0,190
623,88	0,320
624,08	0,236
624,28	0,199
624,48	0,251
624,67	0,097
624,87	0,165
625,07	0,222
625,27	0,272
625,47	0,108
625,67	0,123
625,87	0,279
626,07	0,169
626,27	0,184
626,47	0,329
626,66	0,176
626,86	0,164
627,06	0,207
627,26	0,225
627,46	0,104
627,66	0,327
627,86	0,180
628,06	0,232
628,25	0,188
628,45	0,315
628,65	0,236
628,85	0,227
629,05	0,209
629,25	0,356
629,45	0,228
629,65	0,196
629,84	0,282
630,04	0,184
630,24	0,223
630,44	0,123
630,64	0,340
630,84	0,371
631,04	0,360
631,23	0,303
631,43	0,316
631,63	0,234
631,83	0,486
632,03	0,311
632,23	0,538
632,42	0,382
632,62	0,440
632,82	0,833
633,02	0,660
633,22	0,588
633,42	0,944
633,62	1,343
633,81	1,321
634,01	1,514
634,21	2,165
634,41	2,581
634,61	2,980
634,80	3,855
635,00	4,326
635,20	5,257
635,40	6,240
635,60	6,914
635,80	8,638
635,99	9,951
636,19	11,366
636,39	12,974
636,59	15,158
636,79	16,766
636,98	18,102
637,18	20,653
637,38	21,984
637,58	23,744
637,78	25,790
637,97	27,606
638,17	29,982
638,37	31,284
638,57	33,348
638,77	34,440
638,96	35,461
639,16	36,986
639,36	37,809
639,56	39,722
639,76	40,170
639,95	41,137
640,15	43,620
640,35	44,347
640,55	45,714
640,75	47,674
640,94	48,512
641,14	50,604
641,34	52,118
641,54	54,109
641,73	57,614
641,93	60,378
642,13	63,160
642,33	67,316
642,53	70,133
642,72	72,653
642,92	76,660
643,12	79,855
643,32	82,436
643,51	83,269
643,71	85,105
643,91	88,033
644,11	90,465
644,30	92,637
644,50	93,275
644,70	92,831
644,90	94,854
645,09	95,961
645,29	94,835
645,49	95,402
645,69	96,259
645,88	97,226
646,08	97,525
646,28	98,689
646,48	96,973
646,67	97,862
646,87	99,298
647,07	98,570
647,26	99,246
647,46	97,969
647,66	99,753
647,86	98,509
648,05	96,323
648,25	99,202
648,45	96,843
648,65	98,172
648,84	98,980
649,04	97,390
649,24	98,375
649,43	96,630
649,63	96,820
649,83	99,210
650,03	97,810
650,22	98,367
650,42	98,040
650,62	96,749
650,81	97,257
651,01	96,832
651,21	96,151
651,40	96,961
651,60	98,227
651,80	97,387
652,00	97,639
652,19	95,118
652,39	97,224
652,59	97,228
652,78	96,500
652,98	96,330
653,18	96,866
653,37	96,373
653,57	95,261
653,77	96,607
653,96	96,573
654,16	96,383
654,36	96,062
654,55	97,138
654,75	97,781
654,95	96,416
655,14	95,637
655,34	96,701
655,54	95,405
655,73	95,104
655,93	97,980
656,13	96,644
656,32	97,439
656,52	97,572
656,72	98,311
656,91	96,920
657,11	95,653
657,31	96,207
657,50	97,751
657,70	97,997
657,90	96,439
658,09	96,075
658,29	96,309
658,49	96,512
658,68	96,519
658,88	96,586
659,07	95,079
659,27	96,172
659,47	97,297
659,66	96,713
659,86	96,021
660,06	96,108
660,25	95,094
660,45	95,369
660,64	97,303
660,84	95,584
661,04	94,286
661,23	94,052
661,43	95,050
661,63	93,066
661,82	94,959
662,02	95,304
662,21	95,746
662,41	95,038
662,61	94,189
662,80	95,297
663,00	94,672
663,19	96,629
663,39	95,900
663,59	96,834
663,78	94,506
663,98	95,496
664,17	94,658
664,37	95,426
664,57	95,137
664,76	97,261
664,96	95,233
665,15	95,141
665,35	95,081
665,55	95,027
665,74	95,750
665,94	95,392
666,13	95,487
666,33	94,698
666,53	94,499
666,72	94,031
666,92	96,017
667,11	95,603
667,31	94,621
667,50	95,076
667,70	95,936
667,90	96,390
668,09	95,479
668,29	95,078
668,48	94,866
668,68	95,613
668,87	95,124
669,07	96,227
669,26	95,564
669,46	95,202
669,66	96,397
669,85	97,062
670,05	95,176
670,24	97,016
670,44	95,049
670,63	94,778
670,83	95,905
671,02	96,249
671,22	96,069
671,42	94,534
671,61	95,285
671,81	97,635
672,00	93,797
672,20	95,287
672,39	95,504
672,59	95,670
672,78	95,574
672,98	94,449
673,17	95,200
673,37	95,715
673,56	94,459
673,76	94,944
673,95	97,586
674,15	95,643
674,34	96,420
674,54	96,023
674,73	96,270
674,93	95,522
675,13	94,968
675,32	95,948
675,52	96,090
675,71	95,281
675,91	96,236
676,10	95,890
676,30	96,687
676,49	95,793
676,69	95,787
676,88	96,176
677,08	95,624
677,27	94,913
677,47	95,164
677,66	95,230
677,86	95,729
678,05	94,699
678,24	95,020
678,44	95,408
678,63	94,758
678,83	95,699
679,02	95,435
679,22	94,340
679,41	95,437
679,61	93,226
679,80	94,319
680,00	94,202
680,19	94,335
680,39	93,925
680,58	94,254
680,78	93,824
680,97	93,595
681,17	91,601
681,36	93,993
681,56	92,148
681,75	92,137
681,94	93,081
682,14	93,526
682,33	92,272
682,53	92,088
682,72	91,465
682,92	92,048
683,11	92,901
683,31	92,080
683,50	92,263
683,69	92,314
683,89	92,759
684,08	92,602
684,28	91,838
684,47	92,599
684,67	92,545
684,86	91,917
685,06	92,377
685,25	93,032
685,44	93,214
685,64	92,799
685,83	92,928
686,03	92,852
686,22	92,731
686,42	92,285
686,61	93,495
686,80	92,445
687,00	91,487
687,19	92,031
687,39	91,968
687,58	90,368
687,77	90,519
687,97	89,963
688,16	89,750
688,36	89,059
688,55	87,594
688,74	86,934
688,94	86,421
689,13	85,294
689,33	82,840
689,52	82,780
689,71	80,404
689,91	79,310
690,10	77,500
690,30	76,017
690,49	73,657
690,68	70,991
690,88	69,463
691,07	66,764
691,27	64,705
691,46	62,227
691,65	60,001
691,85	57,234
692,04	54,261
692,23	52,009
692,43	49,004
692,62	46,473
692,82	44,338
693,01	41,394
693,20	37,968
693,40	36,252
693,59	33,128
693,78	30,279
693,98	28,550
694,17	25,464
694,36	23,866
694,56	20,740
694,75	19,917
694,94	17,357
695,14	15,266
695,33	13,370
695,53	11,717
695,72	10,606
695,91	9,344
696,11	8,049
696,30	7,089
696,49	5,995
696,69	5,218
696,88	4,544
697,07	3,935
697,27	3,286
697,46	2,631
697,65	1,932
697,85	1,906
698,04	1,274
698,23	0,805
698,43	1,489
698,62	0,910
698,81	1,081
699,01	0,600
699,20	0,602
699,39	0,786
699,58	0,482
699,78	0,384
699,97	0,398
700,16	0,249
700,36	0,414
700,55	1,084
700,74	0,134
700,94	0,616
701,13	0,699
701,32	0,460
701,52	0,549
701,71	0,810
701,90	0,187
702,09	0,842
702,29	0,554
702,48	0,525
702,67	1,161
702,87	0,476
703,06	0,409
703,25	0,857
703,44	0,333
703,64	0,892
703,83	1,274
704,02	-0,068
704,22	0,453
704,41	0,801
704,60	0,765
704,79	0,243
704,99	1,070
705,18	0,288
705,37	1,136
705,56	0,475
705,76	1,247
705,95	0,971
706,14	0,310
706,33	1,019
706,53	0,718
706,72	2,578
706,91	0,619
707,11	0,381
707,30	1,015
707,49	1,289
707,68	1,534
707,88	0,364
708,07	1,392
708,26	1,126
708,45	1,004
708,64	1,658
708,84	1,102
709,03	1,554
709,22	1,611
709,41	0,944
709,61	-0,084
709,80	0,783
709,99	1,997
710,18	0,892
710,38	1,503
710,57	2,032
710,76	1,800
710,95	1,627
711,14	2,056
711,34	1,930
711,53	2,321
711,72	1,327
711,91	1,542
712,11	2,429
712,30	2,663
712,49	1,886
712,68	0,425
712,87	0,625
713,07	2,595
713,26	2,138
713,45	1,031
713,64	1,638
713,83	1,662
714,03	1,546
714,22	0,000
714,41	1,698
714,60	2,197
714,79	2,318
714,99	0,402
715,18	1,082
715,37	2,131
715,56	1,905
715,75	0,615
715,94	2,340
716,14	0,722
716,33	0,932
716,52	1,976
716,71	3,523
716,90	-0,791
717,10	3,939
717,29	4,260
717,48	4,138
717,67	0,565
717,86	0,744
718,05	1,901
718,24	1,735
718,44	4,276
718,63	3,767
718,82	2,889
719,01	0,676
719,20	2,043
719,39	1,760
719,59	3,293
719,78	1,378
719,97	2,863
720,16	0,140
720,35	3,716
720,54	3,024
720,73	3,857
720,93	1,950
721,12	0,072
721,31	4,009
721,50	7,741
721,69	5,182
721,88	3,801
722,07	4,170
722,27	0,467
722,46	-2,812
722,65	-0,835
722,84	0,079
723,03	1,801
723,22	2,846
723,41	3,065
723,60	-3,199
723,79	4,254
723,99	5,925
724,18	4,921
724,37	-1,330
724,56	1,046
724,75	1,964
724,94	5,160
725,13	3,092
725,32	3,968
725,51	0,358
725,71	2,795
725,90	3,641
726,09	3,707
726,28	3,013
726,47	4,779
726,66	-1,461
726,85	0,876
727,04	7,820
727,23	4,980
727,42	4,482
727,61	1,455
727,81	3,684
728,00	2,106
728,19	2,116
728,38	2,778
728,57	6,882
728,76	7,811
728,95	5,246
729,14	7,503
729,33	0,000
729,52	7,275
729,71	2,212
729,90	1,863
730,09	4,142
730,28	5,556
730,48	1,211
730,67	5,529
730,86	5,306
731,05	1,350
731,24	3,416
731,43	8,918
731,62	4,938
731,81	8,810
732,00	3,487
732,19	4,010
732,38	4,606
732,57	0,126
732,76	-4,328
732,95	5,777
733,14	3,856
733,33	0,417
733,52	4,878
733,71	1,463
733,90	7,469
734,09	5,874
734,28	9,974
734,47	0,147
734,66	4,067
734,85	3,949
735,04	6,169
735,23	6,510
735,42	4,539
735,61	3,740
735,81	4,972
736,00	2,256
736,19	2,399
736,38	1,053
736,57	3,323
736,76	8,542
736,95	8,772
737,14	9,816
737,33	6,231
737,52	-3,495
737,71	5,488
737,90	3,195
738,09	4,483
738,28	0,649
738,47	5,627
738,66	8,983
738,85	6,772
739,04	3,543
739,22	5,317
739,41	3,665
739,60	-1,975
739,79	8,171
739,98	16,573
740,17	3,041
740,36	-3,030
740,55	10,018
740,74	2,230
740,93	5,059
741,12	11,938
741,31	-8,998
741,50	8,537
741,69	7,394
741,88	8,932
742,07	5,300
742,26	8,795
742,45	14,312
742,64	-0,204
742,83	6,374
743,02	2,209
743,21	0,903
743,40	17,050
743,59	18,271
743,78	1,055
743,97	10,626
744,16	9,052
744,34	5,785
744,53	10,776
744,72	5,945
744,91	6,160
745,10	7,586
745,29	6,103
745,48	-0,437
745,67	7,111
745,86	3,942
746,05	2,908
746,24	10,560
746,43	4,535
746,62	11,045
746,81	3,791
747,00	6,458
747,18	4,091
747,37	8,182
747,56	13,959
747,75	0,000
747,94	3,535
748,13	11,916
748,32	14,878
748,51	12,412
748,70	9,353
748,89	10,753
749,08	21,675
749,26	1,600
749,45	8,665
749,64	2,326
749,83	7,617
750,02	3,753
750,21	8,594
750,40	4,485
750,59	-1,330
750,78	7,229
750,96	17,207
751,15	13,405
751,34	13,514
751,53	0,278
751,72	6,434
751,91	7,349
752,10	8,732
752,29	-2,899
752,47	3,736
752,66	5,621
752,85	13,757
753,04	10,811
753,23	14,058
753,42	19,701
753,61	3,647
753,80	-8,709
753,98	17,813
754,17	5,099
754,36	-5,556
754,55	8,469
754,74	14,865
754,93	7,097
755,12	7,692
755,30	6,273
755,49	12,610
755,68	16,164
755,87	10,922
756,06	10,663
756,25	1,980
756,43	0,000
756,62	19,856
756,81	-3,529
757,00	19,780
757,19	8,282
757,38	8,143
757,56	8,446
757,75	-6,870
757,94	18,534
758,13	12,739
758,32	1,894
758,51	20,323
758,69	1,923
758,88	8,197
759,07	17,438
759,26	-5,102
759,45	-3,214
759,63	7,115
759,82	10,949
760,01	2,778
760,20	1,095
760,39	6,897
760,57	-9,871
760,76	-11,069
760,95	5,747
761,14	-1,538
761,33	12,109
761,51	12,963
761,70	25,862
761,89	29,457
762,08	11,207
762,27	1,923
762,45	-0,472
762,64	0,885
762,83	20,818
763,02	3,114
763,21	9,507
763,39	19,910
763,58	4,490
763,77	17,021
763,96	40,351
764,14	-2,075
764,33	31,579
764,52	8,929
764,71	4,926
764,89	24,324
765,08	26,966
765,27	2,475
765,46	-3,182
765,65	20,812
765,83	16,667
766,02	15,751
766,21	0,000
766,40	31,163
766,58	8,597
766,77	3,390
766,96	7,692
767,15	2,899
767,33	-3,846
767,52	1,896
767,71	-2,222
767,90	11,667
768,08	14,592
768,27	5,581
768,46	6,190
768,64	10,194
768,83	19,459
769,02	7,619
769,21	-1,042
769,39	-6,040
769,58	23,000
769,77	25,543
769,96	1,987
770,14	17,939
770,33	18,182
770,52	-7,692
770,70	15,347
770,89	31,633
771,08	22,917
771,27	5,670
771,45	27,168
771,64	23,684
771,83	23,118
772,01	-6,870
772,20	19,697
772,39	7,006
772,57	16,146
772,76	40,690
772,95	9,645
773,14	17,442
773,32	10,989
773,51	19,535
773,70	-0,662
773,88	37,186
774,07	35,983
774,26	29,268
774,44	29,146
774,63	14,557
774,82	39,157
775,00	15,284
775,19	22,414
775,38	13,333
775,56	11,585
775,75	16,766
775,94	39,552
776,12	9,167
776,31	20,958
776,50	14,545
776,68	28,395
776,87	18,182
777,06	11,644
777,24	-19,672
777,43	36,585
777,62	31,852
777,80	32,065
777,99	15,924
778,18	22,930
778,36	7,634
778,55	9,630
778,74	-5,303
778,92	41,629
779,11	23,226
779,29	20,261
779,48	10,744
779,67	13,669
779,85	16,800
780,04	15,493
780,23	-2,797
780,41	20,588
780,60	19,883
780,79	16,667
780,97	22,857
781,16	5,600
781,34	29,545
781,53	33,333
781,72	28,704
781,90	44,231
782,09	2,459
782,28	41,463
782,46	1,626
782,65	32,168
782,83	22,901
783,02	-8,000
783,21	43,411
783,39	16,026
783,58	48,000
783,76	37,838
783,95	-2,649
784,14	-4,211
784,32	13,761
784,51	-15,730
784,69	-13,376
784,88	34,839
785,06	36,170
785,25	19,549
785,44	29,054
785,62	5,000
785,81	33,582
785,99	-1,361
786,18	23,770
786,37	39,310
786,55	7,463
786,74	50,311
786,92	35,465
787,11	20,800
787,29	21,176
787,48	8,000
787,67	-3,061
787,85	-1,563
788,04	24,658
788,22	21,296
788,41	53,289
788,59	53,061
788,78	35,417
788,96	43,810
789,15	42,623
789,34	79,268
789,52	32,836
789,71	-3,175
789,89	2,632
790,08	10,784
790,26	34,127
790,45	38,686
790,63	28,289
790,82	-4,032
791,00	34,921
791,19	22,857
791,38	24,658
791,56	65,789
791,75	32,432
791,93	17,647
792,12	12,879
792,30	18,421
792,49	8,411
792,67	12,143
792,86	18,919
793,04	11,111
793,23	42,763
793,41	23,226
793,60	36,709
793,78	58,389
793,97	61,207
794,15	16,340
794,34	3,061
794,52	28,682
794,71	24,691
794,89	24,286
795,08	43,590
795,26	1,000
795,45	28,723
795,63	16,352
795,82	33,613
796,00	1,538
796,19	58,442
796,37	19,492
796,56	-18,519
796,74	25,781
796,93	31,092
797,11	7,500
797,30	47,328
797,48	41,259
797,67	41,129
797,85	18,841
798,04	49,550
798,22	32,374
798,41	50,847
798,59	11,429
798,77	17,094
798,96	3,226
799,14	22,222
799,33	47,788
799,51	23,762
799,70	46,154
799,88	24,771
800,07	46,043
800,25	28,244
800,44	22,772
800,62	39,568
800,80	1,136
800,99	43,590
801,17	31,724
801,36	19,792
801,54	24,806
801,73	34,848
801,91	8,989
802,10	28,235
802,28	11,811
802,46	25,806
802,65	36,424
802,83	2,479
803,02	47,449
803,20	73,729
803,39	-1,835
803,57	23,239
803,75	35,000
803,94	41,216
804,12	19,876
804,31	17,308
804,49	23,226
804,67	34,234
804,86	42,236
805,04	31,783
805,23	27,737
805,41	20,588
805,59	18,675
805,78	48,571
805,96	13,855
806,15	53,600
806,33	-13,139
806,51	35,256
806,70	0,000
806,88	40,909
807,07	0,820
807,25	10,435
807,43	-6,667
807,62	36,719
807,80	17,683
807,99	27,338
808,17	30,556
808,35	-8,491
808,54	25,698
808,72	22,436
808,90	26,829
809,09	-1,460
809,27	24,272
809,46	37,383
809,64	45,665
809,82	31,724
810,01	26,882
810,19	24,545
810,37	28,409
810,56	5,960
810,74	40,881
810,92	14,085
811,11	18,405
811,29	12,422
811,48	20,000
811,66	26,396
811,84	9,322
812,03	-2,703
812,21	30,909
812,39	13,710
812,58	27,485
812,76	27,737
812,94	2,685
813,13	2,439
813,31	41,270
813,49	13,333
813,68	14,754
813,86	7,051
814,04	22,523
814,23	-6,154
814,41	-10,274
814,59	-0,654
814,78	6,040
814,96	30,168
815,14	8,543
815,33	24,793
815,51	-6,299
815,69	19,084
815,87	0,000
816,06	46,269
816,24	18,301
816,42	23,214
816,61	19,136
816,79	21,965
816,97	23,718
817,16	-18,452
817,34	7,059
817,52	39,720
817,70	16,062
817,89	3,349
818,07	30,000
818,25	16,456
818,44	16,043
818,62	15,842
818,80	17,582
818,98	8,718
819,17	10,169
819,35	3,356
819,53	31,795
819,72	34,595
819,90	21,333
820,08	23,267
820,26	6,849
820,45	-4,839
820,63	8,187
820,81	20,642
820,99	20,524
821,18	2,410
821,36	13,750
821,54	7,463
821,73	15,301
821,91	4,930
822,09	14,201
822,27	34,630
822,46	26,601
822,64	-15,789
822,82	5,076
823,00	6,806
823,19	15,238
823,37	34,188
823,55	18,987
823,73	24,157
823,91	-0,535
824,10	16,146
824,28	13,636
824,46	-12,500
824,64	25,830
824,83	13,270
825,01	27,647
825,19	16,594
825,37	19,608
825,56	25,954
825,74	23,810
825,92	15,564
826,10	16,300
826,28	7,749
826,47	34,241
826,65	17,626
826,83	25,439
827,01	15,748
827,19	29,457
827,38	19,850
827,56	4,000
827,74	6,635
827,92	3,415
828,10	6,250
828,29	-0,369
828,47	22,628
828,65	20,703
828,83	5,063
829,01	4,955
829,20	14,615
829,38	-0,820
829,56	13,131
829,74	12,308
829,92	4,049
830,10	15,451
830,29	17,625
830,47	6,716
830,65	-0,837
830,83	15,986
831,01	13,004
831,20	7,299
831,38	16,612
831,56	15,789
831,74	26,441
831,92	12,088
832,10	15,190
832,29	20,141
832,47	8,511
832,65	18,689
832,83	10,127
833,01	13,595
833,19	14,773
833,37	20,061
833,56	14,286
833,74	8,852
833,92	3,041
834,10	20,482
834,28	8,014
834,46	3,757
834,64	20,533
834,83	0,850
835,01	16,188
835,19	-4,610
835,37	14,689
835,55	13,314
835,73	12,147
835,91	8,260
836,09	17,105
836,28	3,049
836,46	7,375
836,64	13,123
836,82	22,802
837,00	4,473
837,18	2,333
837,36	10,264
837,54	7,923
837,72	-0,506
837,91	0,850
838,09	17,273
838,27	5,959
838,45	21,644
838,63	13,521
838,81	13,374
838,99	9,284
839,17	3,727
839,35	16,027
839,53	8,163
839,72	15,934
839,90	7,778
840,08	12,235
840,26	1,575
840,44	9,669
840,62	-6,199
840,80	16,044
840,98	7,383
841,16	0,272
841,34	8,061
841,52	6,739
841,70	2,233
841,89	12,073
842,07	9,885
842,25	18,868
842,43	1,703
842,61	10,875
842,79	-0,907
842,97	1,144
843,15	8,559
843,33	10,494
843,51	8,261
843,69	5,469
843,87	16,734
844,05	10,151
844,23	3,742
844,41	15,905
844,59	9,544
844,77	12,165
844,95	8,874
845,13	7,368
845,31	-0,589
845,50	10,559
845,68	5,567
845,86	5,488
846,04	3,339
846,22	11,228
846,40	7,851
846,58	7,570
846,76	16,633
846,94	3,579
847,12	9,038
847,30	8,255
847,48	7,286
847,66	2,881
847,84	17,845
848,02	6,434
848,20	10,546
848,38	2,679
848,56	15,440
848,74	6,740
848,92	13,918
849,10	11,092
849,28	9,764
849,46	2,588
849,64	14,884
849,82	19,808
850,00	16,863
850,18	4,754
850,36	8,775
850,54	19,329
850,72	12,928
850,90	16,019
851,08	14,488
851,26	13,754
851,44	15,186
851,62	23,077
851,80	8,886
851,98	17,496
852,16	16,442
852,34	15,211
852,52	16,272
852,70	14,949
852,87	11,354
853,05	22,350
853,23	15,192
853,41	20,563
853,59	17,172
853,77	21,657
853,95	16,962
854,13	15,767
854,31	16,038
854,49	17,300
854,67	19,409
854,85	17,925
855,03	16,076
855,21	20,238
855,39	20,156
855,57	22,829
855,75	15,936
855,93	15,871
856,11	15,694
856,28	21,039
856,46	20,526
856,64	15,714
856,82	19,557
857,00	18,655
857,18	15,364
857,36	21,891
857,54	27,040
857,72	18,868
857,90	19,407
858,08	16,797
858,26	20,809
858,44	18,877
858,61	20,678
858,79	18,117
858,97	24,277
859,15	24,074
859,33	14,269
859,51	18,150
859,69	24,432
859,87	18,863
860,05	16,728
860,23	19,236
860,40	22,623
860,58	16,759
860,76	13,587
860,94	14,744
861,12	17,580
861,30	17,850
861,48	15,512
861,66	15,344
861,84	18,506
862,01	21,421
862,19	19,106
862,37	15,493
862,55	10,931
862,73	14,773
862,91	18,744
863,09	15,606
863,27	14,757
863,44	17,623
863,62	18,609
863,80	20,390
863,98	17,311
864,16	20,152
864,34	21,058
864,52	26,020
864,69	25,000
864,87	19,592
865,05	19,891
865,23	19,394
865,41	15,476
865,59	23,104
865,76	25,913
865,94	24,309
866,12	20,957
866,30	27,441
866,48	30,558
866,66	27,913
866,83	29,306
867,01	29,656
867,19	24,485
867,37	30,000
867,55	27,976
867,73	25,560
867,90	29,024
868,08	31,135
868,26	28,708
868,44	24,164
868,62	28,254
868,79	26,884
868,97	24,961
869,15	26,448
869,33	22,417
869,51	25,786
869,69	23,691
869,86	19,430
870,04	24,208
870,22	24,041
870,40	23,652
870,57	21,111
870,75	22,907
870,93	21,423
871,11	19,954
871,29	15,086
871,46	17,231
871,64	17,309
871,82	21,644
872,00	21,386
872,18	15,704
872,35	18,630
872,53	15,479
872,71	13,939
872,89	13,676
873,06	17,609
873,24	18,622
873,42	18,419
873,60	15,715
873,77	17,741
873,95	17,676
874,13	18,691
874,31	18,738
874,49	16,446
874,66	18,447
874,84	16,546
875,02	16,602
875,20	16,573
875,37	16,688
875,55	13,004
875,73	15,573
875,91	16,315
876,08	15,211
876,26	19,124
876,44	13,369
876,61	13,038
876,79	12,329
876,97	11,241
877,15	15,075
877,32	12,917
877,50	14,817
877,68	17,261
877,86	12,775
878,03	10,818
878,21	11,473
878,39	13,808
878,56	12,584
878,74	14,372
878,92	11,834
879,10	14,293
879,27	12,690
879,45	11,193
879,63	12,140
879,80	11,529
879,98	10,345
880,16	12,101
880,34	10,414
880,51	14,019
880,69	10,627
880,87	10,587
881,04	13,208
881,22	12,392
881,40	12,446
881,57	10,677
881,75	12,126
881,93	10,838
882,10	13,176
882,28	10,898
882,46	12,976
882,63	13,479
882,81	12,553
882,99	10,127
883,16	13,812
883,34	12,084
883,52	10,846
883,69	12,606
883,87	13,302
884,05	13,576
884,22	13,688
884,40	14,100
884,58	11,078
884,75	11,826
884,93	14,034
885,11	16,269
885,28	14,225
885,46	12,281
885,64	14,320
885,81	12,725
885,99	13,458
886,17	14,515
886,34	13,381
886,52	14,447
886,70	14,381
886,87	14,707
887,05	13,752
887,22	13,260
887,40	16,316
887,58	14,963
887,75	14,906
887,93	16,269
888,11	14,637
888,28	15,531
888,46	14,286
888,63	14,529
888,81	16,034
888,99	16,335
889,16	13,450
889,34	15,613
889,51	16,540
889,69	17,519
889,87	15,595
890,04	16,545
890,22	15,772
890,39	16,012
890,57	18,459
890,75	17,231
890,92	18,468
891,10	18,048
891,27	18,463
891,45	18,632
891,63	19,418
891,80	19,029
891,98	16,295
892,15	18,152
892,33	17,749
892,51	18,078
892,68	19,544
892,86	19,709
893,03	19,101
893,21	20,145
893,38	20,226
893,56	19,919
893,74	21,693
893,91	20,252
894,09	21,353
894,26	20,672
894,44	22,155
894,61	21,059
894,79	21,637
894,96	22,552
895,14	22,755
895,32	23,424
895,49	24,918
895,67	22,698
895,84	25,563
896,02	24,160
896,19	23,925
896,37	24,334
896,54	25,180
896,72	26,851
896,89	26,357
897,07	26,669
897,25	27,876
897,42	28,422
897,60	28,397
897,77	28,428
897,95	28,969
898,12	28,434
898,30	30,320
898,47	30,014
898,65	31,069
898,82	30,487
899,00	32,845
899,17	33,059
899,35	33,139
899,52	34,589
899,70	35,842
899,87	34,426
900,05	35,048
900,22	37,087
900,40	35,043
900,57	37,228
900,75	37,179
900,92	37,625
901,10	36,738
901,27	38,284
901,45	39,384
901,62	39,813
901,80	40,629
901,97	42,589
902,15	41,675
902,32	39,902
902,50	40,944
902,67	42,309
902,85	43,486
903,02	43,165
903,20	42,172
903,37	44,272
903,54	42,108
903,72	42,854
903,89	43,428
904,07	43,806
904,24	46,202
904,42	43,086
904,59	44,574
904,77	45,995
904,94	45,899
905,12	46,584
905,29	44,610
905,47	46,036
905,64	43,174
905,81	44,539
905,99	45,186
906,16	44,892
906,34	44,636
906,51	45,200
906,69	43,629
906,86	44,575
907,03	44,343
907,21	42,976
907,38	43,754
907,56	40,957
907,73	42,152
907,91	43,795
908,08	41,419
908,25	41,688
908,43	42,639
908,60	43,810
908,78	42,739
908,95	43,104
909,13	42,292
909,30	41,866
909,47	41,268
909,65	43,418
909,82	43,263
910,00	40,392
910,17	40,944
910,34	42,385
910,52	41,461
910,69	42,692
910,87	43,433
911,04	42,309
911,21	45,019
911,39	43,719
911,56	43,550
911,73	44,606
911,91	44,828
912,08	43,734
912,26	45,114
912,43	46,662
912,60	45,833
912,78	46,438
912,95	45,839
913,13	47,309
913,30	46,002
913,47	48,497
913,65	47,148
913,82	48,138
913,99	47,436
914,17	50,867
914,34	47,614
914,51	49,939
914,69	49,970
914,86	50,713
915,03	49,550
915,21	48,351
915,38	48,509
915,56	49,675
915,73	49,507
915,90	49,297
916,08	49,228
916,25	50,431
916,42	50,715
916,60	50,245
916,77	50,039
916,94	50,693
917,12	51,208
917,29	50,078
917,46	49,356
917,64	47,522
917,81	47,858
917,98	47,907
918,16	48,277
918,33	49,403
918,50	47,130
918,67	47,168
918,85	46,785
919,02	47,962
919,19	46,917
919,37	47,219
919,54	47,603
919,71	47,576
919,89	47,668
920,06	46,294
920,23	48,898
920,41	47,555
920,58	46,646
920,75	46,577
920,92	47,165
921,10	46,159
921,27	47,865
921,44	46,999
921,62	47,098
921,79	47,148
921,96	47,853
922,13	46,538
922,31	47,504
922,48	46,928
922,65	47,449
922,82	46,898
923,00	47,982
923,17	47,642
923,34	48,509
923,52	45,958
923,69	47,337
923,86	47,960
924,03	47,001
924,21	48,224
924,38	47,242
924,55	47,180
924,72	47,684
924,90	46,835
925,07	46,420
925,24	46,936
925,41	47,117
925,59	47,353
925,76	46,039
925,93	47,146
926,10	46,282
926,28	46,969
926,45	45,766
926,62	46,040
926,79	45,311
926,96	45,398
927,14	45,278
927,31	44,782
927,48	44,268
927,65	45,567
927,83	44,507
928,00	43,767
928,17	41,838
928,34	44,041
928,51	42,784
928,69	42,963
928,86	43,369
929,03	42,353
929,20	42,468
929,37	42,096
929,55	41,947
929,72	41,656
929,89	42,139
930,06	40,825
930,23	40,985
930,41	40,106
930,58	39,544
930,75	38,943
930,92	39,895
931,09	39,481
931,27	39,392
931,44	39,562
931,61	39,222
931,78	40,129
931,95	39,107
932,12	39,205
932,30	38,891
932,47	39,240
932,64	38,327
932,81	38,785
932,98	38,057
933,16	38,555
933,33	37,886
933,50	37,697
933,67	37,821
933,84	37,981
934,01	38,511
934,18	38,185
934,36	38,407
934,53	38,925
934,70	37,938
934,87	38,842
935,04	38,375
935,21	38,576
935,38	39,178
935,56	38,438
935,73	39,659
935,90	39,218
936,07	38,741
936,24	38,886
936,41	38,942
936,58	38,072
936,76	38,974
936,93	37,805
937,10	37,188
937,27	38,215
937,44	38,600
937,61	38,185
937,78	37,074
937,95	37,000
938,13	37,376
938,30	36,883
938,47	37,062
938,64	37,112
938,81	35,802
938,98	36,546
939,15	35,724
939,32	35,327
939,49	34,326
939,66	33,648
939,84	33,792
940,01	33,688
940,18	34,359
940,35	33,533
940,52	33,364
940,69	33,364
940,86	32,622
941,03	34,047
941,20	32,156
941,37	31,840
941,54	32,112
941,71	30,799
941,89	29,950
942,06	30,317
942,23	30,207
942,40	29,668
942,57	29,140
942,74	28,660
942,91	29,250
943,08	29,832
943,25	29,523
943,42	26,975
943,59	27,406
943,76	27,365
943,93	26,362
944,10	28,812
944,27	28,032
944,44	28,533
944,61	27,048
944,79	27,315
944,96	27,515
945,13	27,610
945,30	26,402
945,47	27,303
945,64	27,634
945,81	27,310
945,98	27,873
946,15	27,362
946,32	27,457
946,49	28,301
946,66	26,222
946,83	28,062
947,00	28,183
947,17	27,697
947,34	27,880
947,51	27,208
947,68	29,067
947,85	29,957
948,02	30,277
948,19	29,784
948,36	32,075
948,53	28,828
948,70	30,102
948,87	30,581
949,04	31,541
949,21	31,682
949,38	31,108
949,55	30,931
949,72	32,693
949,89	30,550
950,06	34,545
950,23	33,682
950,40	31,205
950,57	32,756
950,74	34,063
950,91	35,188
951,08	36,473
951,25	37,206
951,42	35,919
951,59	36,594
951,76	38,608
951,93	38,780
952,10	37,490
952,27	37,231
952,44	39,677
952,61	38,665
952,77	38,471
952,94	40,037
953,11	39,685
953,28	41,952
953,45	42,928
953,62	43,471
953,79	43,622
953,96	43,416
954,13	42,423
954,30	42,811
954,47	45,144
954,64	44,650
954,81	45,455
954,98	45,322
955,15	44,563
955,32	47,514
955,49	49,331
955,65	49,893
955,82	47,923
955,99	47,375
956,16	48,438
956,33	47,710
956,50	48,148
956,67	49,653
956,84	48,064
957,01	46,158
957,18	53,764
957,35	50,789
957,52	49,127
957,68	51,630
957,85	49,065
958,02	51,371
958,19	49,728
958,36	50,379
958,53	52,444
958,70	49,257
958,87	52,467
959,04	56,505
959,21	52,852
959,37	53,060
959,54	49,562
959,71	50,543
959,88	52,700
960,05	50,973
960,22	54,455
960,39	55,616
960,56	51,810
960,72	54,163
960,89	54,230
961,06	58,150
961,23	52,314
961,40	53,011
961,57	44,894
961,74	51,263
961,90	55,996
962,07	51,093
962,24	56,813
962,41	50,831
962,58	57,748
962,75	52,189
962,92	49,659
963,08	43,035
963,25	51,185
963,42	49,020
963,59	48,613
963,76	47,686
963,93	51,472
964,10	47,680
964,26	50,067
964,43	56,421
964,60	52,959
964,77	46,708
964,94	48,923
965,10	54,739
965,27	49,831
965,44	53,333
965,61	52,124
965,78	58,348
965,95	51,801
966,11	52,401
966,28	55,824
966,45	51,619
966,62	50,427
966,79	52,033
966,95	49,353
967,12	58,373
967,29	54,439
967,46	45,870
967,63	50,123
967,79	48,641
967,96	40,157
968,13	70,219
968,30	42,623
968,47	56,464
968,63	51,183
968,80	56,207
968,97	53,143
969,14	47,788
969,31	53,846
969,47	52,997
969,64	64,026
969,81	45,263
969,98	52,632
970,14	36,296
970,31	56,272
970,48	57,651
970,65	59,155
970,81	36,735
970,98	66,292
971,15	68,664
971,32	39,407
971,48	34,926
971,65	38,235
971,82	30,102
971,99	61,194
972,15	45,789
972,32	39,918
972,49	58,369
972,66	23,894
972,82	42,079
972,99	41,277
973,16	35,567
973,33	48,571
973,49	77,222
973,66	78,151
973,83	53,741
974,00	60,656
974,16	67,925
974,33	56,707
974,50	61,806
974,67	53,684
974,83	45,763
975,00	46,377
975,17	70,748
975,33	42,754
975,50	50,303
975,67	80,357
975,84	82,979
976,00	33,077
976,17	36,765
976,34	32,624
976,50	62,609
976,67	83,621
976,84	75,641
977,00	33,083
977,17	60,630
977,34	76,344
977,50	51,064
977,67	57,018
977,84	21,818
978,01	48,276
978,17	82,051
978,34	53,125
978,51	12,121
978,67	46,154
978,84	57,292
979,01	67,692
979,17	68,182
979,34	137,500
979,51	42,308
979,67	60,000
979,84	101,190
980,01	91,803
980,17	8,235
980,34	75,362
980,51	50,000
980,67	44,000
980,84	36,207
981,01	-41,026
981,17	92,000
981,34	112,500
981,50	101,471
981,67	151,724
981,84	89,655
982,00	106,522
982,17	190,909
982,34	71,795
982,50	321,053
982,67	79,630
982,84	61,905
983,00	120,000
983,17	-16,667
983,33	109,677
983,50	17,391
983,67	95,652
983,83	983,333
984,00	156,250
984,17	-185,000
984,33	90,541
984,50	58,333
984,66	103,571
984,83	97,674
985,00	204,918
985,16	12,821
985,33	212,500
985,49	186,207
985,66	121,212
985,83	100,000
985,99	54,955
986,16	252,000
986,32	152,174
986,49	258,333
986,66	97,674
986,82	63,158
986,99	54,762
987,15	65,517
987,32	144,444
987,49	0,000
987,65	90,000
987,82	-52,941
987,98	76,471
988,15	60,714
988,31	34,000
988,48	-125,000
988,65	174,074
988,81	108,696
988,98	266,667
989,14	97,959
989,31	150,000
989,47	51,220
989,64	55,714
989,80	80,000
989,97	135,294
990,14	-21,739
990,30	107,500
990,47	129,268
990,63	221,739
990,80	93,939
990,96	112,500
991,13	113,889
991,29	129,412
991,46	74,510
991,62	129,412
991,79	142,105
991,95	135,000
992,12	130,233
992,29	192,000
992,45	-46,154
992,62	-440,000
992,78	-100,000
992,95	177,778
993,11	183,333
993,28	19,753
993,44	317,391
993,61	-100,000
993,77	820,000
993,94	169,767
994,10	233,333
994,27	216,000
994,43	273,529
994,60	51,515
994,76	100,000
994,93	318,182
995,09	-67,568
995,26	30,864
995,42	66,102
995,59	321,429
995,75	203,125
995,92	336,364
996,08	183,333
996,25	455,556
996,41	214,583
996,58	127,027
996,74	30,000
996,91	183,333
997,07	234,615
997,23	148,936
997,40	300,000
997,56	133,333
997,73	0,000
997,89	18,519
998,06	-13,725
998,22	-800,000
998,39	400,000
998,55	-79,167
998,72	210,000
998,88	1633,333
999,05	-15,385
999,21	17,391
999,37	-3900,000
999,54	-2300,000
999,70	400,000
999,87	-62,500
1000,03	106,250
1000,20	-233,333
1000,36	-200,000
1000,52	250,000
1000,69	36,364
1000,85	117,241
1001,02	110,769
1001,18	102,273
1001,35	-68,889
1001,51	-300,000
1001,67	-25,333
1001,84	1333,333
1002,00	102,500
1002,17	18,182
1002,33	-17,647
1002,50	111,111
1002,66	1900,000
1002,82	208,571
1002,99	-153,846
1003,15	143,478
1003,32	74,194
1003,48	-820,000
1003,64	17,500
1003,81	-117,857
1003,97	300,000
1004,14	133,333
1004,30	-671,429
1004,46	875,000
1004,63	73,684
1004,79	-113,333
1004,95	32,353
1005,12	-242,857
1005,28	162,069
1005,45	50,000
1005,61	-1133,333
1005,77	92,105
1005,94	93,548
1006,10	-4900,000
1006,26	73,214
1006,43	488,889
1006,59	74,074
1006,76	-24,000
1006,92	660,000
1007,08	490,000
1007,25	11,111
1007,41	-166,667
1007,57	-100,000
1007,74	8,696
1007,90	-320,000
1008,06	191,429
1008,23	87,037
1008,39	1650,000
1008,55	-185,714
1008,72	262,500
1008,88	92,000
1009,04	200,000
1009,21	-52,941
1009,37	-412,500
1009,53	-73,684
1009,70	-338,462
1009,86	84,091
1010,02	284,615
1010,19	0,000
1010,35	12,500
1010,51	244,444
1010,68	400,000
1010,84	-1900,000
1011,00	40,000
1011,17	80,000
1011,33	200,000
1011,49	115,625
1011,66	356,522
1011,82	-75,472
1011,98	-22,727
1012,14	36,364
1012,31	-760,000
1012,47	633,333
1012,63	388,889
1012,80	184,000
1012,96	263,636
1013,12	46,512
1013,29	68,421
1013,45	42,222
1013,61	-188,889
1013,77	5,556
1013,94	68,750
1014,10	6,061
1014,26	2850,000
1014,43	-90,909
1014,59	-487,500
1014,75	-150,000
1014,91	-66,667
1015,08	66,667
1015,24	-866,667
1015,40	-276,471
1015,56	466,667
1015,73	213,333
1015,89	123,810
1016,05	1440,000
1016,21	-122,222
1016,38	520,000
1016,54	-292,308
1016,70	70,370
1016,86	6,061
1017,03	66,667
1017,19	126,087
1017,35	84,615
1017,51	237,143
1017,68	390,909
1017,84	3100,000
1018,00	500,000
1018,16	62,500
1018,33	-528,571
1018,49	97,561
1018,65	-38,235
1018,81	-0,000
1018,97	-425,000
1019,14	213,333
1019,30	21,875
1019,46	222,222
1019,62	300,000
1019,79	275,000
1019,95	37,500
1020,11	-371,429
1020,27	508,333
1020,43	-585,714
1020,60	-278,947
1020,76	5,556
1020,92	621,429
1021,08	3200,000
1021,24	285,000
1021,41	-67,647
1021,57	245,455
1021,73	-775,000
1021,89	-271,429
1022,05	175,000
1022,21	174,359
1022,38	70,000
1022,54	300,000
1022,70	-177,273
1022,86	1750,000
1023,02	-70,588
1023,19	-111,111
1023,35	203,226
1023,51	82,143
1023,67	95,833
1023,83	1433,333
1023,99	50,000
1024,16	135,714
1024,32	84,000
1024,48	145,455
1024,64	344,444
1024,80	-183,333
1024,96	48,276
1025,12	-78,571
1025,29	185,714
1025,45	150,000
1025,61	-366,667
1025,77	-29,032
1025,93	-180,000
1026,09	134,146
1026,26	236,842
1026,42	-43,750
1026,58	-169,565
1026,74	283,333
1026,90	194,444
1027,06	-84,615
1027,22	-169,565
1027,38	100,000
1027,55	1166,667
1027,71	183,333
1027,87	-175,000
1028,03	50,000
1028,19	-76,471
1028,35	-100,000
1028,51	280,000
1028,67	100,000
1028,83	82,222
1029,00	387,500
1029,16	108,108
1029,32	185,714
1029,48	228,571
1029,64	-138,462
1029,80	222,727
1029,96	0,000
1030,12	263,158
1030,28	-500,000
1030,44	1700,000
1030,61	309,091
1030,77	-1083,333
1030,93	-12,500
1031,09	1175,000
1031,25	0,000
1031,41	550,000
1031,57	-1000,000
1031,73	-1475,000
1031,89	-100,000
1032,05	-58,140
1032,21	81,818
1032,37	78,571
1032,53	34,483
1032,69	188,462
1032,86	-483,333
1033,02	33,333
1033,18	416,667
1033,34	-450,000
1033,50	181,250
1033,66	4,000
1033,82	300,000
1033,98	1100,000
1034,14	-142,857
1034,30	-240,000
1034,46	173,529
1034,62	182,051
1034,78	-147,826
1034,94	93,548
1035,10	-176,923
1035,26	822,222
1035,42	-133,333
1035,58	358,333
1035,74	125,676
1035,90	200,000
1036,06	64,706
1036,22	112,121
1036,38	-106,250
1036,54	-43,750
1036,70	38,710
1036,86	-105,000
1037,02	7,143
1037,18	-0,000
1037,34	-77,778
1037,50	-0,000
1037,66	-1100,000
1037,82	338,095
1037,98	875,000
1038,14	-275,000
1038,30	158,621
1038,46	-71,429
1038,62	266,667
1038,78	-385,714
1038,94	70,000
1039,10	100,000
1039,26	-170,833
1039,42	204,348
1039,58	-1050,000
1039,74	550,000
1039,90	-33,333
1040,06	-49,231
>>>>>End Processed Spectral Data<<<<<
