SpectraSuite Data File
++++++++++++++++++++++++++++++++++++
Date: Tue Jan 31 18:52:59 EET 2017
User: optolab
Dark Spectrum Present: Yes
Reference Spectrum Present: Yes
Number of Sampled Component Spectra: 1
Spectrometers: USB4C02475
Integration Time (usec): 100000 (USB4C02475)
Spectra Averaged: 1 (USB4C02475)
Boxcar Smoothing: 0 (USB4C02475)
Correct for Electrical Dark: No (USB4C02475)
Strobe/Lamp Enabled: No (USB4C02475)
Correct for Detector Non-linearity: No (USB4C02475)
Correct for Stray Light: No (USB4C02475)
Number of Pixels in Processed Spectrum: 3648
>>>>>Begin Processed Spectral Data<<<<<
344,91	53,846
345,13	53,846
345,35	53,846
345,57	0,000
345,79	-183,333
346,00	380,000
346,22	-97,222
346,44	192,308
346,66	875,000
346,87	133,333
347,09	-22,222
347,31	-1733,333
347,53	166,667
347,74	-215,385
347,96	228,571
348,18	1633,333
348,40	-42,857
348,61	25,714
348,83	131,707
349,05	123,214
349,27	342,105
349,48	98,077
349,70	382,353
349,92	158,537
350,14	144,444
350,35	163,415
350,57	122,857
350,79	341,176
351,01	238,462
351,22	650,000
351,44	-133,333
351,66	407,692
351,87	111,538
352,09	151,515
352,31	375,000
352,53	115,556
352,74	104,762
352,96	111,628
353,18	103,704
353,40	8,696
353,61	106,667
353,83	400,000
354,05	72,727
354,26	228,571
354,48	-750,000
354,70	39,024
354,92	160,606
355,13	88,235
355,35	0,000
355,57	125,000
355,78	23,529
356,00	91,176
356,22	255,556
356,44	246,154
356,65	130,303
356,87	150,000
357,09	250,000
357,30	103,175
357,52	173,214
357,74	-2500,000
357,95	580,000
358,17	416,667
358,39	161,765
358,60	370,000
358,82	117,647
359,04	-6,250
359,26	93,750
359,47	121,739
359,69	97,297
359,91	180,769
360,12	253,846
360,34	110,680
360,56	258,621
360,77	785,714
360,99	71,154
361,21	220,833
361,42	143,750
361,64	-76,923
361,86	112,500
362,07	-36,538
362,29	17,647
362,51	238,462
362,72	56,757
362,94	204,762
363,16	400,000
363,37	45,161
363,59	162,069
363,81	-177,778
364,02	36,471
364,24	169,565
364,46	164,865
364,67	108,889
364,89	190,000
365,11	1500,000
365,32	114,458
365,54	557,143
365,76	58,621
365,97	-7,143
366,19	575,000
366,41	92,308
366,62	168,421
366,84	128,947
367,05	95,385
367,27	277,778
367,49	256,098
367,70	687,500
367,92	72,581
368,14	1950,000
368,35	104,225
368,57	169,231
368,79	61,765
369,00	0,000
369,22	400,000
369,43	286,364
369,65	65,672
369,87	61,972
370,08	357,143
370,30	111,765
370,51	57,407
370,73	134,615
370,95	161,905
371,16	616,667
371,38	152,273
371,60	84,615
371,81	200,000
372,03	263,158
372,24	600,000
372,46	70,732
372,68	93,750
372,89	131,429
373,11	42,857
373,32	226,667
373,54	164,000
373,76	82,979
373,97	81,720
374,19	198,649
374,40	144,444
374,62	133,333
374,84	360,000
375,05	110,811
375,27	132,075
375,48	109,302
375,70	61,364
375,92	245,833
376,13	60,000
376,35	2633,333
376,56	116,000
376,78	68,750
376,99	76,623
377,21	-3800,000
377,43	89,583
377,64	118,421
377,86	154,348
378,07	113,333
378,29	-183,871
378,51	243,590
378,72	33,333
378,94	107,353
379,15	285,714
379,37	116,071
379,58	114,286
379,80	161,538
380,01	450,000
380,23	284,211
380,45	125,000
380,66	211,111
380,88	-1700,000
381,09	74,286
381,31	110,145
381,52	94,444
381,74	107,463
381,95	173,171
382,17	123,333
382,39	300,000
382,60	338,462
382,82	51,429
383,03	169,231
383,25	38,462
383,46	104,878
383,68	69,643
383,89	270,000
384,11	63,636
384,32	-400,000
384,54	191,111
384,76	3600,000
384,97	93,827
385,19	60,417
385,40	83,333
385,62	200,000
385,83	151,351
386,05	44,186
386,26	137,838
386,48	128,000
386,69	126,415
386,91	211,765
387,12	225,000
387,34	131,373
387,55	2,273
387,77	52,381
387,98	-1200,000
388,20	119,355
388,41	146,154
388,63	181,395
388,84	96,923
389,06	107,692
389,27	89,286
389,49	156,250
389,70	26,190
389,92	64,062
390,13	-165,217
390,35	116,000
390,56	90,909
390,78	125,806
390,99	766,667
391,21	91,071
391,42	140,984
391,64	133,333
391,85	103,333
392,07	106,000
392,28	102,500
392,50	59,649
392,71	96,296
392,93	78,378
393,14	-73,684
393,36	343,750
393,57	119,608
393,79	103,030
394,00	67,273
394,22	54,545
394,43	240,000
394,65	750,000
394,86	133,333
395,08	132,877
395,29	55,814
395,50	293,750
395,72	44,444
395,93	108,333
396,15	47,887
396,36	47,170
396,58	181,481
396,79	12,727
397,01	97,590
397,22	350,000
397,44	-1440,000
397,65	61,842
397,87	46,154
398,08	48,000
398,29	156,250
398,51	262,500
398,72	71,000
398,94	89,189
399,15	53,061
399,37	83,333
399,58	180,645
399,80	84,375
400,01	36,232
400,22	59,184
400,44	460,000
400,65	246,667
400,87	93,443
401,08	77,632
401,30	69,000
401,51	122,727
401,72	139,535
401,94	124,194
402,15	32,203
402,37	87,879
402,58	151,111
402,80	66,071
403,01	67,021
403,22	70,000
403,44	87,500
403,65	100,000
403,87	71,795
404,08	89,231
404,30	-10,345
404,51	107,143
404,72	84,146
404,94	117,143
405,15	104,348
405,37	81,944
405,58	65,909
405,79	86,076
406,01	75,701
406,22	17,073
406,44	37,755
406,65	91,781
406,86	42,424
407,08	105,556
407,29	39,326
407,51	32,653
407,72	50,000
407,93	69,799
408,15	64,865
408,36	62,037
408,58	39,024
408,79	49,462
409,00	65,909
409,22	57,143
409,43	68,539
409,64	22,807
409,86	41,135
410,07	45,370
410,29	38,202
410,50	29,452
410,71	63,953
410,93	45,882
411,14	43,750
411,35	43,966
411,57	31,068
411,78	38,389
412,00	57,062
412,21	6,358
412,42	39,216
412,64	30,556
412,85	32,124
413,06	38,049
413,28	32,571
413,49	20,455
413,70	52,347
413,92	28,464
414,13	14,672
414,34	0,000
414,56	22,581
414,77	21,212
414,98	29,851
415,20	10,283
415,41	11,599
415,63	8,232
415,84	19,018
416,05	15,777
416,27	11,353
416,48	4,000
416,69	2,899
416,91	26,016
417,12	14,416
417,33	13,302
417,55	7,489
417,76	3,441
417,97	12,525
418,19	11,847
418,40	12,160
418,61	10,292
418,83	5,735
419,04	11,545
419,25	13,072
419,46	14,623
419,68	5,563
419,89	12,018
420,10	3,015
420,32	5,830
420,53	7,026
420,74	8,255
420,96	8,133
421,17	7,184
421,38	8,782
421,60	5,864
421,81	3,548
422,02	3,838
422,23	4,995
422,45	6,736
422,66	5,169
422,87	5,650
423,09	7,165
423,30	3,740
423,51	2,030
423,73	2,890
423,94	6,936
424,15	2,367
424,36	4,395
424,58	2,330
424,79	1,522
425,00	6,418
425,22	5,763
425,43	4,275
425,64	4,022
425,85	3,507
426,07	1,632
426,28	5,431
426,49	4,291
426,71	2,605
426,92	4,397
427,13	2,541
427,34	4,283
427,56	2,773
427,77	3,307
427,98	1,996
428,19	1,461
428,41	4,067
428,62	2,506
428,83	2,197
429,04	3,434
429,26	3,258
429,47	3,813
429,68	2,267
429,89	2,128
430,11	3,218
430,32	2,221
430,53	1,409
430,74	1,672
430,96	2,188
431,17	2,056
431,38	1,208
431,59	2,936
431,81	1,901
432,02	2,131
432,23	1,873
432,44	2,618
432,66	3,822
432,87	2,253
433,08	2,504
433,29	2,790
433,51	3,458
433,72	4,113
433,93	4,969
434,14	5,978
434,35	8,304
434,57	8,415
434,78	11,009
434,99	13,837
435,20	14,794
435,42	17,479
435,63	19,580
435,84	22,369
436,05	24,090
436,26	26,859
436,48	30,025
436,69	31,175
436,90	34,053
437,11	35,254
437,32	37,115
437,54	38,478
437,75	41,245
437,96	40,924
438,17	43,694
438,38	43,408
438,60	44,430
438,81	43,641
439,02	44,089
439,23	45,123
439,44	45,430
439,66	44,503
439,87	46,116
440,08	45,442
440,29	45,205
440,50	45,068
440,72	46,025
440,93	46,164
441,14	47,408
441,35	47,665
441,56	48,334
441,77	49,112
441,99	51,808
442,20	54,108
442,41	56,758
442,62	60,065
442,83	63,988
443,04	68,467
443,26	71,754
443,47	74,844
443,68	77,978
443,89	78,696
444,10	78,823
444,31	79,430
444,53	80,664
444,74	82,209
444,95	83,424
445,16	84,923
445,37	86,080
445,58	87,236
445,80	88,166
446,01	88,614
446,22	91,126
446,43	91,419
446,64	91,676
446,85	92,038
447,06	92,436
447,28	94,027
447,49	92,556
447,70	92,232
447,91	92,535
448,12	91,817
448,33	93,019
448,54	91,500
448,76	92,705
448,97	94,488
449,18	93,902
449,39	94,764
449,60	93,415
449,81	94,767
450,02	93,602
450,23	93,690
450,45	95,134
450,66	94,781
450,87	93,857
451,08	94,719
451,29	95,143
451,50	95,719
451,71	93,723
451,92	94,041
452,13	93,750
452,35	92,640
452,56	90,709
452,77	90,855
452,98	89,529
453,19	89,576
453,40	89,848
453,61	88,055
453,82	90,670
454,03	90,927
454,25	89,329
454,46	90,586
454,67	92,840
454,88	94,038
455,09	94,129
455,30	94,992
455,51	95,432
455,72	95,797
455,93	96,500
456,14	96,388
456,35	96,852
456,56	97,088
456,78	96,465
456,99	97,166
457,20	96,973
457,41	97,580
457,62	96,952
457,83	96,441
458,04	97,988
458,25	95,945
458,46	98,319
458,67	97,344
458,88	98,096
459,09	97,902
459,30	98,297
459,51	98,571
459,73	97,721
459,94	98,749
460,15	98,433
460,36	98,513
460,57	97,773
460,78	98,862
460,99	98,295
461,20	98,615
461,41	97,473
461,62	97,914
461,83	97,159
462,04	97,963
462,25	97,063
462,46	97,450
462,67	96,942
462,88	96,181
463,09	96,107
463,30	94,235
463,51	95,297
463,72	94,861
463,93	95,436
464,15	94,401
464,36	95,534
464,57	95,362
464,78	95,226
464,99	96,208
465,20	95,330
465,41	96,647
465,62	96,808
465,83	97,241
466,04	96,422
466,25	96,626
466,46	95,959
466,67	96,416
466,88	95,975
467,09	96,930
467,30	96,450
467,51	96,143
467,72	95,309
467,93	94,424
468,14	95,526
468,35	94,048
468,56	94,975
468,77	93,438
468,98	94,394
469,19	95,163
469,40	95,171
469,61	95,910
469,82	96,012
470,03	96,555
470,24	97,219
470,45	97,083
470,66	98,131
470,87	97,782
471,08	98,358
471,29	98,389
471,50	98,463
471,71	97,680
471,92	97,861
472,13	98,274
472,34	98,768
472,55	98,066
472,76	97,941
472,97	98,702
473,18	97,915
473,39	97,744
473,60	98,479
473,81	97,879
474,01	97,055
474,22	98,137
474,43	98,015
474,64	98,356
474,85	97,496
475,06	97,668
475,27	97,768
475,48	97,360
475,69	95,246
475,90	95,604
476,11	95,811
476,32	95,954
476,53	94,328
476,74	95,517
476,95	94,411
477,16	96,053
477,37	94,415
477,58	94,676
477,79	94,520
478,00	94,125
478,21	95,118
478,41	95,242
478,62	96,832
478,83	95,267
479,04	94,419
479,25	94,343
479,46	95,409
479,67	94,472
479,88	94,862
480,09	93,547
480,30	93,490
480,51	93,162
480,72	93,750
480,93	92,592
481,14	92,179
481,34	89,662
481,55	88,991
481,76	87,460
481,97	85,628
482,18	83,547
482,39	82,031
482,60	79,132
482,81	76,181
483,02	73,786
483,23	70,993
483,44	67,299
483,65	64,482
483,85	60,398
484,06	56,826
484,27	53,601
484,48	49,550
484,69	46,274
484,90	41,801
485,11	38,086
485,32	34,206
485,53	30,225
485,73	26,789
485,94	23,140
486,15	19,563
486,36	17,102
486,57	13,923
486,78	11,209
486,99	8,537
487,20	7,002
487,41	5,459
487,61	4,045
487,82	2,927
488,03	2,221
488,24	1,785
488,45	1,301
488,66	1,019
488,87	0,827
489,08	0,645
489,28	0,648
489,49	0,643
489,70	0,578
489,91	0,416
490,12	0,551
490,33	0,552
490,54	0,468
490,74	0,437
490,95	0,318
491,16	0,504
491,37	0,418
491,58	0,358
491,79	0,351
492,00	0,171
492,20	0,520
492,41	0,506
492,62	0,344
492,83	0,499
493,04	0,292
493,25	0,133
493,45	0,481
493,66	0,275
493,87	0,536
494,08	0,180
494,29	0,409
494,50	0,531
494,70	0,369
494,91	0,312
495,12	0,171
495,33	0,304
495,54	0,242
495,75	0,321
495,95	0,233
496,16	0,221
496,37	0,469
496,58	0,290
496,79	0,184
496,99	0,437
497,20	0,449
497,41	0,248
497,62	0,305
497,83	0,423
498,04	0,361
498,24	0,345
498,45	0,146
498,66	0,362
498,87	0,360
499,08	0,222
499,28	0,302
499,49	0,399
499,70	0,300
499,91	0,175
500,12	0,342
500,32	0,232
500,53	0,254
500,74	0,292
500,95	0,112
501,15	0,361
501,36	0,306
501,57	0,132
501,78	0,192
501,99	0,207
502,19	0,390
502,40	0,324
502,61	0,151
502,82	0,321
503,02	0,214
503,23	0,236
503,44	0,159
503,65	0,313
503,86	0,299
504,06	0,242
504,27	0,390
504,48	0,242
504,69	0,339
504,89	0,136
505,10	0,304
505,31	0,203
505,52	0,166
505,72	0,247
505,93	0,273
506,14	0,211
506,35	0,372
506,55	0,136
506,76	0,175
506,97	0,283
507,18	0,111
507,38	0,304
507,59	0,211
507,80	0,353
508,01	0,287
508,21	0,293
508,42	0,509
508,63	0,331
508,84	0,373
509,04	0,212
509,25	0,200
509,46	0,259
509,67	0,259
509,87	0,105
510,08	0,243
510,29	0,242
510,49	0,184
510,70	0,279
510,91	0,059
511,12	0,365
511,32	0,147
511,53	0,135
511,74	0,239
511,94	0,447
512,15	0,219
512,36	0,319
512,57	0,540
512,77	0,253
512,98	0,242
513,19	0,217
513,39	0,454
513,60	0,318
513,81	0,241
514,01	0,084
514,22	0,234
514,43	0,115
514,64	0,265
514,84	0,297
515,05	0,186
515,26	0,216
515,46	0,437
515,67	0,327
515,88	0,080
516,08	0,491
516,29	0,200
516,50	0,377
516,70	0,088
516,91	0,431
517,12	0,258
517,32	0,302
517,53	0,302
517,74	0,261
517,95	0,342
518,15	0,204
518,36	0,376
518,57	0,264
518,77	0,498
518,98	0,323
519,19	0,230
519,39	0,561
519,60	0,246
519,80	0,325
520,01	0,220
520,22	0,386
520,42	0,448
520,63	0,253
520,84	0,478
521,04	0,430
521,25	0,431
521,46	0,236
521,66	0,223
521,87	0,259
522,08	0,401
522,28	0,334
522,49	0,361
522,70	0,394
522,90	0,414
523,11	0,193
523,31	0,552
523,52	0,287
523,73	0,523
523,93	0,369
524,14	0,411
524,35	0,330
524,55	0,281
524,76	0,434
524,97	0,332
525,17	0,616
525,38	0,426
525,58	0,361
525,79	0,581
526,00	0,499
526,20	0,482
526,41	0,458
526,61	0,492
526,82	0,628
527,03	0,511
527,23	0,469
527,44	0,443
527,64	0,659
527,85	0,519
528,06	0,715
528,26	0,687
528,47	0,637
528,68	0,792
528,88	0,964
529,09	0,877
529,29	1,159
529,50	1,590
529,70	1,795
529,91	2,125
530,12	2,596
530,32	3,027
530,53	3,755
530,73	4,508
530,94	5,526
531,15	6,412
531,35	7,625
531,56	9,031
531,76	10,254
531,97	12,276
532,17	13,429
532,38	15,605
532,59	17,603
532,79	19,407
533,00	21,858
533,20	23,396
533,41	25,726
533,61	27,293
533,82	29,440
534,03	31,415
534,23	33,666
534,44	34,753
534,64	35,490
534,85	37,724
535,05	39,887
535,26	39,585
535,46	41,077
535,67	41,561
535,88	43,422
536,08	44,514
536,29	44,780
536,49	45,131
536,70	45,986
536,90	47,049
537,11	47,658
537,31	47,699
537,52	48,482
537,72	49,391
537,93	50,529
538,13	51,383
538,34	52,182
538,55	54,098
538,75	56,687
538,96	58,484
539,16	60,674
539,37	64,105
539,57	67,141
539,78	70,172
539,98	73,593
540,19	77,467
540,39	80,037
540,60	82,807
540,80	85,877
541,01	86,889
541,21	90,094
541,42	90,396
541,62	93,104
541,83	93,130
542,03	95,927
542,24	96,734
542,44	95,615
542,65	98,086
542,85	98,153
543,06	98,673
543,26	100,040
543,47	99,350
543,67	100,028
543,88	99,389
544,08	101,385
544,29	100,040
544,49	100,528
544,70	99,175
544,90	99,440
545,11	98,312
545,31	99,322
545,52	98,264
545,72	98,446
545,93	99,372
546,13	99,165
546,34	98,811
546,54	97,704
546,75	97,731
546,95	98,417
547,15	97,676
547,36	97,852
547,56	98,900
547,77	98,598
547,97	99,626
548,18	99,071
548,38	98,452
548,59	98,698
548,79	98,443
549,00	98,878
549,20	99,255
549,41	99,223
549,61	99,778
549,81	99,895
550,02	99,596
550,22	100,214
550,43	98,902
550,63	99,411
550,84	99,937
551,04	98,331
551,25	98,892
551,45	98,143
551,65	98,994
551,86	98,126
552,06	98,584
552,27	98,510
552,47	97,926
552,68	97,876
552,88	97,350
553,08	98,151
553,29	98,109
553,49	96,627
553,70	97,325
553,90	96,433
554,11	97,966
554,31	97,054
554,51	97,686
554,72	97,869
554,92	97,127
555,13	97,438
555,33	97,327
555,53	97,655
555,74	97,715
555,94	99,009
556,15	98,680
556,35	98,637
556,56	98,204
556,76	97,955
556,96	98,446
557,17	97,816
557,37	98,425
557,58	98,066
557,78	98,576
557,98	98,629
558,19	98,096
558,39	98,858
558,59	98,389
558,80	98,629
559,00	99,021
559,21	98,729
559,41	98,696
559,61	99,248
559,82	100,288
560,02	99,462
560,23	99,936
560,43	99,252
560,63	99,418
560,84	99,400
561,04	99,613
561,24	99,216
561,45	100,019
561,65	99,241
561,85	100,548
562,06	100,270
562,26	100,105
562,47	99,917
562,67	99,056
562,87	101,053
563,08	99,797
563,28	99,936
563,48	100,112
563,69	100,456
563,89	99,254
564,09	100,075
564,30	99,974
564,50	99,846
564,70	99,163
564,91	99,586
565,11	99,085
565,31	99,752
565,52	98,707
565,72	99,701
565,92	98,660
566,13	99,335
566,33	98,120
566,53	98,711
566,74	99,212
566,94	99,757
567,14	98,949
567,35	98,184
567,55	98,982
567,75	98,369
567,96	98,895
568,16	99,100
568,36	99,842
568,57	99,085
568,77	100,234
568,97	98,909
569,18	99,253
569,38	99,625
569,58	99,548
569,79	100,056
569,99	99,622
570,19	100,521
570,39	99,827
570,60	98,937
570,80	100,605
571,00	99,669
571,21	100,148
571,41	99,753
571,61	99,463
571,82	100,107
572,02	98,392
572,22	99,874
572,42	100,015
572,63	99,462
572,83	100,148
573,03	100,868
573,24	99,908
573,44	99,578
573,64	99,970
573,84	99,216
574,05	99,031
574,25	99,474
574,45	99,369
574,66	98,891
574,86	99,520
575,06	98,398
575,26	98,568
575,47	98,870
575,67	98,217
575,87	97,768
576,07	98,177
576,28	98,736
576,48	97,907
576,68	99,572
576,88	99,004
577,09	98,488
577,29	99,753
577,49	99,558
577,69	97,982
577,90	97,402
578,10	97,931
578,30	99,171
578,50	97,669
578,71	97,639
578,91	96,975
579,11	97,420
579,31	97,135
579,52	97,120
579,72	97,515
579,92	97,058
580,12	97,712
580,33	97,802
580,53	97,983
580,73	97,653
580,93	96,889
581,13	97,610
581,34	97,952
581,54	97,823
581,74	97,087
581,94	97,402
582,15	97,886
582,35	96,925
582,55	97,445
582,75	97,510
582,95	97,863
583,16	97,747
583,36	97,978
583,56	97,505
583,76	96,766
583,96	97,240
584,17	97,229
584,37	97,581
584,57	97,289
584,77	96,098
584,97	95,966
585,18	96,392
585,38	95,033
585,58	94,121
585,78	94,395
585,98	93,904
586,19	91,954
586,39	91,373
586,59	90,445
586,79	89,954
586,99	87,715
587,20	85,051
587,40	83,206
587,60	80,522
587,80	78,854
588,00	75,481
588,20	72,320
588,41	69,092
588,61	65,361
588,81	62,310
589,01	58,329
589,21	54,647
589,41	49,757
589,62	46,720
589,82	43,303
590,02	39,513
590,22	36,233
590,42	32,993
590,62	29,296
590,83	26,873
591,03	23,365
591,23	20,946
591,43	17,682
591,63	15,107
591,83	12,908
592,03	10,932
592,24	8,874
592,44	7,746
592,64	6,127
592,84	5,024
593,04	4,252
593,24	3,089
593,44	2,361
593,65	2,362
593,85	1,770
594,05	1,367
594,25	0,984
594,45	1,033
594,65	0,792
594,85	0,577
595,06	0,575
595,26	0,617
595,46	0,379
595,66	0,277
595,86	0,461
596,06	0,274
596,26	0,488
596,46	0,179
596,66	0,380
596,87	0,320
597,07	0,435
597,27	0,205
597,47	0,344
597,67	0,285
597,87	0,391
598,07	0,355
598,27	0,361
598,47	0,195
598,67	0,286
598,88	0,272
599,08	0,306
599,28	0,482
599,48	0,307
599,68	0,327
599,88	0,262
600,08	0,220
600,28	0,236
600,48	0,269
600,68	0,388
600,88	0,300
601,09	0,285
601,29	0,242
601,49	0,295
601,69	0,239
601,89	0,317
602,09	0,142
602,29	0,330
602,49	0,330
602,69	0,347
602,89	0,207
603,09	0,415
603,29	0,216
603,49	0,290
603,69	0,131
603,90	0,191
604,10	0,337
604,30	0,324
604,50	0,086
604,70	0,182
604,90	0,075
605,10	0,127
605,30	0,192
605,50	0,011
605,70	0,334
605,90	0,314
606,10	0,076
606,30	0,161
606,50	0,156
606,70	0,190
606,90	0,276
607,10	0,347
607,30	0,000
607,50	0,373
607,70	0,363
607,90	0,355
608,10	0,230
608,30	0,206
608,50	0,356
608,70	0,230
608,90	0,166
609,11	0,296
609,31	0,343
609,51	0,260
609,71	0,400
609,91	0,227
610,11	0,221
610,31	0,278
610,51	0,110
610,71	0,148
610,91	0,271
611,11	0,293
611,31	0,153
611,51	0,162
611,71	0,210
611,91	0,438
612,11	0,172
612,31	0,329
612,51	0,127
612,71	0,175
612,91	0,244
613,11	0,344
613,31	0,264
613,51	0,293
613,71	0,063
613,91	0,264
614,11	0,208
614,31	0,197
614,50	0,028
614,70	0,264
614,90	0,398
615,10	0,114
615,30	-0,016
615,50	0,130
615,70	0,331
615,90	0,169
616,10	0,309
616,30	0,296
616,50	0,232
616,70	0,163
616,90	0,414
617,10	0,189
617,30	0,278
617,50	0,389
617,70	0,170
617,90	0,276
618,10	0,254
618,30	0,236
618,50	0,289
618,70	0,282
618,90	0,237
619,10	0,267
619,30	0,307
619,49	0,442
619,69	0,290
619,89	0,118
620,09	0,159
620,29	0,190
620,49	0,432
620,69	0,292
620,89	0,294
621,09	0,217
621,29	0,280
621,49	0,170
621,69	0,208
621,89	0,374
622,09	0,214
622,29	0,391
622,48	0,153
622,68	0,494
622,88	0,373
623,08	0,276
623,28	0,531
623,48	0,386
623,68	0,224
623,88	0,486
624,08	0,619
624,28	0,706
624,48	0,905
624,67	0,922
624,87	1,060
625,07	1,451
625,27	1,705
625,47	1,715
625,67	2,199
625,87	2,808
626,07	3,171
626,27	3,742
626,47	4,272
626,66	5,047
626,86	5,827
627,06	6,615
627,26	7,821
627,46	8,759
627,66	10,114
627,86	11,247
628,06	13,086
628,25	14,463
628,45	15,768
628,65	17,350
628,85	18,794
629,05	20,558
629,25	21,965
629,45	23,616
629,65	24,946
629,84	26,146
630,04	28,120
630,24	29,464
630,44	30,552
630,64	31,992
630,84	33,040
631,04	34,151
631,23	35,539
631,43	35,743
631,63	36,896
631,83	38,437
632,03	38,244
632,23	38,911
632,42	39,854
632,62	40,488
632,82	41,408
633,02	42,166
633,22	42,508
633,42	43,462
633,62	44,069
633,81	44,871
634,01	46,662
634,21	47,115
634,41	47,687
634,61	49,107
634,80	51,135
635,00	52,063
635,20	54,367
635,40	57,191
635,60	58,673
635,80	61,621
635,99	63,619
636,19	66,499
636,39	69,301
636,59	71,887
636,79	74,172
636,98	77,776
637,18	79,814
637,38	82,432
637,58	84,218
637,78	87,009
637,97	88,367
638,17	90,722
638,37	92,040
638,57	94,103
638,77	94,848
638,96	94,500
639,16	95,186
639,36	95,531
639,56	96,765
639,76	96,813
639,95	96,974
640,15	97,388
640,35	97,776
640,55	98,575
640,75	98,949
640,94	97,145
641,14	98,262
641,34	98,294
641,54	97,246
641,73	97,424
641,93	98,683
642,13	97,502
642,33	99,068
642,53	97,154
642,72	97,823
642,92	97,776
643,12	96,777
643,32	97,675
643,51	97,434
643,71	96,417
643,91	97,142
644,11	98,104
644,30	98,051
644,50	97,172
644,70	95,851
644,90	98,171
645,09	95,277
645,29	95,918
645,49	95,922
645,69	95,089
645,88	97,047
646,08	96,180
646,28	97,529
646,48	96,458
646,67	97,935
646,87	98,896
647,07	97,361
647,26	98,016
647,46	96,868
647,66	96,969
647,86	95,787
648,05	95,501
648,25	96,560
648,45	95,525
648,65	96,405
648,84	96,802
649,04	94,811
649,24	94,613
649,43	94,887
649,63	95,504
649,83	96,051
650,03	96,211
650,22	95,336
650,42	97,411
650,62	93,592
650,81	96,040
651,01	95,070
651,21	95,060
651,40	95,078
651,60	97,169
651,80	96,021
652,00	95,117
652,19	94,058
652,39	96,185
652,59	95,326
652,78	95,408
652,98	94,200
653,18	95,581
653,37	95,761
653,57	93,785
653,77	94,659
653,96	95,217
654,16	95,904
654,36	94,554
654,55	95,382
654,75	96,432
654,95	95,080
655,14	94,344
655,34	96,625
655,54	95,287
655,73	94,976
655,93	96,688
656,13	96,142
656,32	95,555
656,52	96,985
656,72	97,505
656,91	94,530
657,11	94,793
657,31	94,782
657,50	96,422
657,70	95,586
657,90	95,936
658,09	96,015
658,29	93,659
658,49	95,967
658,68	95,022
658,88	96,971
659,07	94,641
659,27	96,036
659,47	97,349
659,66	95,678
659,86	96,259
660,06	96,066
660,25	95,018
660,45	94,543
660,64	95,665
660,84	94,926
661,04	94,772
661,23	95,048
661,43	95,352
661,63	95,699
661,82	94,554
662,02	95,573
662,21	95,980
662,41	94,638
662,61	95,607
662,80	96,018
663,00	95,875
663,19	96,562
663,39	96,621
663,59	98,388
663,78	95,636
663,98	94,544
664,17	95,828
664,37	96,542
664,57	96,272
664,76	97,643
664,96	94,585
665,15	97,963
665,35	96,141
665,55	96,095
665,74	96,157
665,94	97,631
666,13	97,153
666,33	95,891
666,53	96,208
666,72	95,585
666,92	96,899
667,11	96,492
667,31	95,174
667,50	93,788
667,70	96,566
667,90	95,508
668,09	95,967
668,29	95,571
668,48	93,401
668,68	96,281
668,87	96,226
669,07	95,893
669,26	95,451
669,46	93,883
669,66	94,959
669,85	94,785
670,05	94,621
670,24	96,435
670,44	94,130
670,63	93,389
670,83	93,940
671,02	95,214
671,22	92,689
671,42	93,298
671,61	93,068
671,81	95,508
672,00	92,699
672,20	93,246
672,39	92,528
672,59	94,214
672,78	94,755
672,98	93,593
673,17	95,193
673,37	94,139
673,56	93,443
673,76	93,736
673,95	94,830
674,15	94,239
674,34	94,875
674,54	93,837
674,73	94,081
674,93	93,018
675,13	93,120
675,32	94,552
675,52	95,995
675,71	93,884
675,91	94,636
676,10	94,115
676,30	94,492
676,49	93,154
676,69	94,229
676,88	93,772
677,08	92,929
677,27	91,990
677,47	92,009
677,66	92,545
677,86	92,102
678,05	90,860
678,24	90,863
678,44	90,373
678,63	89,846
678,83	89,544
679,02	88,615
679,22	87,032
679,41	86,052
679,61	84,030
679,80	83,390
680,00	81,924
680,19	80,837
680,39	78,397
680,58	76,704
680,78	74,874
680,97	74,511
681,17	70,990
681,36	69,328
681,56	66,516
681,75	64,667
681,94	62,913
682,14	59,663
682,33	58,208
682,53	55,148
682,72	52,580
682,92	49,484
683,11	47,407
683,31	44,460
683,50	42,057
683,69	39,408
683,89	36,961
684,08	35,143
684,28	31,961
684,47	29,557
684,67	27,187
684,86	25,275
685,06	23,466
685,25	21,292
685,44	19,995
685,64	17,494
685,83	16,257
686,03	14,622
686,22	13,179
686,42	11,926
686,61	10,584
686,80	9,737
687,00	8,827
687,19	7,516
687,39	6,681
687,58	5,861
687,77	5,411
687,97	4,529
688,16	3,759
688,36	3,533
688,55	3,059
688,74	2,598
688,94	2,401
689,13	1,709
689,33	1,564
689,52	1,311
689,71	1,295
689,91	0,774
690,10	0,867
690,30	0,851
690,49	0,806
690,68	0,491
690,88	0,519
691,07	0,216
691,27	0,496
691,46	0,426
691,65	0,273
691,85	0,194
692,04	0,072
692,23	0,018
692,43	0,144
692,62	0,162
692,82	0,207
693,01	0,191
693,20	-0,091
693,40	0,084
693,59	0,073
693,78	0,015
693,98	-0,067
694,17	0,158
694,36	0,166
694,56	0,134
694,75	0,113
694,94	0,027
695,14	0,128
695,33	0,012
695,53	-0,148
695,72	0,071
695,91	0,164
696,11	0,125
696,30	-0,018
696,49	0,121
696,69	0,138
696,88	0,422
697,07	0,281
697,27	0,198
697,46	0,162
697,65	-0,005
697,85	0,021
698,04	0,038
698,23	-0,125
698,43	0,234
698,62	0,071
698,81	0,307
699,01	-0,083
699,20	0,026
699,39	0,267
699,58	0,248
699,78	0,213
699,97	0,015
700,16	0,015
700,36	-0,095
700,55	0,635
700,74	0,192
700,94	0,334
701,13	0,504
701,32	0,162
701,52	0,064
701,71	0,391
701,90	0,069
702,09	-0,051
702,29	0,491
702,48	0,353
702,67	0,949
702,87	0,557
703,06	0,117
703,25	0,343
703,44	0,111
703,64	0,672
703,83	1,287
704,02	-0,137
704,22	0,269
704,41	0,576
704,60	0,895
704,79	0,106
704,99	0,651
705,18	0,321
705,37	0,763
705,56	0,424
705,76	0,598
705,95	1,259
706,14	0,785
706,33	0,852
706,53	0,208
706,72	1,015
706,91	-0,041
707,11	-0,321
707,30	-0,127
707,49	1,784
707,68	1,052
707,88	-0,410
708,07	0,557
708,26	0,516
708,45	0,478
708,64	0,926
708,84	0,576
709,03	1,243
709,22	0,660
709,41	1,240
709,61	-0,279
709,80	-0,168
709,99	1,369
710,18	0,238
710,38	1,173
710,57	1,943
710,76	1,272
710,95	1,563
711,14	0,929
711,34	0,948
711,53	-1,110
711,72	1,293
711,91	1,268
712,11	-0,258
712,30	1,871
712,49	-0,333
712,68	0,888
712,87	0,977
713,07	0,826
713,26	0,403
713,45	0,495
713,64	2,703
713,83	1,994
714,03	0,644
714,22	-1,917
714,41	2,547
714,60	1,356
714,79	0,821
714,99	1,252
715,18	0,659
715,37	1,017
715,56	2,905
715,75	2,034
715,94	-0,509
716,14	-0,481
716,33	0,880
716,52	-0,364
716,71	-0,705
716,90	-0,369
717,10	2,558
717,29	1,513
717,48	1,020
717,67	-0,678
717,86	-0,286
718,05	2,650
718,24	4,396
718,44	2,932
718,63	1,883
718,82	1,508
719,01	2,274
719,20	0,962
719,39	3,143
719,59	0,190
719,78	0,482
719,97	4,962
720,16	0,560
720,35	1,434
720,54	1,411
720,73	0,474
720,93	0,000
721,12	-1,225
721,31	3,353
721,50	4,759
721,69	3,016
721,88	2,120
722,07	1,895
722,27	-0,857
722,46	-1,158
722,65	2,202
722,84	2,605
723,03	6,578
723,22	3,252
723,41	2,177
723,60	1,347
723,79	4,170
723,99	3,328
724,18	-1,054
724,37	-4,610
724,56	2,616
724,75	0,089
724,94	4,359
725,13	5,830
725,32	4,509
725,51	1,703
725,71	2,254
725,90	-1,587
726,09	4,753
726,28	2,260
726,47	3,217
726,66	0,097
726,85	2,337
727,04	6,158
727,23	4,785
727,42	4,084
727,61	-0,312
727,81	3,575
728,00	3,611
728,19	1,376
728,38	5,021
728,57	10,323
728,76	5,139
728,95	2,514
729,14	5,681
729,33	3,987
729,52	6,250
729,71	2,678
729,90	-2,212
730,09	2,130
730,28	3,191
730,48	-0,242
730,67	7,529
730,86	3,345
731,05	-2,209
731,24	2,356
731,43	1,308
731,62	4,568
731,81	2,632
732,00	5,230
732,19	5,013
732,38	3,636
732,57	5,025
732,76	-1,493
732,95	4,108
733,14	8,226
733,33	1,667
733,52	3,117
733,71	4,920
733,90	0,415
734,09	3,338
734,28	5,249
734,47	-2,647
734,66	-0,421
734,85	-0,141
735,04	9,182
735,23	4,294
735,42	0,000
735,61	8,172
735,81	8,665
736,00	-0,150
736,19	0,600
736,38	3,609
736,57	6,646
736,76	5,449
736,95	0,797
737,14	7,822
737,33	-0,935
737,52	5,775
737,71	5,335
737,90	4,153
738,09	-0,862
738,28	-1,299
738,47	6,913
738,66	1,356
738,85	0,000
739,04	-2,738
739,22	6,518
739,41	-7,155
739,60	4,309
739,79	1,243
739,98	10,169
740,17	3,547
740,36	7,765
740,55	4,189
740,74	2,230
740,93	6,745
741,12	10,900
741,31	-4,499
741,50	-0,523
741,69	2,403
741,88	7,531
742,07	6,537
742,26	9,178
742,45	7,609
742,64	-1,429
742,83	-4,615
743,02	-4,819
743,21	0,226
743,40	11,877
743,59	5,501
743,78	-9,283
743,97	12,334
744,16	4,310
744,34	-1,240
744,53	-2,155
744,72	1,062
744,91	8,830
745,10	-6,437
745,29	-1,174
745,48	9,389
745,67	-2,667
745,86	3,320
746,05	12,752
746,24	1,078
746,43	4,082
746,62	10,848
746,81	-1,422
747,00	7,500
747,18	3,182
747,37	-4,773
747,56	10,297
747,75	-2,046
747,94	7,576
748,13	10,981
748,32	8,293
748,51	14,988
748,70	4,556
748,89	-0,538
749,08	12,562
749,26	2,667
749,45	16,628
749,64	4,910
749,83	10,074
750,02	2,681
750,21	3,646
750,40	-4,485
750,59	3,989
750,78	2,892
750,96	14,963
751,15	5,362
751,34	13,268
751,53	1,111
751,72	6,166
751,91	10,499
752,10	3,662
752,29	-7,536
752,47	16,954
752,66	3,846
752,85	11,905
753,04	-5,135
753,23	5,751
753,42	11,721
753,61	3,040
753,80	-8,408
753,98	-0,312
754,17	2,550
754,36	2,941
754,55	6,840
754,74	14,865
754,93	6,129
755,12	-1,538
755,30	1,107
755,49	4,692
755,68	13,425
755,87	-7,850
756,06	7,781
756,25	0,330
756,43	10,072
756,62	10,108
756,81	-0,784
757,00	6,593
757,19	14,110
757,38	14,332
757,56	4,730
757,75	-19,847
757,94	-0,431
758,13	9,236
758,32	-0,379
758,51	19,032
758,69	-0,962
758,88	13,443
759,07	18,505
759,26	4,762
759,45	15,000
759,63	-0,395
759,82	10,949
760,01	0,000
760,20	11,314
760,39	1,533
760,57	0,429
760,76	6,107
760,95	-15,326
761,14	4,615
761,33	18,750
761,51	10,741
761,70	15,172
761,89	7,752
762,08	23,707
762,27	-6,731
762,45	-11,792
762,64	17,257
762,83	20,446
763,02	10,727
763,21	7,042
763,39	-5,882
763,58	3,265
763,77	5,319
763,96	9,942
764,14	0,415
764,33	39,850
764,52	27,232
764,71	-2,463
764,89	16,216
765,08	5,243
765,27	3,465
765,46	-4,091
765,65	19,289
765,83	1,429
766,02	12,454
766,21	20,675
766,40	29,302
766,58	15,837
766,77	-15,254
766,96	-3,590
767,15	8,696
767,33	-23,558
767,52	0,948
767,71	0,000
767,90	14,167
768,08	23,176
768,27	16,279
768,46	3,333
768,64	-6,796
768,83	29,189
769,02	-7,143
769,21	11,979
769,39	-13,423
769,58	15,000
769,77	18,478
769,96	-4,636
770,14	17,176
770,33	6,952
770,52	-1,282
770,70	11,386
770,89	14,796
771,08	10,417
771,27	2,062
771,45	14,451
771,64	14,474
771,83	16,667
772,01	3,053
772,20	11,616
772,39	8,917
772,57	23,958
772,76	5,517
772,95	6,599
773,14	23,256
773,32	11,538
773,51	17,674
773,70	8,609
773,88	16,080
774,07	3,766
774,26	19,512
774,44	38,693
774,63	22,152
774,82	8,434
775,00	9,170
775,19	-10,920
775,38	10,000
775,56	14,024
775,75	-4,790
775,94	20,149
776,12	15,833
776,31	0,599
776,50	20,000
776,68	15,432
776,87	0,699
777,06	2,740
777,24	1,639
777,43	13,821
777,62	9,630
777,80	28,804
777,99	11,465
778,18	29,299
778,36	18,321
778,55	7,407
778,74	1,515
778,92	39,819
779,11	49,677
779,29	33,333
779,48	22,314
779,67	39,568
779,85	27,200
780,04	46,479
780,23	-0,699
780,41	21,176
780,60	16,374
780,79	8,333
780,97	17,857
781,16	36,800
781,34	21,970
781,53	8,333
781,72	12,963
781,90	65,385
782,09	30,328
782,28	6,504
782,46	-0,813
782,65	48,252
782,83	-1,527
783,02	24,800
783,21	21,705
783,39	20,513
783,58	48,667
783,76	-33,784
783,95	7,947
784,14	29,474
784,32	-4,587
784,51	-5,618
784,69	-5,096
784,88	17,419
785,06	23,404
785,25	-7,519
785,44	12,838
785,62	23,571
785,81	30,597
785,99	2,041
786,18	8,197
786,37	27,586
786,55	7,463
786,74	33,540
786,92	10,465
787,11	23,200
787,29	47,059
787,48	7,000
787,67	6,122
787,85	-20,313
788,04	23,973
788,22	39,815
788,41	32,895
788,59	44,218
788,78	32,639
788,96	20,952
789,15	33,607
789,34	-12,195
789,52	6,716
789,71	-1,587
789,89	28,070
790,08	0,000
790,26	53,968
790,45	53,285
790,63	36,184
790,82	17,742
791,00	37,302
791,19	20,714
791,38	9,589
791,56	10,526
791,75	16,216
791,93	-27,451
792,12	3,030
792,30	23,684
792,49	-24,299
792,67	-2,143
792,86	59,459
793,04	15,873
793,23	47,368
793,41	16,774
793,60	31,013
793,78	44,966
793,97	0,862
794,15	0,654
794,34	7,143
794,52	7,752
794,71	58,642
794,89	29,286
795,08	26,923
795,26	-7,000
795,45	41,489
795,63	6,918
795,82	10,924
796,00	-66,154
796,19	50,649
796,37	33,051
796,56	-40,741
796,74	14,844
796,93	-4,202
797,11	17,500
797,30	32,824
797,48	41,259
797,67	12,097
797,85	39,130
798,04	20,721
798,22	5,755
798,41	25,424
798,59	5,714
798,77	18,803
798,96	34,677
799,14	61,111
799,33	17,699
799,51	32,673
799,70	2,198
799,88	38,532
800,07	56,835
800,25	20,611
800,44	3,960
800,62	16,547
800,80	9,091
800,99	10,256
801,17	21,379
801,36	-13,542
801,54	35,659
801,73	20,455
801,91	22,472
802,10	43,529
802,28	3,937
802,46	20,968
802,65	23,179
802,83	21,488
803,02	57,143
803,20	64,407
803,39	-5,505
803,57	0,704
803,75	7,857
803,94	31,081
804,12	17,391
804,31	45,192
804,49	46,452
804,67	-16,216
804,86	9,938
805,04	1,550
805,23	5,109
805,41	43,137
805,59	12,048
805,78	50,000
805,96	31,928
806,15	42,400
806,33	-30,657
806,51	40,385
806,70	-17,442
806,88	-15,455
807,07	38,525
807,25	17,391
807,43	24,444
807,62	12,500
807,80	33,537
807,99	36,691
808,17	8,333
808,35	0,943
808,54	34,637
808,72	30,769
808,90	21,951
809,09	32,117
809,27	23,301
809,46	3,738
809,64	11,561
809,82	34,483
810,01	13,441
810,19	-35,455
810,37	12,500
810,56	9,272
810,74	31,447
810,92	14,789
811,11	-1,840
811,29	26,087
811,48	2,609
811,66	26,396
811,84	1,695
812,03	-4,054
812,21	26,667
812,39	31,452
812,58	26,316
812,76	29,197
812,94	6,040
813,13	3,659
813,31	15,344
813,49	8,000
813,68	23,770
813,86	29,487
814,04	27,928
814,23	27,692
814,41	7,534
814,59	1,307
814,78	28,859
814,96	32,961
815,14	25,628
815,33	34,711
815,51	-14,173
815,69	36,641
815,87	-14,839
816,06	18,408
816,24	0,654
816,42	26,786
816,61	19,753
816,79	23,121
816,97	41,667
817,16	-15,476
817,34	30,000
817,52	10,748
817,70	8,290
817,89	17,703
818,07	26,667
818,25	-2,532
818,44	19,251
818,62	18,317
818,80	2,198
818,98	-9,231
819,17	8,475
819,35	19,463
819,53	27,692
819,72	32,973
819,90	15,111
820,08	22,772
820,26	1,826
820,45	14,516
820,63	3,509
820,81	16,972
820,99	21,397
821,18	18,072
821,36	10,000
821,54	-1,493
821,73	16,393
821,91	-0,704
822,09	26,627
822,27	15,564
822,46	-9,360
822,64	12,632
822,82	17,259
823,00	-1,047
823,19	25,714
823,37	26,068
823,55	15,190
823,73	25,281
823,91	1,070
824,10	11,458
824,28	-8,678
824,46	-8,553
824,64	27,306
824,83	-8,057
825,01	-11,176
825,19	12,227
825,37	-3,922
825,56	12,595
825,74	2,165
825,92	31,907
826,10	3,965
826,28	16,974
826,47	19,455
826,65	16,187
826,83	13,158
827,01	6,693
827,19	32,171
827,38	15,730
827,56	10,500
827,74	11,374
827,92	12,195
828,10	2,778
828,29	10,701
828,47	16,058
828,65	5,859
828,83	2,532
829,01	2,703
829,20	3,846
829,38	10,246
829,56	17,845
829,74	9,615
829,92	0,810
830,10	9,013
830,29	25,287
830,47	13,433
830,65	17,992
830,83	11,224
831,01	-12,108
831,20	-2,920
831,38	1,629
831,56	22,807
831,74	24,407
831,92	9,158
832,10	19,304
832,29	19,788
832,47	9,574
832,65	12,787
832,83	13,924
833,01	14,502
833,19	9,943
833,37	15,502
833,56	17,262
833,74	8,852
833,92	18,581
834,10	14,759
834,28	5,575
834,46	20,520
834,64	21,867
834,83	5,099
835,01	19,582
835,19	13,830
835,37	25,141
835,55	23,513
835,73	7,062
835,91	17,404
836,09	20,395
836,28	18,598
836,46	17,404
836,64	12,073
836,82	15,659
837,00	-4,473
837,18	9,000
837,36	21,114
837,54	19,672
837,72	13,671
837,91	20,963
838,09	18,485
838,27	9,326
838,45	23,836
838,63	17,465
838,81	16,413
838,99	31,300
839,17	17,391
839,35	10,609
839,53	17,347
839,72	23,077
839,90	18,667
840,08	20,000
840,26	9,449
840,44	12,977
840,62	2,965
840,80	30,549
840,98	21,029
841,16	16,304
841,34	16,340
841,52	13,696
841,70	10,174
841,89	20,729
842,07	18,161
842,25	23,480
842,43	16,545
842,61	28,605
842,79	16,327
842,97	16,018
843,15	19,415
843,33	19,753
843,51	20,435
843,69	21,289
843,87	18,750
844,05	16,199
844,23	12,474
844,41	29,026
844,59	6,846
844,77	17,732
844,95	14,935
845,13	18,316
845,31	14,538
845,50	19,255
845,68	30,621
845,86	10,772
846,04	19,508
846,22	15,965
846,40	19,628
846,58	21,315
846,76	22,921
846,94	21,272
847,12	15,192
847,30	17,261
847,48	18,397
847,66	16,049
847,84	17,314
848,02	9,375
848,20	31,262
848,38	20,357
848,56	18,312
848,74	15,118
848,92	19,931
849,10	14,965
849,28	13,543
849,46	12,384
849,64	16,899
849,82	24,601
850,00	17,032
850,18	8,716
850,36	14,901
850,54	15,176
850,72	13,240
850,90	17,418
851,08	10,079
851,26	12,783
851,44	17,771
851,62	20,094
851,80	13,554
851,98	8,296
852,16	16,741
852,34	17,324
852,52	14,645
852,70	19,739
852,87	8,734
853,05	18,625
853,23	13,274
853,41	19,437
853,59	12,698
853,77	17,442
853,95	21,534
854,13	15,625
854,31	11,051
854,49	16,596
854,67	15,331
854,85	12,668
855,03	21,772
855,21	22,884
855,39	24,707
855,57	24,930
855,75	23,108
855,93	13,062
856,11	20,104
856,28	17,177
856,46	19,737
856,64	23,636
856,82	22,386
857,00	25,888
857,18	21,589
857,36	24,254
857,54	31,669
857,72	22,138
857,90	23,980
858,08	19,531
858,26	26,516
858,44	22,222
858,61	25,424
858,79	23,838
858,97	29,442
859,15	26,688
859,33	23,743
859,51	27,630
859,69	26,250
859,87	26,965
860,05	19,803
860,23	24,414
860,40	24,044
860,58	20,755
860,76	20,652
860,94	21,474
861,12	23,785
861,30	26,618
861,48	16,753
861,66	22,651
861,84	21,320
862,01	18,118
862,19	20,935
862,37	16,793
862,55	18,421
862,73	17,459
862,91	21,028
863,09	17,043
863,27	16,615
863,44	20,443
863,62	15,031
863,80	20,585
863,98	19,982
864,16	20,532
864,34	18,463
864,52	21,850
864,69	19,679
864,87	14,184
865,05	17,062
865,23	16,465
865,41	14,484
865,59	22,034
865,76	18,789
865,94	17,311
866,12	17,217
866,30	21,108
866,48	17,538
866,66	19,217
866,83	17,652
867,01	17,652
867,19	17,560
867,37	22,069
867,55	23,214
867,73	20,000
867,90	20,325
868,08	22,037
868,26	18,127
868,44	17,977
868,62	22,076
868,79	20,771
868,97	20,188
869,15	16,541
869,33	16,375
869,51	19,733
869,69	16,519
869,86	13,903
870,04	16,003
870,22	14,012
870,40	16,410
870,57	15,238
870,75	14,840
870,93	15,608
871,11	12,893
871,29	12,024
871,46	11,462
871,64	16,856
871,82	13,122
872,00	15,437
872,18	14,222
872,35	14,507
872,53	16,559
872,71	9,078
872,89	9,853
873,06	12,826
873,24	14,939
873,42	15,808
873,60	16,138
873,77	12,266
873,95	12,735
874,13	13,563
874,31	14,153
874,49	13,660
874,66	15,594
874,84	16,546
875,02	18,018
875,20	13,810
875,37	14,332
875,55	12,679
875,73	15,251
875,91	14,330
876,08	16,216
876,26	16,410
876,44	16,487
876,61	16,495
876,79	15,188
876,97	15,259
877,15	16,997
877,32	13,452
877,50	16,149
877,68	16,686
877,86	18,122
878,03	15,486
878,21	17,979
878,39	16,871
878,56	19,045
878,74	19,824
878,92	21,109
879,10	20,903
879,27	21,112
879,45	21,492
879,63	18,260
879,80	19,763
879,98	18,319
880,16	20,700
880,34	22,954
880,51	22,868
880,69	21,203
880,87	20,912
881,04	22,277
881,22	23,722
881,40	20,807
881,57	22,206
881,75	21,895
881,93	22,649
882,10	26,544
882,28	23,573
882,46	23,037
882,63	25,486
882,81	24,589
882,99	23,301
883,16	27,124
883,34	26,813
883,52	26,057
883,69	24,499
883,87	27,723
884,05	26,834
884,22	27,543
884,40	25,649
884,58	24,465
884,75	23,778
884,93	27,425
885,11	28,900
885,28	26,271
885,46	26,515
885,64	26,406
885,81	26,637
885,99	29,992
886,17	26,721
886,34	26,722
886,52	28,153
886,70	27,308
886,87	28,716
887,05	29,931
887,22	25,950
887,40	30,958
887,58	28,500
887,75	28,906
887,93	30,038
888,11	27,660
888,28	32,298
888,46	29,673
888,63	28,949
888,81	32,615
888,99	31,449
889,16	32,712
889,34	30,904
889,51	31,630
889,69	32,605
889,87	32,455
890,04	31,557
890,22	33,956
890,39	33,902
890,57	36,473
890,75	34,663
890,92	34,275
891,10	33,773
891,27	36,177
891,45	33,922
891,63	36,317
891,80	38,482
891,98	36,696
892,15	38,696
892,33	36,073
892,51	38,021
892,68	36,565
892,86	39,233
893,03	39,380
893,21	41,682
893,38	39,170
893,56	41,638
893,74	40,261
893,91	40,196
894,09	42,524
894,26	41,999
894,44	41,327
894,61	41,106
894,79	41,712
894,96	42,286
895,14	43,538
895,32	41,897
895,49	43,062
895,67	40,499
895,84	43,492
896,02	41,249
896,19	42,251
896,37	41,275
896,54	42,956
896,72	40,927
896,89	38,686
897,07	41,195
897,25	42,416
897,42	38,337
897,60	39,828
897,77	38,648
897,95	38,032
898,12	40,903
898,30	40,836
898,47	39,477
898,65	40,729
898,82	39,769
899,00	38,979
899,17	41,906
899,35	38,755
899,52	40,865
899,70	41,143
899,87	40,500
900,05	39,396
900,22	39,764
900,40	39,214
900,57	39,511
900,75	40,823
900,92	40,179
901,10	41,155
901,27	41,932
901,45	42,332
901,62	42,490
901,80	44,515
901,97	43,672
902,15	43,319
902,32	44,044
902,50	43,550
902,67	42,839
902,85	46,206
903,02	43,665
903,20	45,152
903,37	47,936
903,54	46,184
903,72	45,533
903,89	45,062
904,07	44,677
904,24	47,545
904,42	46,869
904,59	48,035
904,77	48,582
904,94	48,816
905,12	47,550
905,29	46,766
905,47	49,148
905,64	49,386
905,81	50,303
905,99	49,648
906,16	51,808
906,34	49,660
906,51	48,806
906,69	49,384
906,86	51,200
907,03	47,826
907,21	48,966
907,38	48,866
907,56	45,628
907,73	48,029
907,91	49,284
908,08	47,478
908,25	45,850
908,43	47,452
908,60	48,116
908,78	48,011
908,95	46,218
909,13	46,067
909,30	47,204
909,47	48,573
909,65	47,866
909,82	46,915
910,00	45,567
910,17	44,364
910,34	44,999
910,52	44,044
910,69	44,280
910,87	45,236
911,04	45,054
911,21	44,491
911,39	45,179
911,56	45,138
911,73	44,628
911,91	44,828
912,08	45,086
912,26	44,262
912,43	44,819
912,60	44,818
912,78	44,866
912,95	44,100
913,13	43,837
913,30	44,635
913,47	45,285
913,65	45,404
913,82	45,042
913,99	45,658
914,17	45,603
914,34	44,629
914,51	45,631
914,69	45,176
914,86	44,911
915,03	46,088
915,21	44,813
915,38	46,022
915,56	45,493
915,73	43,631
915,90	45,694
916,08	44,805
916,25	46,196
916,42	47,238
916,60	45,953
916,77	45,136
916,94	45,595
917,12	45,589
917,29	45,311
917,46	44,547
917,64	44,192
917,81	43,208
917,98	43,981
918,16	42,348
918,33	43,360
918,50	41,315
918,67	44,214
918,85	40,951
919,02	41,698
919,19	41,568
919,37	41,120
919,54	40,880
919,71	40,332
919,89	39,985
920,06	39,541
920,23	40,507
920,41	39,870
920,58	39,042
920,75	39,165
920,92	38,884
921,10	37,531
921,27	38,173
921,44	37,624
921,62	35,941
921,79	37,159
921,96	37,487
922,13	37,001
922,31	36,567
922,48	35,450
922,65	36,233
922,82	34,365
923,00	35,069
923,17	35,427
923,34	35,853
923,52	34,550
923,69	34,619
923,86	34,302
924,03	33,449
924,21	34,926
924,38	34,629
924,55	34,720
924,72	33,952
924,90	34,056
925,07	34,441
925,24	33,983
925,41	34,374
925,59	33,328
925,76	34,496
925,93	35,464
926,10	34,352
926,28	33,587
926,45	34,651
926,62	34,653
926,79	33,747
926,96	33,392
927,14	33,382
927,31	34,616
927,48	34,029
927,65	32,711
927,83	33,232
928,00	33,629
928,17	32,618
928,34	33,255
928,51	32,469
928,69	32,744
928,86	33,169
929,03	34,160
929,20	33,887
929,37	33,771
929,55	32,875
929,72	33,189
929,89	33,003
930,06	32,374
930,23	32,047
930,41	33,556
930,58	33,160
930,75	31,094
930,92	32,595
931,09	31,391
931,27	33,143
931,44	31,728
931,61	31,580
931,78	31,372
931,95	31,066
932,12	31,930
932,30	30,622
932,47	32,197
932,64	30,609
932,81	31,476
932,98	31,267
933,16	30,619
933,33	30,204
933,50	29,025
933,67	29,731
933,84	29,684
934,01	29,844
934,18	30,066
934,36	28,972
934,53	30,612
934,70	29,213
934,87	28,510
935,04	29,375
935,21	29,324
935,38	28,773
935,56	28,229
935,73	30,465
935,90	28,523
936,07	29,421
936,24	29,981
936,41	29,011
936,58	29,616
936,76	30,141
936,93	29,139
937,10	31,221
937,27	29,736
937,44	30,192
937,61	30,644
937,78	28,928
937,95	30,033
938,13	31,741
938,30	32,447
938,47	32,025
938,64	31,496
938,81	31,418
938,98	31,198
939,15	32,335
939,32	33,369
939,49	33,354
939,66	32,825
939,84	34,326
940,01	34,398
940,18	35,990
940,35	36,032
940,52	34,153
940,69	35,922
940,86	36,705
941,03	36,959
941,20	37,208
941,37	37,623
941,54	38,313
941,71	38,664
941,89	37,979
942,06	38,862
942,23	39,520
942,40	40,774
942,57	41,671
942,74	40,316
942,91	41,483
943,08	42,932
943,25	43,846
943,42	42,824
943,59	43,388
943,76	43,736
943,93	43,173
944,10	44,192
944,27	45,798
944,44	46,691
944,61	45,234
944,79	47,613
944,96	45,610
945,13	47,504
945,30	47,036
945,47	49,079
945,64	47,818
945,81	47,465
945,98	49,384
946,15	48,540
946,32	49,781
946,49	50,702
946,66	49,766
946,83	50,778
947,00	50,579
947,17	50,185
947,34	50,924
947,51	51,131
947,68	51,093
947,85	53,122
948,02	51,385
948,19	52,337
948,36	54,859
948,53	50,229
948,70	50,961
948,87	51,290
949,04	54,016
949,21	53,655
949,38	53,202
949,55	52,187
949,72	51,897
949,89	53,008
950,06	53,837
950,23	53,559
950,40	50,407
950,57	51,721
950,74	52,350
950,91	54,274
951,08	53,619
951,25	53,877
951,42	53,584
951,59	50,751
951,76	52,824
951,93	51,063
952,10	50,849
952,27	52,164
952,44	53,720
952,61	52,908
952,77	51,314
952,94	51,824
953,11	52,474
953,28	53,869
953,45	53,073
953,62	52,434
953,79	52,490
953,96	53,985
954,13	52,503
954,30	53,030
954,47	53,820
954,64	49,981
954,81	51,315
954,98	50,520
955,15	51,458
955,32	50,882
955,49	52,454
955,65	53,325
955,82	51,159
955,99	50,437
956,16	51,474
956,33	52,381
956,50	52,454
956,67	52,381
956,84	50,894
957,01	50,954
957,18	50,560
957,35	53,365
957,52	48,810
957,68	47,880
957,85	50,330
958,02	51,543
958,19	45,425
958,36	49,329
958,53	51,599
958,70	49,876
958,87	52,092
959,04	49,803
959,21	49,683
959,37	48,958
959,54	50,505
959,71	53,601
959,88	45,356
960,05	52,994
960,22	46,382
960,39	47,582
960,56	47,064
960,72	45,494
960,89	50,846
961,06	47,930
961,23	48,035
961,40	51,734
961,57	43,134
961,74	47,989
961,90	45,420
962,07	42,147
962,24	50,419
962,41	43,597
962,58	46,377
962,75	44,615
962,92	41,136
963,08	41,903
963,25	42,891
963,42	39,338
963,59	38,480
963,76	44,087
963,93	42,638
964,10	40,593
964,26	37,116
964,43	40,984
964,60	46,302
964,77	43,492
964,94	43,231
965,10	43,627
965,27	41,723
965,44	40,167
965,61	38,996
965,78	39,192
965,95	35,506
966,11	37,161
966,28	39,341
966,45	41,905
966,62	34,615
966,79	40,041
966,95	27,586
967,12	40,670
967,29	34,346
967,46	46,304
967,63	27,654
967,79	33,967
967,96	30,446
968,13	34,483
968,30	29,781
968,47	42,216
968,63	34,615
968,80	45,517
968,97	42,857
969,14	29,499
969,31	33,974
969,47	36,278
969,64	46,865
969,81	42,105
969,98	35,965
970,14	37,778
970,31	30,466
970,48	40,569
970,65	47,887
970,81	40,136
970,98	46,816
971,15	45,622
971,32	33,475
971,48	37,500
971,65	47,899
971,82	39,796
971,99	56,716
972,15	43,158
972,32	45,267
972,49	29,614
972,66	26,106
972,82	45,050
972,99	48,936
973,16	59,278
973,33	48,571
973,49	58,333
973,66	44,538
973,83	25,170
974,00	53,279
974,16	24,528
974,33	62,805
974,50	60,417
974,67	56,316
974,83	59,322
975,00	49,275
975,17	75,510
975,33	36,232
975,50	67,273
975,67	69,643
975,84	65,957
976,00	15,385
976,17	51,471
976,34	28,369
976,50	33,043
976,67	42,241
976,84	79,487
977,00	32,331
977,17	51,181
977,34	63,441
977,50	72,340
977,67	14,035
977,84	21,818
978,01	47,126
978,17	92,308
978,34	72,917
978,51	1,515
978,67	42,857
978,84	91,667
979,01	-29,231
979,17	51,515
979,34	287,500
979,51	5,769
979,67	73,750
979,84	67,857
980,01	72,131
980,17	20,000
980,34	94,203
980,51	81,818
980,67	66,667
980,84	36,207
981,01	-12,821
981,17	50,000
981,34	-162,500
981,50	69,118
981,67	91,379
981,84	-15,517
982,00	86,957
982,17	340,909
982,34	30,769
982,50	247,368
982,67	63,889
982,84	97,619
983,00	96,000
983,17	120,833
983,33	93,548
983,50	41,304
983,67	84,783
983,83	166,667
984,00	171,875
984,17	45,000
984,33	25,676
984,50	50,000
984,66	100,000
984,83	52,326
985,00	170,492
985,16	2,564
985,33	68,750
985,49	234,483
985,66	57,576
985,83	22,807
985,99	43,243
986,16	180,000
986,32	131,884
986,49	408,333
986,66	69,767
986,82	73,684
986,99	38,095
987,15	200,000
987,32	51,852
987,49	202,778
987,65	110,000
987,82	182,353
987,98	11,765
988,15	239,286
988,31	32,000
988,48	87,500
988,65	196,296
988,81	134,783
988,98	300,000
989,14	75,510
989,31	200,000
989,47	43,902
989,64	61,429
989,80	106,667
989,97	97,059
990,14	-47,826
990,30	127,500
990,47	85,366
990,63	217,391
990,80	106,061
990,96	145,833
991,13	91,667
991,29	133,333
991,46	152,941
991,62	55,882
991,79	96,491
991,95	235,000
992,12	174,419
992,29	132,000
992,45	-176,923
992,62	70,000
992,78	-118,519
992,95	83,333
993,11	143,333
993,28	38,272
993,44	156,522
993,61	1266,667
993,77	240,000
993,94	181,395
994,10	223,810
994,27	128,000
994,43	238,235
994,60	72,727
994,76	78,947
994,93	145,455
995,09	-37,838
995,26	69,136
995,42	93,220
995,59	150,000
995,75	93,750
995,92	190,909
996,08	204,167
996,25	255,556
996,41	89,583
996,58	170,270
996,74	450,000
996,91	211,111
997,07	92,308
997,23	189,362
997,40	533,333
997,56	153,333
997,73	0,000
997,89	-18,519
998,06	-41,176
998,22	-3300,000
998,39	282,609
998,55	-183,333
998,72	390,000
998,88	2566,667
999,05	115,385
999,21	134,783
999,37	-1400,000
999,54	-1400,000
999,70	353,846
999,87	-143,750
1000,03	25,000
1000,20	350,000
1000,36	300,000
1000,52	205,556
1000,69	104,545
1000,85	91,379
1001,02	109,231
1001,18	170,455
1001,35	-11,111
1001,51	-285,714
1001,67	-36,000
1001,84	466,667
1002,00	115,000
1002,17	68,182
1002,33	-135,294
1002,50	44,444
1002,66	2200,000
1002,82	182,857
1002,99	107,692
1003,15	65,217
1003,32	41,935
1003,48	-200,000
1003,64	62,500
1003,81	-17,857
1003,97	204,545
1004,14	433,333
1004,30	-542,857
1004,46	1200,000
1004,63	0,000
1004,79	100,000
1004,95	58,824
1005,12	157,143
1005,28	96,552
1005,45	115,385
1005,61	-866,667
1005,77	126,316
1005,94	193,548
1006,10	-2600,000
1006,26	50,000
1006,43	622,222
1006,59	-25,926
1006,76	-12,000
1006,92	500,000
1007,08	350,000
1007,25	-55,556
1007,41	16,667
1007,57	-0,000
1007,74	8,696
1007,90	-460,000
1008,06	117,143
1008,23	159,259
1008,39	1950,000
1008,55	-185,714
1008,72	443,750
1008,88	102,000
1009,04	268,000
1009,21	-11,765
1009,37	-50,000
1009,53	-73,684
1009,70	-7,692
1009,86	81,818
1010,02	292,308
1010,19	0,000
1010,35	-75,000
1010,51	277,778
1010,68	1037,500
1010,84	-366,667
1011,00	33,333
1011,17	-260,000
1011,33	182,353
1011,49	84,375
1011,66	365,217
1011,82	-79,245
1011,98	-59,091
1012,14	77,273
1012,31	-440,000
1012,47	-666,667
1012,63	711,111
1012,80	68,000
1012,96	218,182
1013,12	83,721
1013,29	105,263
1013,45	177,778
1013,61	-133,333
1013,77	-77,778
1013,94	115,625
1014,10	9,091
1014,26	2400,000
1014,43	-57,576
1014,59	-25,000
1014,75	100,000
1014,91	966,667
1015,08	-93,333
1015,24	-300,000
1015,40	-176,471
1015,56	272,222
1015,73	100,000
1015,89	114,286
1016,05	620,000
1016,21	-388,889
1016,38	-320,000
1016,54	-215,385
1016,70	-96,296
1016,86	196,970
1017,03	153,846
1017,19	17,391
1017,35	-61,538
1017,51	82,857
1017,68	509,091
1017,84	3200,000
1018,00	571,429
1018,16	20,833
1018,33	-257,143
1018,49	204,878
1018,65	-50,000
1018,81	-15,000
1018,97	-25,000
1019,14	173,333
1019,30	221,875
1019,46	555,556
1019,62	126,667
1019,79	383,333
1019,95	22,917
1020,11	-285,714
1020,27	358,333
1020,43	-71,429
1020,60	-105,263
1020,76	-172,222
1020,92	371,429
1021,08	5100,000
1021,24	250,000
1021,41	14,706
1021,57	227,273
1021,73	-0,000
1021,89	-114,286
1022,05	650,000
1022,21	107,692
1022,38	40,000
1022,54	2000,000
1022,70	77,273
1022,86	-100,000
1023,02	-323,529
1023,19	-177,778
1023,35	138,710
1023,51	142,857
1023,67	158,333
1023,83	433,333
1023,99	122,222
1024,16	126,190
1024,32	-0,000
1024,48	9,091
1024,64	111,111
1024,80	-152,778
1024,96	106,897
1025,12	-242,857
1025,29	60,714
1025,45	100,000
1025,61	-933,333
1025,77	-19,355
1025,93	260,000
1026,09	29,268
1026,26	131,579
1026,42	12,500
1026,58	-195,652
1026,74	220,833
1026,90	277,778
1027,06	84,615
1027,22	-147,826
1027,38	28,261
1027,55	800,000
1027,71	123,333
1027,87	-137,500
1028,03	-231,250
1028,19	29,412
1028,35	-514,286
1028,51	284,000
1028,67	35,294
1028,83	88,889
1029,00	637,500
1029,16	186,486
1029,32	135,714
1029,48	128,571
1029,64	-292,308
1029,80	181,818
1029,96	383,333
1030,12	315,789
1030,28	-1300,000
1030,44	740,000
1030,61	177,273
1030,77	-650,000
1030,93	-318,750
1031,09	200,000
1031,25	0,000
1031,41	170,000
1031,57	-1200,000
1031,73	-1750,000
1031,89	-190,909
1032,05	-46,512
1032,21	-0,000
1032,37	137,500
1032,53	-10,345
1032,69	126,923
1032,86	-550,000
1033,02	33,333
1033,18	166,667
1033,34	-800,000
1033,50	187,500
1033,66	-176,000
1033,82	222,222
1033,98	200,000
1034,14	-35,714
1034,30	-66,667
1034,46	152,941
1034,62	102,564
1034,78	-47,826
1034,94	148,387
1035,10	-261,538
1035,26	733,333
1035,42	36,667
1035,58	241,667
1035,74	105,405
1035,90	150,000
1036,06	47,059
1036,22	133,333
1036,38	-231,250
1036,54	75,000
1036,70	38,710
1036,86	145,000
1037,02	-107,143
1037,18	-105,882
1037,34	33,333
1037,50	-760,000
1037,66	-4500,000
1037,82	285,714
1037,98	237,500
1038,14	-425,000
1038,30	213,793
1038,46	-85,714
1038,62	-177,778
1038,78	-171,429
1038,94	400,000
1039,10	272,000
1039,26	-4,167
1039,42	173,913
1039,58	-275,000
1039,74	-250,000
1039,90	-0,000
1040,06	53,846
>>>>>End Processed Spectral Data<<<<<
