SpectraSuite Data File
++++++++++++++++++++++++++++++++++++
Date: Thu Feb 02 18:35:46 EET 2017
User: optolab
Dark Spectrum Present: Yes
Reference Spectrum Present: Yes
Number of Sampled Component Spectra: 1
Spectrometers: USB4C02475
Integration Time (usec): 151411 (USB4C02475)
Spectra Averaged: 1 (USB4C02475)
Boxcar Smoothing: 0 (USB4C02475)
Correct for Electrical Dark: No (USB4C02475)
Strobe/Lamp Enabled: No (USB4C02475)
Correct for Detector Non-linearity: No (USB4C02475)
Correct for Stray Light: No (USB4C02475)
Number of Pixels in Processed Spectrum: 3648
>>>>>Begin Processed Spectral Data<<<<<
344,91	59,259
345,13	59,259
345,35	59,259
345,57	-130,000
345,79	-61,538
346,00	-32,000
346,22	-40,541
346,44	-61,538
346,66	533,333
346,87	-60,000
347,09	-2600,000
347,31	-600,000
347,53	69,231
347,74	100,000
347,96	222,222
348,18	104,878
348,40	26,667
348,61	47,059
348,83	141,667
349,05	-7,273
349,27	51,471
349,48	5,882
349,70	54,545
349,92	4,878
350,14	-750,000
350,35	-15,385
350,57	0,000
350,79	46,809
351,01	61,290
351,22	157,143
351,44	-71,111
351,66	2,439
351,87	-52,273
352,09	34,615
352,31	47,826
352,53	27,419
352,74	-21,875
352,96	50,000
353,18	90,909
353,40	107,143
353,61	56,667
353,83	52,000
354,05	96,552
354,26	18,182
354,48	177,273
354,70	27,500
354,92	130,159
355,13	26,531
355,35	-650,000
355,57	93,506
355,78	82,500
356,00	0,000
356,22	85,075
356,44	0,000
356,65	20,513
356,87	98,765
357,09	-40,580
357,30	0,000
357,52	-5,714
357,74	78,462
357,95	94,444
358,17	-100,000
358,39	1025,000
358,60	25,263
358,82	-9,722
359,04	-55,556
359,26	51,111
359,47	31,034
359,69	1375,000
359,91	-64,062
360,12	22,222
360,34	131,579
360,56	-11,579
360,77	75,926
360,99	-5,000
361,21	25,641
361,42	2,500
361,64	78,788
361,86	1,099
362,07	10,891
362,29	-350,000
362,51	59,259
362,72	12,500
362,94	107,500
363,16	63,768
363,37	48,438
363,59	68,132
363,81	-15,254
364,02	-69,697
364,24	7,692
364,46	12,000
364,67	-33,333
364,89	-33,784
365,11	-100,000
365,32	33,333
365,54	-178,261
365,76	66,250
365,97	27,143
366,19	22,807
366,41	20,000
366,62	45,714
366,84	50,000
367,05	87,500
367,27	68,182
367,49	106,061
367,70	46,739
367,92	29,114
368,14	62,366
368,35	3,704
368,57	2,222
368,79	-16,216
369,00	46,429
369,22	42,708
369,43	26,531
369,65	30,952
369,87	62,963
370,08	59,420
370,30	35,294
370,51	-8,397
370,73	20,635
370,95	14,433
371,16	7,576
371,38	27,397
371,60	6,977
371,81	44,211
372,03	-1,818
372,24	-39,474
372,46	16,667
372,68	3,797
372,89	-9,649
373,11	0,000
373,32	26,984
373,54	6,250
373,76	17,647
373,97	20,325
374,19	80,000
374,40	79,130
374,62	26,136
374,84	-1,942
375,05	42,105
375,27	-47,619
375,48	25,974
375,70	27,027
375,92	11,957
376,13	36,190
376,35	-42,683
376,56	21,154
376,78	11,538
376,99	-7,792
377,21	30,159
377,43	-12,500
377,64	5,085
377,86	-7,527
378,07	49,474
378,29	43,636
378,51	7,812
378,72	25,000
378,94	25,874
379,15	5,634
379,37	16,788
379,58	26,496
379,80	11,050
380,01	-1,000
380,23	8,209
380,45	19,000
380,66	15,972
380,88	4,118
381,09	-22,727
381,31	-2,941
381,52	4,054
381,74	7,547
381,95	-63,158
382,17	12,360
382,39	44,578
382,60	-11,511
382,82	14,184
383,03	-22,500
383,25	25,532
383,46	-1,739
383,68	-10,127
383,89	34,615
384,11	7,738
384,32	22,143
384,54	-29,524
384,76	41,040
384,97	31,250
385,19	-4,800
385,40	15,476
385,62	19,149
385,83	-0,645
386,05	28,671
386,26	26,984
386,48	22,727
386,69	-6,400
386,91	7,027
387,12	15,426
387,34	-6,630
387,55	6,863
387,77	22,460
387,98	30,556
388,20	19,643
388,41	35,341
388,63	9,048
388,84	4,027
389,06	-4,918
389,27	31,797
389,49	11,650
389,70	18,617
389,92	38,424
390,13	6,757
390,35	10,714
390,56	21,721
390,78	14,226
390,99	17,098
391,21	18,627
391,42	28,340
391,64	16,981
391,85	32,308
392,07	34,615
392,28	43,254
392,50	21,154
392,71	26,633
392,93	1,660
393,14	9,836
393,36	9,910
393,57	37,768
393,79	12,329
394,00	-4,706
394,22	8,543
394,43	8,370
394,65	33,610
394,86	15,970
395,08	10,405
395,29	-0,889
395,50	18,860
395,72	5,106
395,93	19,008
396,15	25,455
396,36	10,891
396,58	4,933
396,79	8,562
397,01	17,300
397,22	17,978
397,44	14,768
397,65	11,661
397,87	16,216
398,08	14,887
398,29	17,508
398,51	23,894
398,72	8,088
398,94	18,621
399,15	26,562
399,37	6,849
399,58	6,275
399,80	28,161
400,01	17,629
400,22	7,023
400,44	-1,674
400,65	8,667
400,87	15,359
401,08	12,795
401,30	11,263
401,51	22,472
401,72	-2,206
401,94	13,287
402,15	16,471
402,37	11,264
402,58	1,338
402,80	15,804
403,01	8,158
403,22	12,500
403,44	20,748
403,65	-6,294
403,87	4,923
404,08	9,539
404,30	10,112
404,51	-0,282
404,72	18,043
404,94	13,263
405,15	6,803
405,37	11,634
405,58	13,235
405,79	23,670
406,01	5,014
406,22	4,822
406,44	17,585
406,65	14,770
406,86	8,605
407,08	21,448
407,29	17,598
407,51	13,158
407,72	4,775
407,93	11,609
408,15	18,138
408,36	8,780
408,58	12,442
408,79	17,662
409,00	8,779
409,22	3,750
409,43	12,750
409,64	15,743
409,86	13,457
410,07	15,721
410,29	6,444
410,50	20,000
410,71	11,357
410,93	14,318
411,14	12,581
411,35	14,754
411,57	0,913
411,78	11,752
412,00	13,391
412,21	7,786
412,42	3,256
412,64	0,000
412,85	4,944
413,06	10,552
413,28	12,526
413,49	4,246
413,70	10,153
413,92	7,273
414,13	8,554
414,34	14,545
414,56	12,115
414,77	10,251
414,98	10,841
415,20	3,891
415,41	8,680
415,63	3,675
415,84	20,939
416,05	12,475
416,27	11,496
416,48	16,206
416,69	5,410
416,91	7,723
417,12	4,190
417,33	-1,124
417,55	3,220
417,76	18,805
417,97	11,265
418,19	5,805
418,40	2,083
418,61	12,500
418,83	5,431
419,04	7,909
419,25	16,667
419,46	7,050
419,68	11,774
419,89	7,597
420,10	15,480
420,32	8,346
420,53	4,397
420,74	4,530
420,96	9,673
421,17	14,263
421,38	11,127
421,60	10,658
421,81	-0,303
422,02	11,784
422,23	13,324
422,45	5,229
422,66	8,091
422,87	6,762
423,09	4,545
423,30	4,673
423,51	2,640
423,73	9,770
423,94	6,198
424,15	6,039
424,36	7,335
424,58	11,674
424,79	13,624
425,00	11,218
425,22	5,443
425,43	3,619
425,64	7,536
425,85	14,342
426,07	7,357
426,28	5,441
426,49	9,791
426,71	12,907
426,92	7,430
427,13	7,098
427,34	9,464
427,56	8,430
427,77	11,029
427,98	4,878
428,19	10,656
428,41	7,919
428,62	9,584
428,83	7,232
429,04	11,458
429,26	10,877
429,47	5,076
429,68	8,141
429,89	6,024
430,11	10,859
430,32	7,505
430,53	7,206
430,74	5,732
430,96	13,598
431,17	10,849
431,38	8,998
431,59	8,783
431,81	10,765
432,02	8,243
432,23	6,486
432,44	3,904
432,66	7,202
432,87	7,230
433,08	9,400
433,29	7,301
433,51	7,500
433,72	1,664
433,93	4,640
434,14	7,154
434,35	8,049
434,57	6,980
434,78	7,513
434,99	10,116
435,20	9,142
435,42	6,367
435,63	7,772
435,84	6,407
436,05	5,433
436,26	7,697
436,48	6,129
436,69	8,759
436,90	5,182
437,11	8,383
437,32	7,316
437,54	5,179
437,75	7,367
437,96	5,035
438,17	5,331
438,38	5,407
438,60	3,736
438,81	7,855
439,02	8,104
439,23	5,457
439,44	3,955
439,66	7,539
439,87	4,040
440,08	6,985
440,29	6,513
440,50	4,960
440,72	4,247
440,93	2,831
441,14	3,912
441,35	3,542
441,56	3,499
441,77	4,082
441,99	4,542
442,20	3,617
442,41	6,204
442,62	5,037
442,83	4,330
443,04	3,063
443,26	4,672
443,47	3,348
443,68	2,478
443,89	5,502
444,10	3,172
444,31	4,411
444,53	2,835
444,74	2,641
444,95	3,296
445,16	2,758
445,37	3,891
445,58	3,305
445,80	4,032
446,01	4,439
446,22	3,912
446,43	2,835
446,64	2,968
446,85	3,723
447,06	1,927
447,28	3,477
447,49	3,053
447,70	1,503
447,91	3,953
448,12	2,196
448,33	3,261
448,54	2,973
448,76	3,909
448,97	3,505
449,18	2,658
449,39	2,342
449,60	2,063
449,81	3,181
450,02	3,011
450,23	2,810
450,45	1,616
450,66	2,279
450,87	3,001
451,08	2,992
451,29	2,669
451,50	1,315
451,71	2,159
451,92	2,454
452,13	2,780
452,35	2,657
452,56	1,785
452,77	1,268
452,98	2,717
453,19	2,235
453,40	2,171
453,61	1,985
453,82	2,067
454,03	2,323
454,25	2,088
454,46	1,760
454,67	1,277
454,88	1,921
455,09	1,598
455,30	2,280
455,51	1,125
455,72	1,394
455,93	1,669
456,14	2,024
456,35	1,342
456,56	1,787
456,78	1,849
456,99	1,584
457,20	1,317
457,41	1,373
457,62	1,780
457,83	1,442
458,04	1,337
458,25	1,517
458,46	1,329
458,67	1,471
458,88	1,246
459,09	1,250
459,30	1,454
459,51	1,181
459,73	0,925
459,94	1,066
460,15	1,332
460,36	1,155
460,57	1,227
460,78	1,064
460,99	1,133
461,20	0,830
461,41	0,980
461,62	1,006
461,83	1,454
462,04	0,852
462,25	1,354
462,46	1,162
462,67	1,444
462,88	1,267
463,09	1,133
463,30	1,159
463,51	1,230
463,72	1,149
463,93	1,283
464,15	0,946
464,36	1,077
464,57	0,890
464,78	1,227
464,99	1,193
465,20	0,990
465,41	1,064
465,62	0,947
465,83	1,196
466,04	0,826
466,25	1,190
466,46	1,278
466,67	1,158
466,88	0,984
467,09	1,123
467,30	0,963
467,51	0,947
467,72	1,004
467,93	1,309
468,14	1,270
468,35	1,084
468,56	0,912
468,77	1,134
468,98	1,124
469,19	1,159
469,40	1,009
469,61	1,073
469,82	1,158
470,03	1,156
470,24	1,037
470,45	1,203
470,66	1,167
470,87	1,397
471,08	1,180
471,29	1,245
471,50	1,337
471,71	1,276
471,92	1,144
472,13	1,117
472,34	1,201
472,55	1,137
472,76	1,169
472,97	1,401
473,18	1,400
473,39	1,398
473,60	1,569
473,81	1,426
474,01	1,426
474,22	1,271
474,43	1,624
474,64	1,478
474,85	1,608
475,06	1,512
475,27	1,484
475,48	1,813
475,69	1,692
475,90	1,458
476,11	1,615
476,32	1,781
476,53	1,789
476,74	1,824
476,95	1,766
477,16	1,816
477,37	1,973
477,58	1,861
477,79	1,920
478,00	1,896
478,21	2,071
478,41	1,825
478,62	1,674
478,83	1,866
479,04	1,879
479,25	1,862
479,46	2,052
479,67	2,061
479,88	1,966
480,09	1,899
480,30	2,171
480,51	1,955
480,72	2,087
480,93	1,903
481,14	1,897
481,34	2,121
481,55	2,213
481,76	2,025
481,97	2,213
482,18	2,228
482,39	2,054
482,60	2,128
482,81	2,220
483,02	2,258
483,23	2,310
483,44	2,283
483,65	2,146
483,85	2,292
484,06	2,340
484,27	2,225
484,48	2,586
484,69	2,368
484,90	2,624
485,11	2,366
485,32	2,108
485,53	2,525
485,73	2,477
485,94	2,288
486,15	2,175
486,36	2,254
486,57	2,559
486,78	2,300
486,99	2,596
487,20	2,781
487,41	2,404
487,61	2,680
487,82	2,366
488,03	2,380
488,24	2,215
488,45	2,341
488,66	2,555
488,87	2,798
489,08	2,412
489,28	2,534
489,49	2,424
489,70	2,787
489,91	2,612
490,12	2,405
490,33	2,429
490,54	2,669
490,74	2,579
490,95	2,664
491,16	2,704
491,37	2,581
491,58	2,818
491,79	2,783
492,00	2,718
492,20	2,792
492,41	2,783
492,62	2,640
492,83	2,801
493,04	2,935
493,25	2,827
493,45	2,863
493,66	2,856
493,87	2,807
494,08	2,824
494,29	2,751
494,50	2,843
494,70	2,690
494,91	2,690
495,12	2,766
495,33	2,860
495,54	3,054
495,75	2,879
495,95	2,856
496,16	3,031
496,37	2,898
496,58	2,844
496,79	2,798
496,99	2,790
497,20	3,087
497,41	2,893
497,62	2,976
497,83	3,071
498,04	3,120
498,24	3,072
498,45	3,196
498,66	3,092
498,87	3,047
499,08	3,379
499,28	3,061
499,49	3,019
499,70	3,086
499,91	3,023
500,12	2,722
500,32	2,955
500,53	2,999
500,74	3,376
500,95	3,292
501,15	3,352
501,36	3,160
501,57	2,987
501,78	3,232
501,99	2,867
502,19	2,965
502,40	3,138
502,61	3,304
502,82	3,169
503,02	3,353
503,23	3,219
503,44	3,221
503,65	3,402
503,86	3,365
504,06	3,217
504,27	3,433
504,48	3,432
504,69	3,554
504,89	3,075
505,10	3,313
505,31	3,336
505,52	3,504
505,72	3,374
505,93	3,653
506,14	3,704
506,35	3,549
506,55	3,071
506,76	3,562
506,97	3,630
507,18	3,611
507,38	3,451
507,59	3,595
507,80	3,695
508,01	3,482
508,21	3,601
508,42	3,592
508,63	3,557
508,84	3,562
509,04	3,958
509,25	3,620
509,46	3,657
509,67	3,463
509,87	3,674
510,08	3,491
510,29	3,612
510,49	3,529
510,70	3,727
510,91	3,916
511,12	3,597
511,32	3,601
511,53	3,674
511,74	3,705
511,94	3,713
512,15	3,729
512,36	3,954
512,57	3,897
512,77	3,975
512,98	3,684
513,19	3,692
513,39	3,899
513,60	3,817
513,81	3,999
514,01	3,848
514,22	3,676
514,43	3,976
514,64	3,983
514,84	4,037
515,05	3,832
515,26	3,707
515,46	3,977
515,67	4,257
515,88	4,019
516,08	4,160
516,29	4,104
516,50	3,951
516,70	4,235
516,91	4,317
517,12	4,207
517,32	4,042
517,53	4,182
517,74	4,458
517,95	4,403
518,15	4,236
518,36	4,071
518,57	4,004
518,77	4,270
518,98	4,419
519,19	4,804
519,39	4,333
519,60	4,541
519,80	4,437
520,01	4,532
520,22	4,242
520,42	4,162
520,63	4,238
520,84	4,253
521,04	4,565
521,25	4,415
521,46	4,323
521,66	4,318
521,87	4,609
522,08	4,404
522,28	4,574
522,49	5,021
522,70	4,433
522,90	4,742
523,11	4,653
523,31	4,769
523,52	4,682
523,73	4,534
523,93	5,259
524,14	4,825
524,35	5,117
524,55	5,310
524,76	5,085
524,97	4,770
525,17	4,902
525,38	5,116
525,58	5,227
525,79	5,244
526,00	5,299
526,20	5,596
526,41	5,142
526,61	5,267
526,82	5,054
527,03	5,629
527,23	5,287
527,44	5,277
527,64	5,626
527,85	5,650
528,06	5,534
528,26	5,195
528,47	5,602
528,68	5,181
528,88	5,398
529,09	5,733
529,29	5,345
529,50	5,462
529,70	5,279
529,91	5,472
530,12	5,441
530,32	5,740
530,53	5,677
530,73	5,442
530,94	5,407
531,15	5,836
531,35	5,674
531,56	6,005
531,76	5,726
531,97	5,772
532,17	6,005
532,38	6,224
532,59	5,855
532,79	5,979
533,00	5,946
533,20	6,080
533,41	6,003
533,61	6,073
533,82	6,181
534,03	5,729
534,23	6,041
534,44	6,312
534,64	6,361
534,85	6,355
535,05	6,244
535,26	6,061
535,46	6,310
535,67	6,005
535,88	6,677
536,08	6,621
536,29	6,482
536,49	6,495
536,70	6,781
536,90	6,748
537,11	6,558
537,31	6,374
537,52	6,894
537,72	6,947
537,93	6,529
538,13	6,651
538,34	6,644
538,55	6,699
538,75	6,998
538,96	6,761
539,16	6,216
539,37	6,344
539,57	6,179
539,78	6,155
539,98	6,633
540,19	6,726
540,39	6,760
540,60	7,042
540,80	6,696
541,01	7,371
541,21	6,660
541,42	6,667
541,62	6,821
541,83	6,905
542,03	6,632
542,24	6,867
542,44	6,722
542,65	6,918
542,85	7,104
543,06	6,672
543,26	7,381
543,47	7,539
543,67	7,055
543,88	7,556
544,08	7,123
544,29	7,055
544,49	7,269
544,70	7,117
544,90	7,157
545,11	6,981
545,31	7,448
545,52	7,273
545,72	7,420
545,93	7,632
546,13	6,972
546,34	7,644
546,54	7,654
546,75	6,827
546,95	6,908
547,15	7,693
547,36	7,206
547,56	7,396
547,77	7,378
547,97	7,893
548,18	7,512
548,38	7,960
548,59	7,969
548,79	7,207
549,00	7,813
549,20	7,657
549,41	7,870
549,61	7,796
549,81	7,963
550,02	7,909
550,22	7,927
550,43	7,513
550,63	7,834
550,84	8,040
551,04	7,518
551,25	7,954
551,45	7,907
551,65	7,763
551,86	7,719
552,06	7,962
552,27	7,794
552,47	7,870
552,68	8,114
552,88	8,029
553,08	7,876
553,29	7,875
553,49	8,136
553,70	7,869
553,90	8,058
554,11	7,979
554,31	8,099
554,51	8,445
554,72	8,286
554,92	7,994
555,13	8,680
555,33	8,161
555,53	7,796
555,74	8,126
555,94	8,303
556,15	8,194
556,35	8,098
556,56	8,426
556,76	7,982
556,96	8,387
557,17	7,683
557,37	7,909
557,58	8,452
557,78	8,102
557,98	7,743
558,19	7,928
558,39	8,206
558,59	8,185
558,80	7,836
559,00	8,712
559,21	8,408
559,41	8,320
559,61	8,537
559,82	8,318
560,02	7,864
560,23	8,602
560,43	8,399
560,63	8,275
560,84	7,840
561,04	8,233
561,24	7,844
561,45	8,265
561,65	8,078
561,85	8,453
562,06	8,099
562,26	8,143
562,47	8,242
562,67	8,433
562,87	8,377
563,08	8,688
563,28	8,517
563,48	8,354
563,69	8,421
563,89	8,537
564,09	8,242
564,30	8,338
564,50	8,254
564,70	8,270
564,91	8,399
565,11	8,197
565,31	8,300
565,52	8,514
565,72	8,245
565,92	8,539
566,13	8,526
566,33	8,489
566,53	8,331
566,74	8,280
566,94	7,942
567,14	8,018
567,35	8,243
567,55	8,151
567,75	8,287
567,96	8,154
568,16	8,484
568,36	8,742
568,57	8,404
568,77	8,475
568,97	8,233
569,18	8,279
569,38	8,511
569,58	8,504
569,79	8,437
569,99	8,936
570,19	8,202
570,39	8,458
570,60	8,841
570,80	8,692
571,00	8,424
571,21	8,200
571,41	8,423
571,61	8,182
571,82	8,888
572,02	8,831
572,22	8,740
572,42	8,445
572,63	8,573
572,83	8,004
573,03	8,176
573,24	7,977
573,44	8,286
573,64	8,343
573,84	8,036
574,05	8,309
574,25	8,073
574,45	8,346
574,66	8,255
574,86	8,387
575,06	8,106
575,26	8,731
575,47	8,519
575,67	8,818
575,87	8,556
576,07	8,390
576,28	8,469
576,48	8,563
576,68	8,480
576,88	8,317
577,09	8,403
577,29	8,076
577,49	7,998
577,69	8,753
577,90	8,372
578,10	8,087
578,30	7,962
578,50	7,902
578,71	8,687
578,91	8,258
579,11	8,576
579,31	8,036
579,52	8,122
579,72	8,434
579,92	7,811
580,12	8,426
580,33	8,076
580,53	8,348
580,73	8,060
580,93	8,063
581,13	8,502
581,34	8,192
581,54	8,123
581,74	8,561
581,94	8,382
582,15	8,328
582,35	8,540
582,55	8,270
582,75	8,048
582,95	7,933
583,16	7,973
583,36	7,780
583,56	8,102
583,76	7,975
583,96	8,173
584,17	7,990
584,37	8,192
584,57	8,421
584,77	8,115
584,97	7,897
585,18	8,061
585,38	7,782
585,58	7,990
585,78	8,049
585,98	7,941
586,19	7,633
586,39	8,322
586,59	8,110
586,79	7,778
586,99	7,989
587,20	8,273
587,40	8,007
587,60	7,568
587,80	7,451
588,00	7,892
588,20	7,768
588,41	7,896
588,61	7,643
588,81	7,597
589,01	7,899
589,21	7,652
589,41	7,703
589,62	7,671
589,82	7,864
590,02	7,579
590,22	7,517
590,42	7,813
590,62	7,657
590,83	7,775
591,03	7,659
591,23	7,742
591,43	7,625
591,63	7,444
591,83	7,632
592,03	7,222
592,24	7,317
592,44	7,501
592,64	7,408
592,84	7,329
593,04	7,321
593,24	7,077
593,44	7,344
593,65	7,365
593,85	7,145
594,05	6,929
594,25	7,126
594,45	7,062
594,65	7,018
594,85	7,497
595,06	6,932
595,26	7,190
595,46	7,181
595,66	7,540
595,86	7,449
596,06	7,247
596,26	7,082
596,46	6,988
596,66	7,288
596,87	7,108
597,07	7,320
597,27	6,999
597,47	6,924
597,67	7,140
597,87	7,282
598,07	7,211
598,27	7,480
598,47	7,149
598,67	7,277
598,88	6,925
599,08	7,441
599,28	7,624
599,48	7,761
599,68	7,773
599,88	7,725
600,08	7,424
600,28	7,981
600,48	7,499
600,68	7,864
600,88	7,743
601,09	8,043
601,29	7,863
601,49	8,039
601,69	7,829
601,89	8,267
602,09	7,953
602,29	8,102
602,49	8,083
602,69	8,490
602,89	8,400
603,09	8,381
603,29	8,068
603,49	8,340
603,69	8,131
603,90	8,337
604,10	8,189
604,30	8,019
604,50	8,325
604,70	8,182
604,90	8,157
605,10	8,228
605,30	8,199
605,50	8,180
605,70	8,407
605,90	8,678
606,10	8,901
606,30	8,567
606,50	8,563
606,70	8,648
606,90	8,335
607,10	8,836
607,30	8,665
607,50	8,597
607,70	8,737
607,90	8,715
608,10	8,316
608,30	8,333
608,50	8,384
608,70	8,548
608,90	8,591
609,11	8,556
609,31	8,711
609,51	9,058
609,71	8,574
609,91	8,516
610,11	8,263
610,31	8,765
610,51	8,253
610,71	8,376
610,91	8,500
611,11	8,807
611,31	8,498
611,51	8,431
611,71	8,780
611,91	8,681
612,11	8,654
612,31	8,710
612,51	8,923
612,71	9,111
612,91	9,341
613,11	8,871
613,31	8,442
613,51	8,718
613,71	8,911
613,91	8,420
614,11	8,718
614,31	8,889
614,50	8,943
614,70	8,570
614,90	8,701
615,10	8,885
615,30	8,191
615,50	8,889
615,70	8,528
615,90	8,489
616,10	8,693
616,30	8,428
616,50	8,904
616,70	8,944
616,90	8,745
617,10	8,791
617,30	8,495
617,50	8,821
617,70	8,726
617,90	8,489
618,10	8,602
618,30	8,760
618,50	8,312
618,70	8,812
618,90	9,050
619,10	8,791
619,30	8,748
619,49	8,946
619,69	9,028
619,89	8,774
620,09	8,749
620,29	8,710
620,49	8,910
620,69	9,213
620,89	9,275
621,09	8,833
621,29	9,108
621,49	9,440
621,69	8,834
621,89	8,909
622,09	8,843
622,29	9,220
622,48	9,027
622,68	8,845
622,88	8,776
623,08	9,048
623,28	8,889
623,48	9,066
623,68	9,006
623,88	9,108
624,08	9,206
624,28	8,896
624,48	9,152
624,67	8,597
624,87	9,171
625,07	9,178
625,27	8,897
625,47	8,982
625,67	8,806
625,87	9,247
626,07	9,178
626,27	9,070
626,47	8,904
626,66	9,069
626,86	9,347
627,06	8,950
627,26	9,120
627,46	9,331
627,66	9,171
627,86	9,670
628,06	9,206
628,25	8,892
628,45	8,973
628,65	9,179
628,85	8,939
629,05	9,262
629,25	9,176
629,45	9,177
629,65	9,721
629,84	9,312
630,04	9,364
630,24	9,173
630,44	9,312
630,64	9,509
630,84	9,639
631,04	9,707
631,23	9,649
631,43	9,222
631,63	9,243
631,83	8,863
632,03	9,419
632,23	9,189
632,42	9,337
632,62	9,146
632,82	9,221
633,02	9,316
633,22	9,193
633,42	9,394
633,62	9,395
633,81	9,494
634,01	9,503
634,21	9,461
634,41	9,705
634,61	9,497
634,80	9,549
635,00	9,505
635,20	9,867
635,40	9,868
635,60	9,673
635,80	9,870
635,99	9,516
636,19	9,677
636,39	9,896
636,59	10,131
636,79	9,837
636,98	9,944
637,18	9,974
637,38	9,953
637,58	10,045
637,78	10,588
637,97	10,488
638,17	10,688
638,37	11,139
638,57	10,616
638,77	11,284
638,96	11,156
639,16	11,155
639,36	11,110
639,56	11,072
639,76	11,581
639,95	11,581
640,15	11,854
640,35	12,170
640,55	12,029
640,75	12,506
640,94	12,353
641,14	12,536
641,34	12,759
641,54	12,530
641,73	13,052
641,93	13,391
642,13	13,479
642,33	13,395
642,53	13,859
642,72	14,729
642,92	14,686
643,12	15,397
643,32	15,994
643,51	17,170
643,71	18,397
643,91	20,479
644,11	22,949
644,30	26,131
644,50	30,003
644,70	34,209
644,90	38,545
645,09	44,165
645,29	49,356
645,49	54,298
645,69	59,403
645,88	62,506
646,08	66,301
646,28	69,155
646,48	71,438
646,67	75,135
646,87	77,158
647,07	78,789
647,26	82,352
647,46	83,766
647,66	84,738
647,86	85,557
648,05	87,472
648,25	88,286
648,45	88,131
648,65	88,626
648,84	87,370
649,04	89,022
649,24	90,168
649,43	89,084
649,63	88,798
649,83	89,909
650,03	89,733
650,22	89,615
650,42	88,959
650,62	89,710
650,81	89,746
651,01	90,596
651,21	90,261
651,40	90,654
651,60	90,658
651,80	91,149
652,00	90,334
652,19	90,622
652,39	89,289
652,59	88,995
652,78	90,875
652,98	90,078
653,18	90,882
653,37	89,429
653,57	89,454
653,77	89,534
653,96	88,848
654,16	89,140
654,36	87,739
654,55	87,994
654,75	86,305
654,95	86,087
655,14	85,527
655,34	84,391
655,54	83,458
655,73	80,548
655,93	78,726
656,13	75,419
656,32	71,076
656,52	67,208
656,72	62,935
656,91	59,093
657,11	54,006
657,31	49,838
657,50	45,732
657,70	41,645
657,90	37,533
658,09	34,151
658,29	31,620
658,49	27,483
658,68	24,643
658,88	22,366
659,07	20,027
659,27	18,271
659,47	16,671
659,66	14,578
659,86	13,804
660,06	12,742
660,25	12,258
660,45	11,618
660,64	11,366
660,84	10,864
661,04	10,716
661,23	10,543
661,43	10,159
661,63	9,674
661,82	9,923
662,02	9,649
662,21	9,463
662,41	9,825
662,61	9,733
662,80	9,546
663,00	9,222
663,19	9,228
663,39	9,358
663,59	9,586
663,78	9,585
663,98	9,568
664,17	9,272
664,37	9,334
664,57	9,365
664,76	9,414
664,96	9,507
665,15	9,309
665,35	9,272
665,55	8,948
665,74	9,535
665,94	9,234
666,13	9,275
666,33	9,452
666,53	9,296
666,72	9,388
666,92	9,029
667,11	9,457
667,31	9,441
667,50	9,504
667,70	9,269
667,90	8,967
668,09	9,066
668,29	8,861
668,48	8,859
668,68	9,239
668,87	8,951
669,07	8,791
669,26	8,874
669,46	9,055
669,66	8,682
669,85	9,139
670,05	8,748
670,24	8,587
670,44	8,608
670,63	8,684
670,83	8,998
671,02	8,659
671,22	9,090
671,42	8,939
671,61	9,070
671,81	9,375
672,00	9,107
672,20	8,958
672,39	9,235
672,59	9,382
672,78	8,957
672,98	8,759
673,17	9,151
673,37	9,138
673,56	9,020
673,76	8,955
673,95	9,136
674,15	9,027
674,34	8,944
674,54	8,772
674,73	8,701
674,93	8,896
675,13	8,947
675,32	8,650
675,52	8,563
675,71	8,591
675,91	9,207
676,10	8,713
676,30	9,153
676,49	9,213
676,69	9,137
676,88	8,887
677,08	8,774
677,27	8,536
677,47	9,127
677,66	8,946
677,86	8,988
678,05	8,938
678,24	8,783
678,44	9,023
678,63	9,260
678,83	9,046
679,02	9,051
679,22	9,157
679,41	8,956
679,61	9,170
679,80	8,821
680,00	9,022
680,19	8,797
680,39	8,806
680,58	8,932
680,78	8,943
680,97	9,291
681,17	8,875
681,36	9,074
681,56	8,833
681,75	8,917
681,94	9,243
682,14	8,865
682,33	9,001
682,53	8,673
682,72	8,960
682,92	9,217
683,11	9,059
683,31	9,260
683,50	9,045
683,69	8,998
683,89	8,958
684,08	8,926
684,28	8,822
684,47	8,688
684,67	8,752
684,86	8,707
685,06	8,483
685,25	8,941
685,44	8,728
685,64	8,800
685,83	9,202
686,03	8,849
686,22	8,697
686,42	9,020
686,61	8,922
686,80	8,666
687,00	8,974
687,19	8,616
687,39	9,134
687,58	8,685
687,77	8,981
687,97	9,021
688,16	8,807
688,36	9,050
688,55	9,151
688,74	9,008
688,94	8,651
689,13	9,125
689,33	8,821
689,52	9,164
689,71	9,112
689,91	8,802
690,10	8,594
690,30	8,911
690,49	8,762
690,68	8,738
690,88	9,105
691,07	9,064
691,27	9,049
691,46	8,869
691,65	8,679
691,85	8,778
692,04	8,657
692,23	9,177
692,43	8,723
692,62	9,130
692,82	8,874
693,01	8,797
693,20	8,398
693,40	8,556
693,59	8,568
693,78	9,129
693,98	9,023
694,17	8,492
694,36	8,746
694,56	8,661
694,75	8,439
694,94	8,950
695,14	9,214
695,33	9,039
695,53	8,949
695,72	8,780
695,91	9,193
696,11	8,988
696,30	8,738
696,49	8,924
696,69	8,569
696,88	8,776
697,07	8,881
697,27	8,958
697,46	8,981
697,65	8,987
697,85	8,678
698,04	9,388
698,23	9,262
698,43	9,092
698,62	9,104
698,81	8,876
699,01	8,910
699,20	8,862
699,39	8,730
699,58	8,933
699,78	8,743
699,97	8,691
700,16	8,675
700,36	8,410
700,55	8,775
700,74	8,458
700,94	9,151
701,13	8,947
701,32	8,790
701,52	8,442
701,71	8,892
701,90	9,064
702,09	9,377
702,29	9,175
702,48	9,179
702,67	9,241
702,87	8,836
703,06	9,145
703,25	8,910
703,44	8,946
703,64	8,988
703,83	8,913
704,02	9,030
704,22	8,880
704,41	9,088
704,60	9,165
704,79	9,163
704,99	9,293
705,18	8,710
705,37	9,132
705,56	8,986
705,76	8,936
705,95	9,027
706,14	8,987
706,33	8,912
706,53	9,168
706,72	9,043
706,91	9,106
707,11	8,843
707,30	9,050
707,49	8,874
707,68	8,922
707,88	8,728
708,07	8,840
708,26	8,844
708,45	8,571
708,64	9,094
708,84	9,034
709,03	8,397
709,22	8,910
709,41	9,365
709,61	9,118
709,80	9,295
709,99	9,310
710,18	9,104
710,38	9,134
710,57	9,129
710,76	9,116
710,95	9,297
711,14	9,185
711,34	8,615
711,53	9,036
711,72	9,124
711,91	9,104
712,11	8,927
712,30	9,138
712,49	8,807
712,68	8,422
712,87	9,126
713,07	8,907
713,26	8,796
713,45	8,817
713,64	9,370
713,83	9,192
714,03	8,907
714,22	9,225
714,41	9,333
714,60	9,539
714,79	8,969
714,99	9,226
715,18	9,119
715,37	9,070
715,56	9,170
715,75	9,493
715,94	9,376
716,14	9,288
716,33	9,243
716,52	9,192
716,71	8,832
716,90	9,044
717,10	8,713
717,29	8,997
717,48	9,187
717,67	9,235
717,86	9,341
718,05	9,307
718,24	9,034
718,44	9,061
718,63	8,975
718,82	9,202
719,01	9,095
719,20	8,945
719,39	9,068
719,59	8,939
719,78	8,845
719,97	9,290
720,16	8,990
720,35	8,847
720,54	9,191
720,73	9,196
720,93	9,190
721,12	9,195
721,31	9,165
721,50	9,276
721,69	9,175
721,88	8,802
722,07	9,142
722,27	9,517
722,46	9,138
722,65	9,348
722,84	9,246
723,03	8,683
723,22	9,040
723,41	8,952
723,60	9,401
723,79	9,310
723,99	9,199
724,18	9,242
724,37	9,429
724,56	9,185
724,75	8,958
724,94	9,648
725,13	9,375
725,32	8,882
725,51	9,291
725,71	9,797
725,90	9,287
726,09	9,021
726,28	9,058
726,47	9,042
726,66	9,096
726,85	9,331
727,04	8,908
727,23	8,866
727,42	8,853
727,61	8,678
727,81	8,670
728,00	9,218
728,19	8,917
728,38	8,833
728,57	9,151
728,76	9,078
728,95	9,285
729,14	9,100
729,33	9,144
729,52	8,839
729,71	9,111
729,90	9,359
730,09	9,283
730,28	9,120
730,48	9,082
730,67	9,649
730,86	8,912
731,05	9,214
731,24	9,321
731,43	9,139
731,62	9,522
731,81	9,126
732,00	9,298
732,19	9,289
732,38	8,681
732,57	9,091
732,76	8,968
732,95	9,242
733,14	9,003
733,33	8,939
733,52	8,889
733,71	8,995
733,90	8,659
734,09	9,181
734,28	9,190
734,47	8,914
734,66	8,768
734,85	9,007
735,04	9,193
735,23	8,715
735,42	9,145
735,61	9,124
735,81	9,223
736,00	9,233
736,19	9,265
736,38	8,923
736,57	8,638
736,76	9,033
736,95	8,908
737,14	8,674
737,33	8,936
737,52	8,859
737,71	9,009
737,90	8,996
738,09	9,215
738,28	9,084
738,47	9,353
738,66	9,507
738,85	9,080
739,04	9,068
739,22	9,221
739,41	9,055
739,60	9,054
739,79	9,202
739,98	8,933
740,17	8,914
740,36	9,210
740,55	8,832
740,74	8,775
740,93	8,838
741,12	9,407
741,31	9,110
741,50	9,477
741,69	9,664
741,88	9,643
742,07	9,378
742,26	9,794
742,45	9,327
742,64	9,506
742,83	9,504
743,02	9,258
743,21	9,187
743,40	9,205
743,59	9,432
743,78	9,282
743,97	9,483
744,16	9,274
744,34	8,932
744,53	9,303
744,72	9,411
744,91	9,072
745,10	9,166
745,29	9,305
745,48	9,113
745,67	9,281
745,86	9,305
746,05	9,340
746,24	9,099
746,43	9,104
746,62	9,380
746,81	10,034
747,00	9,486
747,18	9,674
747,37	9,281
747,56	9,219
747,75	9,343
747,94	9,253
748,13	9,255
748,32	9,178
748,51	9,695
748,70	9,324
748,89	9,468
749,08	9,251
749,26	8,934
749,45	9,012
749,64	9,602
749,83	9,421
750,02	9,157
750,21	9,191
750,40	9,173
750,59	9,308
750,78	9,151
750,96	9,827
751,15	9,558
751,34	9,271
751,53	10,145
751,72	9,642
751,91	8,984
752,10	9,288
752,29	9,574
752,47	9,626
752,66	9,297
752,85	9,738
753,04	10,107
753,23	9,466
753,42	9,325
753,61	9,485
753,80	9,724
753,98	9,692
754,17	9,621
754,36	9,626
754,55	9,535
754,74	9,846
754,93	9,648
755,12	9,623
755,30	9,395
755,49	9,516
755,68	9,118
755,87	10,164
756,06	9,932
756,25	9,537
756,43	10,225
756,62	10,080
756,81	10,138
757,00	9,947
757,19	9,669
757,38	9,798
757,56	9,496
757,75	9,711
757,94	9,638
758,13	9,341
758,32	9,637
758,51	9,361
758,69	9,592
758,88	10,092
759,07	10,065
759,26	10,045
759,45	10,238
759,63	10,181
759,82	10,538
760,01	9,840
760,20	9,962
760,39	10,251
760,57	9,922
760,76	10,387
760,95	10,181
761,14	10,373
761,33	10,338
761,51	10,350
761,70	10,504
761,89	10,659
762,08	10,551
762,27	10,271
762,45	10,597
762,64	11,044
762,83	10,672
763,02	11,422
763,21	11,348
763,39	11,540
763,58	11,766
763,77	12,056
763,96	12,135
764,14	11,736
764,33	12,621
764,52	13,236
764,71	12,870
764,89	12,968
765,08	13,161
765,27	13,314
765,46	13,738
765,65	14,232
765,83	14,362
766,02	14,483
766,21	14,465
766,40	14,936
766,58	15,510
766,77	15,274
766,96	15,462
767,15	16,767
767,33	15,634
767,52	16,283
767,71	16,161
767,90	15,798
768,08	16,086
768,27	16,553
768,46	16,608
768,64	16,407
768,83	16,836
769,02	17,201
769,21	17,890
769,39	18,166
769,58	18,165
769,77	18,529
769,96	19,090
770,14	19,033
770,33	20,132
770,52	20,438
770,70	21,586
770,89	21,584
771,08	23,093
771,27	24,700
771,45	25,375
771,64	26,702
771,83	28,770
772,01	30,315
772,20	31,883
772,39	34,713
772,57	37,320
772,76	39,577
772,95	42,376
773,14	46,179
773,32	48,943
773,51	53,104
773,70	57,264
773,88	60,229
774,07	64,315
774,26	67,567
774,44	69,931
774,63	73,684
774,82	78,408
775,00	79,085
775,19	81,987
775,38	83,445
775,56	84,776
775,75	87,099
775,94	87,578
776,12	88,807
776,31	89,097
776,50	90,820
776,68	90,646
776,87	91,722
777,06	92,818
777,24	93,264
777,43	92,465
777,62	92,679
777,80	94,040
777,99	95,001
778,18	92,918
778,36	95,089
778,55	95,199
778,74	95,265
778,92	95,153
779,11	96,454
779,29	94,215
779,48	95,173
779,67	95,501
779,85	97,784
780,04	96,158
780,23	96,350
780,41	96,168
780,60	97,128
780,79	95,735
780,97	98,589
781,16	97,288
781,34	96,897
781,53	97,550
781,72	98,001
781,90	99,324
782,09	99,053
782,28	100,960
782,46	99,046
782,65	99,867
782,83	98,175
783,02	98,319
783,21	99,559
783,39	98,474
783,58	99,142
783,76	98,024
783,95	96,954
784,14	95,092
784,32	95,967
784,51	96,100
784,69	93,724
784,88	94,275
785,06	94,845
785,25	90,574
785,44	91,317
785,62	89,480
785,81	86,341
785,99	85,349
786,18	81,818
786,37	81,222
786,55	78,422
786,74	75,274
786,92	73,854
787,11	69,374
787,29	67,419
787,48	63,996
787,67	62,644
787,85	58,301
788,04	55,162
788,22	52,135
788,41	49,096
788,59	46,270
788,78	43,502
788,96	40,980
789,15	38,388
789,34	35,583
789,52	34,253
789,71	31,580
789,89	29,617
790,08	27,081
790,26	25,849
790,45	23,894
790,63	23,308
790,82	21,385
791,00	19,989
791,19	18,696
791,38	17,438
791,56	16,864
791,75	15,812
791,93	15,017
792,12	14,685
792,30	12,958
792,49	13,755
792,67	12,288
792,86	11,570
793,04	11,996
793,23	11,057
793,41	10,852
793,60	11,202
793,78	11,211
793,97	11,173
794,15	10,493
794,34	10,392
794,52	11,023
794,71	10,551
794,89	10,391
795,08	10,331
795,26	10,158
795,45	10,492
795,63	9,969
795,82	9,976
796,00	9,935
796,19	10,358
796,37	9,553
796,56	8,815
796,74	9,908
796,93	9,391
797,11	9,937
797,30	9,075
797,48	9,646
797,67	9,533
797,85	9,291
798,04	9,822
798,22	9,574
798,41	9,821
798,59	9,637
798,77	9,406
798,96	9,746
799,14	9,706
799,33	9,667
799,51	9,005
799,70	9,946
799,88	9,049
800,07	9,264
800,25	9,704
800,44	8,952
800,62	8,809
800,80	9,414
800,99	9,380
801,17	9,359
801,36	9,364
801,54	9,379
801,73	9,267
801,91	9,493
802,10	9,325
802,28	9,491
802,46	9,756
802,65	9,838
802,83	9,533
803,02	9,381
803,20	9,380
803,39	9,581
803,57	9,365
803,75	9,390
803,94	9,731
804,12	9,704
804,31	9,353
804,49	9,604
804,67	9,595
804,86	9,165
805,04	9,009
805,23	9,560
805,41	9,243
805,59	9,413
805,78	9,585
805,96	9,842
806,15	9,611
806,33	8,967
806,51	9,354
806,70	8,925
806,88	9,443
807,07	9,294
807,25	9,207
807,43	8,573
807,62	9,181
807,80	9,035
807,99	9,572
808,17	8,932
808,35	9,633
808,54	8,780
808,72	9,639
808,90	9,303
809,09	9,292
809,27	9,488
809,46	9,675
809,64	9,163
809,82	9,207
810,01	10,056
810,19	9,071
810,37	8,866
810,56	8,662
810,74	8,953
810,92	8,978
811,11	9,049
811,29	9,302
811,48	9,187
811,66	9,512
811,84	9,498
812,03	9,296
812,21	8,968
812,39	8,926
812,58	9,092
812,76	9,441
812,94	9,278
813,13	8,909
813,31	9,808
813,49	9,822
813,68	9,270
813,86	9,425
814,04	8,978
814,23	8,860
814,41	9,138
814,59	8,711
814,78	8,651
814,96	8,840
815,14	9,081
815,33	8,878
815,51	9,168
815,69	8,901
815,87	8,961
816,06	8,825
816,24	9,318
816,42	9,407
816,61	9,046
816,79	9,170
816,97	9,524
817,16	9,448
817,34	8,803
817,52	9,616
817,70	9,073
817,89	8,739
818,07	9,004
818,25	8,437
818,44	9,155
818,62	8,595
818,80	9,638
818,98	8,625
819,17	9,310
819,35	8,948
819,53	9,115
819,72	8,901
819,90	9,239
820,08	9,144
820,26	9,482
820,45	9,830
820,63	9,667
820,81	9,250
820,99	9,138
821,18	8,808
821,36	8,943
821,54	9,048
821,73	9,253
821,91	8,623
822,09	9,084
822,27	9,495
822,46	8,875
822,64	8,689
822,82	8,800
823,00	8,846
823,19	8,870
823,37	9,580
823,55	9,365
823,73	9,156
823,91	8,856
824,10	9,051
824,28	8,524
824,46	8,983
824,64	8,999
824,83	9,324
825,01	9,602
825,19	8,755
825,37	9,482
825,56	8,957
825,74	9,341
825,92	9,091
826,10	9,347
826,28	9,532
826,47	8,631
826,65	9,245
826,83	9,258
827,01	9,523
827,19	9,578
827,38	9,449
827,56	9,744
827,74	9,337
827,92	9,049
828,10	9,244
828,29	9,222
828,47	8,531
828,65	9,039
828,83	9,453
829,01	8,820
829,20	8,898
829,38	9,379
829,56	8,469
829,74	8,934
829,92	9,133
830,10	9,273
830,29	8,782
830,47	8,612
830,65	8,674
830,83	9,122
831,01	9,080
831,20	8,832
831,38	9,185
831,56	9,297
831,74	9,232
831,92	9,332
832,10	9,698
832,29	9,841
832,47	9,569
832,65	9,158
832,83	9,157
833,01	9,095
833,19	9,191
833,37	9,093
833,56	9,627
833,74	9,705
833,92	8,872
834,10	9,585
834,28	9,297
834,46	9,224
834,64	9,399
834,83	8,592
835,01	9,351
835,19	9,101
835,37	9,433
835,55	9,005
835,73	9,195
835,91	8,960
836,09	9,232
836,28	9,233
836,46	9,042
836,64	8,867
836,82	8,631
837,00	8,770
837,18	9,049
837,36	9,307
837,54	9,099
837,72	8,917
837,91	8,914
838,09	9,398
838,27	9,345
838,45	8,898
838,63	9,109
838,81	9,046
838,99	9,311
839,17	9,770
839,35	9,066
839,53	9,766
839,72	9,644
839,90	9,086
840,08	9,756
840,26	9,177
840,44	9,474
840,62	9,691
840,80	9,719
840,98	9,262
841,16	9,381
841,34	9,732
841,52	9,515
841,70	9,645
841,89	8,991
842,07	9,481
842,25	9,147
842,43	8,628
842,61	9,240
842,79	8,857
842,97	8,656
843,15	9,964
843,33	9,195
843,51	8,937
843,69	9,114
843,87	8,550
844,05	9,587
844,23	9,712
844,41	9,353
844,59	8,910
844,77	9,202
844,95	9,415
845,13	9,081
845,31	8,382
845,50	9,458
845,68	9,510
845,86	8,808
846,04	9,233
846,22	9,286
846,40	9,361
846,58	9,392
846,76	9,060
846,94	9,649
847,12	9,023
847,30	9,205
847,48	9,280
847,66	9,365
847,84	9,093
848,02	9,302
848,20	9,225
848,38	9,568
848,56	9,110
848,74	9,231
848,92	8,678
849,10	8,844
849,28	8,897
849,46	8,982
849,64	8,612
849,82	8,987
850,00	9,220
850,18	9,061
850,36	9,455
850,54	9,292
850,72	9,434
850,90	9,698
851,08	9,075
851,26	9,230
851,44	9,849
851,62	9,108
851,80	8,902
851,98	9,183
852,16	8,754
852,34	9,125
852,52	8,585
852,70	8,924
852,87	9,469
853,05	9,466
853,23	9,690
853,41	9,155
853,59	9,061
853,77	8,529
853,95	9,148
854,13	9,063
854,31	9,426
854,49	9,103
854,67	9,302
854,85	9,309
855,03	9,702
855,21	9,796
855,39	9,259
855,57	9,997
855,75	9,478
855,93	9,779
856,11	8,503
856,28	9,131
856,46	9,107
856,64	8,939
856,82	9,350
857,00	8,133
857,18	9,244
857,36	9,674
857,54	9,489
857,72	8,774
857,90	9,724
858,08	9,318
858,26	10,344
858,44	9,729
858,61	10,136
858,79	9,386
858,97	9,656
859,15	8,835
859,33	9,599
859,51	10,063
859,69	9,648
859,87	9,681
860,05	10,091
860,23	10,162
860,40	11,069
860,58	10,422
860,76	10,468
860,94	9,711
861,12	10,262
861,30	9,933
861,48	10,505
861,66	10,024
861,84	10,522
862,01	11,394
862,19	10,308
862,37	10,879
862,55	11,183
862,73	10,747
862,91	11,788
863,09	10,890
863,27	10,804
863,44	11,867
863,62	11,983
863,80	12,599
863,98	12,278
864,16	12,204
864,34	12,563
864,52	12,977
864,69	12,956
864,87	12,650
865,05	13,141
865,23	13,398
865,41	13,713
865,59	14,142
865,76	14,236
865,94	14,290
866,12	14,314
866,30	14,925
866,48	15,186
866,66	15,236
866,83	15,504
867,01	15,483
867,19	15,774
867,37	16,832
867,55	16,759
867,73	16,289
867,90	17,012
868,08	17,391
868,26	17,366
868,44	17,616
868,62	18,346
868,79	20,066
868,97	19,301
869,15	19,080
869,33	20,800
869,51	21,431
869,69	21,279
869,86	22,252
870,04	22,507
870,22	23,739
870,40	24,240
870,57	24,546
870,75	24,945
870,93	26,195
871,11	26,387
871,29	27,579
871,46	28,206
871,64	29,529
871,82	30,205
872,00	32,267
872,18	32,694
872,35	33,980
872,53	37,692
872,71	38,672
872,89	40,132
873,06	42,124
873,24	43,701
873,42	48,315
873,60	50,495
873,77	54,945
873,95	56,739
874,13	59,448
874,31	62,902
874,49	65,739
874,66	69,798
874,84	72,822
875,02	76,709
875,20	77,143
875,37	81,066
875,55	81,047
875,73	84,788
875,91	85,008
876,08	85,914
876,26	88,256
876,44	89,828
876,61	88,568
876,79	89,588
876,97	89,741
877,15	90,189
877,32	90,153
877,50	91,548
877,68	93,204
877,86	91,145
878,03	93,958
878,21	92,546
878,39	93,120
878,56	92,328
878,74	89,202
878,92	93,302
879,10	92,623
879,27	91,613
879,45	91,318
879,63	90,897
879,80	91,956
879,98	90,236
880,16	92,441
880,34	90,664
880,51	90,653
880,69	88,920
880,87	89,278
881,04	86,607
881,22	86,530
881,40	84,853
881,57	84,594
881,75	85,849
881,93	82,487
882,10	81,735
882,28	80,290
882,46	78,956
882,63	78,432
882,81	75,903
882,99	75,272
883,16	73,131
883,34	71,095
883,52	69,937
883,69	69,354
883,87	67,459
884,05	65,530
884,22	64,097
884,40	61,080
884,58	59,943
884,75	57,521
884,93	54,834
885,11	51,780
885,28	48,440
885,46	45,306
885,64	42,185
885,81	39,232
885,99	35,976
886,17	32,213
886,34	27,514
886,52	26,309
886,70	22,825
886,87	21,476
887,05	19,690
887,22	17,491
887,40	15,844
887,58	13,617
887,75	12,623
887,93	12,563
888,11	10,860
888,28	10,500
888,46	9,589
888,63	10,218
888,81	9,540
888,99	9,050
889,16	8,902
889,34	8,807
889,51	9,008
889,69	9,219
889,87	8,914
890,04	8,218
890,22	8,897
890,39	8,224
890,57	8,712
890,75	8,236
890,92	7,851
891,10	8,311
891,27	7,769
891,45	7,240
891,63	8,684
891,80	7,719
891,98	8,568
892,15	8,025
892,33	7,204
892,51	7,497
892,68	7,212
892,86	8,208
893,03	8,362
893,21	8,229
893,38	7,919
893,56	7,433
893,74	7,605
893,91	7,659
894,09	8,005
894,26	7,182
894,44	7,642
894,61	7,066
894,79	8,092
894,96	7,560
895,14	7,751
895,32	7,781
895,49	7,473
895,67	7,371
895,84	7,525
896,02	7,427
896,19	7,785
896,37	7,808
896,54	7,560
896,72	8,056
896,89	7,756
897,07	7,407
897,25	7,463
897,42	7,214
897,60	7,654
897,77	8,212
897,95	7,199
898,12	6,805
898,30	7,347
898,47	6,662
898,65	7,333
898,82	7,091
899,00	6,636
899,17	6,980
899,35	6,872
899,52	7,696
899,70	7,195
899,87	7,986
900,05	6,914
900,22	7,584
900,40	7,139
900,57	7,119
900,75	7,616
900,92	6,595
901,10	6,959
901,27	6,433
901,45	6,345
901,62	7,230
901,80	6,973
901,97	7,040
902,15	6,893
902,32	7,177
902,50	6,627
902,67	6,915
902,85	6,772
903,02	6,988
903,20	7,264
903,37	7,020
903,54	6,574
903,72	7,124
903,89	6,435
904,07	7,552
904,24	6,813
904,42	6,489
904,59	7,324
904,77	6,892
904,94	7,298
905,12	7,194
905,29	6,848
905,47	6,377
905,64	7,287
905,81	6,713
905,99	7,646
906,16	6,995
906,34	6,556
906,51	6,599
906,69	6,746
906,86	6,566
907,03	6,156
907,21	6,470
907,38	7,478
907,56	6,414
907,73	6,314
907,91	6,843
908,08	6,002
908,25	6,305
908,43	7,006
908,60	6,082
908,78	6,604
908,95	6,496
909,13	6,180
909,30	6,015
909,47	6,488
909,65	6,190
909,82	6,892
910,00	6,940
910,17	6,034
910,34	6,148
910,52	6,145
910,69	6,213
910,87	6,180
911,04	6,433
911,21	6,444
911,39	6,241
911,56	6,560
911,73	5,651
911,91	6,216
912,08	6,356
912,26	5,716
912,43	6,095
912,60	6,493
912,78	6,285
912,95	6,135
913,13	5,738
913,30	6,493
913,47	5,419
913,65	6,235
913,82	6,513
913,99	5,734
914,17	6,607
914,34	5,782
914,51	6,318
914,69	5,882
914,86	6,071
915,03	5,806
915,21	5,502
915,38	5,994
915,56	6,008
915,73	5,642
915,90	6,056
916,08	6,642
916,25	5,627
916,42	5,823
916,60	6,012
916,77	5,433
916,94	6,048
917,12	5,575
917,29	5,958
917,46	6,242
917,64	5,623
917,81	5,520
917,98	5,863
918,16	5,318
918,33	5,742
918,50	5,782
918,67	5,435
918,85	5,263
919,02	5,670
919,19	5,694
919,37	5,367
919,54	5,518
919,71	5,491
919,89	5,133
920,06	5,634
920,23	5,508
920,41	5,814
920,58	5,775
920,75	5,756
920,92	5,631
921,10	5,445
921,27	4,977
921,44	5,835
921,62	5,216
921,79	5,693
921,96	6,364
922,13	5,550
922,31	5,437
922,48	5,497
922,65	5,416
922,82	5,771
923,00	4,935
923,17	4,696
923,34	5,694
923,52	5,198
923,69	5,030
923,86	5,331
924,03	4,801
924,21	5,562
924,38	5,293
924,55	5,198
924,72	4,852
924,90	5,462
925,07	5,355
925,24	4,371
925,41	4,993
925,59	5,138
925,76	5,064
925,93	4,928
926,10	4,480
926,28	5,422
926,45	4,869
926,62	4,371
926,79	4,791
926,96	4,767
927,14	5,186
927,31	5,493
927,48	4,549
927,65	4,952
927,83	4,594
928,00	4,529
928,17	5,144
928,34	4,906
928,51	4,742
928,69	4,622
928,86	4,454
929,03	4,962
929,20	4,659
929,37	4,560
929,55	4,685
929,72	4,176
929,89	4,455
930,06	4,725
930,23	4,584
930,41	4,432
930,58	4,671
930,75	4,825
930,92	4,701
931,09	4,601
931,27	4,975
931,44	4,649
931,61	4,647
931,78	4,883
931,95	4,713
932,12	4,821
932,30	5,469
932,47	4,574
932,64	4,661
932,81	4,674
932,98	4,295
933,16	4,524
933,33	4,562
933,50	4,189
933,67	4,529
933,84	4,196
934,01	4,051
934,18	3,344
934,36	4,343
934,53	4,674
934,70	4,072
934,87	4,667
935,04	4,821
935,21	4,513
935,38	4,548
935,56	4,647
935,73	3,965
935,90	4,324
936,07	4,257
936,24	4,285
936,41	5,362
936,58	3,975
936,76	4,640
936,93	4,460
937,10	3,925
937,27	4,368
937,44	4,484
937,61	5,217
937,78	3,965
937,95	4,833
938,13	4,235
938,30	3,970
938,47	4,112
938,64	4,630
938,81	4,397
938,98	3,919
939,15	4,551
939,32	3,729
939,49	4,007
939,66	4,375
939,84	4,393
940,01	4,147
940,18	4,216
940,35	3,853
940,52	4,253
940,69	4,185
940,86	4,069
941,03	4,168
941,20	4,197
941,37	4,709
941,54	3,581
941,71	4,406
941,89	4,040
942,06	4,569
942,23	4,604
942,40	4,259
942,57	4,768
942,74	4,384
942,91	4,326
943,08	3,560
943,25	3,815
943,42	3,694
943,59	4,388
943,76	4,865
943,93	4,377
944,10	4,035
944,27	3,881
944,44	4,730
944,61	4,950
944,79	4,372
944,96	4,465
945,13	4,370
945,30	3,669
945,47	3,937
945,64	4,023
945,81	3,686
945,98	4,449
946,15	4,145
946,32	4,147
946,49	4,183
946,66	3,723
946,83	3,641
947,00	4,574
947,17	4,359
947,34	4,353
947,51	4,225
947,68	4,624
947,85	4,064
948,02	4,435
948,19	3,159
948,36	3,988
948,53	4,079
948,70	4,217
948,87	4,048
949,04	4,539
949,21	4,458
949,38	4,423
949,55	4,833
949,72	3,917
949,89	3,908
950,06	3,776
950,23	3,934
950,40	4,628
950,57	4,119
950,74	3,519
950,91	3,734
951,08	4,668
951,25	4,922
951,42	4,945
951,59	4,448
951,76	4,505
951,93	4,183
952,10	5,094
952,27	4,515
952,44	4,238
952,61	4,717
952,77	5,271
952,94	5,127
953,11	5,655
953,28	4,774
953,45	4,470
953,62	4,416
953,79	4,577
953,96	4,851
954,13	5,630
954,30	4,669
954,47	4,024
954,64	4,567
954,81	5,009
954,98	5,167
955,15	4,751
955,32	4,326
955,49	4,934
955,65	5,127
955,82	4,229
955,99	4,826
956,16	5,318
956,33	5,997
956,50	5,133
956,67	6,189
956,84	5,058
957,01	3,409
957,18	4,547
957,35	5,008
957,52	6,235
957,68	5,464
957,85	5,319
958,02	4,986
958,19	4,565
958,36	4,667
958,53	5,686
958,70	6,547
958,87	6,360
959,04	5,791
959,21	5,375
959,37	5,918
959,54	6,598
959,71	5,765
959,88	6,607
960,05	6,533
960,22	5,347
960,39	5,813
960,56	5,888
960,72	5,773
960,89	7,476
961,06	6,690
961,23	6,495
961,40	6,629
961,57	5,403
961,74	6,717
961,90	7,200
962,07	6,544
962,24	6,273
962,41	5,509
962,58	6,974
962,75	4,865
962,92	3,722
963,08	5,365
963,25	7,688
963,42	7,470
963,59	5,752
963,76	5,386
963,93	6,475
964,10	6,514
964,26	6,930
964,43	4,432
964,60	4,438
964,77	5,850
964,94	7,336
965,10	7,149
965,27	5,211
965,44	8,347
965,61	7,083
965,78	7,215
965,95	6,466
966,11	7,464
966,28	7,004
966,45	6,597
966,62	6,534
966,79	7,861
966,95	5,380
967,12	6,700
967,29	5,338
967,46	8,221
967,63	5,963
967,79	8,437
967,96	7,267
968,13	4,525
968,30	6,687
968,47	7,351
968,63	6,244
968,80	6,313
968,97	7,238
969,14	5,780
969,31	6,308
969,47	6,235
969,64	5,133
969,81	5,522
969,98	6,106
970,14	8,116
970,31	6,728
970,48	6,889
970,65	5,445
970,81	7,172
970,98	5,750
971,15	7,583
971,32	6,809
971,48	7,581
971,65	7,105
971,82	8,649
971,99	5,401
972,15	5,880
972,32	7,282
972,49	6,863
972,66	8,272
972,82	7,765
972,99	6,436
973,16	7,286
973,33	8,098
973,49	8,437
973,66	7,280
973,83	6,847
974,00	7,146
974,16	7,727
974,33	6,324
974,50	5,584
974,67	7,776
974,83	5,197
975,00	6,584
975,17	7,286
975,33	7,673
975,50	7,589
975,67	5,677
975,84	6,203
976,00	8,186
976,17	4,955
976,34	6,130
976,50	6,471
976,67	8,296
976,84	8,895
977,00	7,702
977,17	7,983
977,34	5,299
977,50	6,088
977,67	7,654
977,84	8,319
978,01	7,530
978,17	6,883
978,34	8,506
978,51	7,075
978,67	7,375
978,84	7,153
979,01	6,103
979,17	8,973
979,34	8,134
979,51	6,895
979,67	6,814
979,84	7,242
980,01	8,536
980,17	6,606
980,34	7,891
980,51	8,594
980,67	8,141
980,84	7,505
981,01	5,497
981,17	6,916
981,34	7,020
981,50	7,024
981,67	5,510
981,84	7,884
982,00	4,053
982,17	9,020
982,34	8,117
982,50	7,678
982,67	7,351
982,84	6,441
983,00	6,028
983,17	6,334
983,33	8,350
983,50	5,967
983,67	7,055
983,83	8,065
984,00	6,687
984,17	9,339
984,33	6,418
984,50	8,963
984,66	6,627
984,83	7,211
985,00	5,422
985,16	8,615
985,33	5,882
985,49	8,711
985,66	9,173
985,83	7,286
985,99	8,827
986,16	9,217
986,32	8,368
986,49	6,081
986,66	7,570
986,82	8,663
986,99	6,746
987,15	8,724
987,32	7,528
987,49	7,258
987,65	7,225
987,82	6,240
987,98	4,651
988,15	7,540
988,31	9,437
988,48	7,998
988,65	4,502
988,81	6,767
988,98	6,594
989,14	8,040
989,31	9,273
989,47	8,958
989,64	9,185
989,80	3,465
989,97	11,172
990,14	7,367
990,30	8,939
990,47	9,113
990,63	10,355
990,80	8,210
990,96	7,080
991,13	5,733
991,29	7,310
991,46	6,318
991,62	9,179
991,79	8,679
991,95	7,923
992,12	6,651
992,29	9,391
992,45	6,839
992,62	4,888
992,78	3,527
992,95	5,923
993,11	7,692
993,28	7,235
993,44	5,441
993,61	9,603
993,77	5,288
993,94	7,453
994,10	8,083
994,27	6,924
994,43	8,273
994,60	9,811
994,76	7,531
994,93	6,752
995,09	9,420
995,26	9,268
995,42	4,720
995,59	8,260
995,75	8,963
995,92	6,020
996,08	10,019
996,25	6,779
996,41	9,021
996,58	8,512
996,74	8,461
996,91	5,938
997,07	6,465
997,23	8,182
997,40	9,017
997,56	6,314
997,73	8,112
997,89	5,415
998,06	6,791
998,22	9,628
998,39	5,898
998,55	6,885
998,72	5,396
998,88	7,770
999,05	7,204
999,21	6,148
999,37	6,975
999,54	10,007
999,70	9,426
999,87	6,458
1000,03	7,143
1000,20	5,347
1000,36	7,749
1000,52	8,783
1000,69	8,362
1000,85	8,680
1001,02	9,729
1001,18	7,797
1001,35	8,892
1001,51	7,922
1001,67	4,596
1001,84	8,279
1002,00	5,721
1002,17	9,022
1002,33	6,432
1002,50	8,159
1002,66	7,271
1002,82	4,965
1002,99	4,728
1003,15	5,920
1003,32	10,015
1003,48	6,002
1003,64	6,284
1003,81	6,640
1003,97	11,250
1004,14	8,906
1004,30	6,721
1004,46	9,456
1004,63	6,915
1004,79	10,395
1004,95	6,150
1005,12	7,901
1005,28	7,848
1005,45	11,175
1005,61	8,799
1005,77	9,200
1005,94	9,508
1006,10	11,130
1006,26	3,475
1006,43	10,634
1006,59	4,475
1006,76	5,352
1006,92	10,676
1007,08	4,221
1007,25	4,246
1007,41	6,472
1007,57	6,313
1007,74	9,503
1007,90	3,758
1008,06	8,430
1008,23	7,330
1008,39	7,828
1008,55	10,947
1008,72	5,121
1008,88	3,417
1009,04	8,938
1009,21	3,520
1009,37	7,187
1009,53	8,171
1009,70	5,560
1009,86	9,176
1010,02	4,020
1010,19	4,123
1010,35	8,989
1010,51	7,079
1010,68	8,264
1010,84	6,351
1011,00	6,034
1011,17	10,345
1011,33	7,762
1011,49	5,747
1011,66	7,613
1011,82	7,143
1011,98	5,586
1012,14	7,634
1012,31	14,219
1012,47	4,388
1012,63	8,684
1012,80	8,475
1012,96	7,764
1013,12	4,301
1013,29	8,768
1013,45	6,940
1013,61	7,305
1013,77	5,664
1013,94	9,759
1014,10	5,624
1014,26	5,269
1014,43	9,453
1014,59	3,814
1014,75	4,369
1014,91	4,948
1015,08	9,970
1015,24	10,163
1015,40	6,092
1015,56	6,839
1015,73	7,273
1015,89	5,074
1016,05	6,231
1016,21	5,497
1016,38	6,385
1016,54	6,243
1016,70	8,968
1016,86	8,654
1017,03	5,870
1017,19	8,031
1017,35	7,741
1017,51	7,143
1017,68	7,824
1017,84	5,460
1018,00	7,151
1018,16	10,884
1018,33	6,573
1018,49	1,703
1018,65	3,282
1018,81	9,591
1018,97	10,114
1019,14	2,130
1019,30	5,113
1019,46	5,239
1019,62	4,381
1019,79	5,208
1019,95	5,187
1020,11	8,294
1020,27	5,697
1020,43	3,896
1020,60	10,648
1020,76	4,026
1020,92	3,101
1021,08	5,617
1021,24	10,231
1021,41	7,666
1021,57	5,665
1021,73	5,920
1021,89	3,764
1022,05	12,530
1022,21	6,179
1022,38	13,333
1022,54	6,543
1022,70	6,349
1022,86	3,254
1023,02	8,926
1023,19	9,019
1023,35	-3,951
1023,51	11,397
1023,67	6,299
1023,83	12,397
1023,99	4,113
1024,16	4,603
1024,32	1,084
1024,48	4,084
1024,64	6,392
1024,80	7,034
1024,96	3,953
1025,12	15,570
1025,29	1,556
1025,45	10,728
1025,61	6,490
1025,77	6,667
1025,93	6,317
1026,09	7,387
1026,26	10,088
1026,42	7,452
1026,58	9,117
1026,74	13,701
1026,90	5,638
1027,06	8,163
1027,22	6,705
1027,38	3,704
1027,55	7,229
1027,71	7,030
1027,87	12,692
1028,03	3,602
1028,19	4,545
1028,35	7,344
1028,51	7,434
1028,67	6,928
1028,83	7,975
1029,00	6,667
1029,16	5,307
1029,32	5,224
1029,48	6,509
1029,64	9,309
1029,80	11,279
1029,96	3,074
1030,12	14,420
1030,28	5,714
1030,44	8,274
1030,61	11,076
1030,77	10,714
1030,93	4,072
1031,09	9,552
1031,25	7,731
1031,41	10,903
1031,57	-0,808
1031,73	2,602
1031,89	2,980
1032,05	6,380
1032,21	1,833
1032,37	3,309
1032,53	7,029
1032,69	8,689
1032,86	-0,520
1033,02	5,565
1033,18	6,336
1033,34	7,005
1033,50	9,516
1033,66	9,601
1033,82	8,889
1033,98	5,045
1034,14	9,982
1034,30	3,482
1034,46	3,220
1034,62	3,619
1034,78	6,529
1034,94	1,357
1035,10	12,546
1035,26	13,238
1035,42	8,907
1035,58	4,887
1035,74	4,200
1035,90	10,680
1036,06	-3,918
1036,22	9,464
1036,38	17,148
1036,54	-2,584
1036,70	9,419
1036,86	9,195
1037,02	6,286
1037,18	8,302
1037,34	2,397
1037,50	1,240
1037,66	3,945
1037,82	4,671
1037,98	13,093
1038,14	5,330
1038,30	6,090
1038,46	1,912
1038,62	-2,731
1038,78	10,612
1038,94	8,457
1039,10	12,840
1039,26	0,696
1039,42	13,026
1039,58	-0,887
1039,74	4,378
1039,90	4,839
1040,06	6,915
>>>>>End Processed Spectral Data<<<<<
