SpectraSuite Data File
++++++++++++++++++++++++++++++++++++
Date: Thu Feb 02 18:38:13 EET 2017
User: optolab
Dark Spectrum Present: Yes
Reference Spectrum Present: Yes
Number of Sampled Component Spectra: 1
Spectrometers: USB4C02475
Integration Time (usec): 151411 (USB4C02475)
Spectra Averaged: 1 (USB4C02475)
Boxcar Smoothing: 0 (USB4C02475)
Correct for Electrical Dark: No (USB4C02475)
Strobe/Lamp Enabled: No (USB4C02475)
Correct for Detector Non-linearity: No (USB4C02475)
Correct for Stray Light: No (USB4C02475)
Number of Pixels in Processed Spectrum: 3648
>>>>>Begin Processed Spectral Data<<<<<
344,91	125,926
345,13	125,926
345,35	125,926
345,57	-240,000
345,79	-30,769
346,00	84,000
346,22	191,892
346,44	23,077
346,66	466,667
346,87	190,000
347,09	-250,000
347,31	2000,000
347,53	84,615
347,74	25,000
347,96	133,333
348,18	68,293
348,40	-66,667
348,61	109,804
348,83	66,667
349,05	-18,182
349,27	48,529
349,48	15,686
349,70	87,273
349,92	56,098
350,14	1750,000
350,35	15,385
350,57	19,118
350,79	91,489
351,01	25,806
351,22	500,000
351,44	46,667
351,66	68,293
351,87	-65,909
352,09	-19,231
352,31	186,957
352,53	48,387
352,74	-103,125
352,96	24,490
353,18	45,455
353,40	139,286
353,61	81,667
353,83	4,000
354,05	-41,379
354,26	11,364
354,48	-36,364
354,70	37,500
354,92	34,921
355,13	40,816
355,35	150,000
355,57	38,961
355,78	52,500
356,00	-6,977
356,22	34,328
356,44	0,000
356,65	87,179
356,87	38,272
357,09	-4,348
357,30	21,622
357,52	-94,286
357,74	58,462
357,95	105,556
358,17	-22,222
358,39	375,000
358,60	53,684
358,82	11,111
359,04	-116,667
359,26	-8,889
359,47	93,103
359,69	275,000
359,91	-54,687
360,12	-28,571
360,34	163,158
360,56	12,632
360,77	51,852
360,99	15,000
361,21	65,385
361,42	47,500
361,64	15,152
361,86	27,473
362,07	20,792
362,29	-150,000
362,51	74,074
362,72	-37,500
362,94	-35,000
363,16	46,377
363,37	89,063
363,59	36,264
363,81	-8,475
364,02	48,485
364,24	38,462
364,46	-70,000
364,67	-86,111
364,89	-37,838
365,11	-933,333
365,32	52,632
365,54	34,783
365,76	66,250
365,97	51,429
366,19	-21,053
366,41	44,615
366,62	30,000
366,84	70,000
367,05	37,500
367,27	72,727
367,49	0,000
367,70	10,870
367,92	60,759
368,14	4,301
368,35	28,395
368,57	4,444
368,79	12,162
369,00	23,571
369,22	41,667
369,43	-9,184
369,65	33,333
369,87	19,753
370,08	71,014
370,30	-10,588
370,51	43,511
370,73	20,635
370,95	6,186
371,16	16,667
371,38	38,356
371,60	22,093
371,81	29,474
372,03	38,182
372,24	-110,526
372,46	-8,333
372,68	44,304
372,89	26,316
373,11	0,000
373,32	-60,317
373,54	32,813
373,76	10,924
373,97	31,707
374,19	18,889
374,40	46,087
374,62	53,409
374,84	-18,447
375,05	38,947
375,27	-13,095
375,48	42,857
375,70	17,568
375,92	-11,957
376,13	26,667
376,35	-15,854
376,56	21,795
376,78	22,308
376,99	24,675
377,21	19,048
377,43	19,792
377,64	25,424
377,86	7,527
378,07	50,526
378,29	35,455
378,51	41,406
378,72	-20,370
378,94	33,566
379,15	34,507
379,37	27,007
379,58	35,897
379,80	38,674
380,01	14,000
380,23	15,672
380,45	-17,000
380,66	9,722
380,88	35,294
381,09	-65,909
381,31	-4,118
381,52	16,216
381,74	17,610
381,95	-60,526
382,17	0,562
382,39	10,843
382,60	23,022
382,82	7,801
383,03	15,000
383,25	21,986
383,46	6,957
383,68	6,962
383,89	49,451
384,11	-5,952
384,32	34,286
384,54	-39,048
384,76	8,671
384,97	14,773
385,19	15,200
385,40	-26,786
385,62	14,362
385,83	29,677
386,05	16,084
386,26	35,979
386,48	18,831
386,69	-11,200
386,91	4,324
387,12	13,298
387,34	4,972
387,55	-8,824
387,77	10,695
387,98	21,759
388,20	-2,381
388,41	24,498
388,63	16,190
388,84	15,436
389,06	9,836
389,27	26,267
389,49	12,621
389,70	23,404
389,92	24,631
390,13	-0,676
390,35	20,982
390,56	32,787
390,78	20,084
390,99	8,808
391,21	39,216
391,42	19,433
391,64	18,868
391,85	21,026
392,07	-7,143
392,28	33,333
392,50	26,538
392,71	8,040
392,93	3,320
393,14	-8,197
393,36	10,811
393,57	21,459
393,79	-2,740
394,00	17,059
394,22	-2,513
394,43	24,229
394,65	13,693
394,86	7,985
395,08	8,092
395,29	10,222
395,50	20,175
395,72	3,830
395,93	28,512
396,15	24,000
396,36	21,287
396,58	4,484
396,79	8,562
397,01	5,907
397,22	14,981
397,44	30,380
397,65	18,021
397,87	27,027
398,08	10,032
398,29	15,152
398,51	23,894
398,72	12,132
398,94	14,483
399,15	19,531
399,37	23,630
399,58	8,627
399,80	28,161
400,01	15,502
400,22	21,739
400,44	-7,950
400,65	11,000
400,87	9,804
401,08	6,397
401,30	9,898
401,51	18,258
401,72	3,676
401,94	6,993
402,15	16,176
402,37	17,308
402,58	-5,686
402,80	27,520
403,01	5,789
403,22	6,818
403,44	28,912
403,65	6,294
403,87	10,154
404,08	17,105
404,30	9,831
404,51	11,268
404,72	5,810
404,94	12,202
405,15	2,381
405,37	17,452
405,58	15,196
405,79	21,011
406,01	3,064
406,22	25,888
406,44	2,625
406,65	11,380
406,86	12,791
407,08	20,613
407,29	10,894
407,51	11,053
407,72	9,019
407,93	13,456
408,15	20,286
408,36	20,732
408,58	15,668
408,79	20,000
409,00	14,775
409,22	7,083
409,43	13,250
409,64	12,195
409,86	16,937
410,07	17,467
410,29	13,111
410,50	19,796
410,71	7,202
410,93	20,227
411,14	17,137
411,35	8,431
411,57	2,740
411,78	9,756
412,00	20,518
412,21	11,922
412,42	7,674
412,64	4,925
412,85	3,820
413,06	8,393
413,28	13,361
413,49	8,068
413,70	16,284
413,92	5,818
414,13	2,240
414,34	6,465
414,56	5,385
414,77	10,638
414,98	15,514
415,20	1,751
415,41	5,244
415,63	2,708
415,84	12,274
416,05	15,842
416,27	7,664
416,48	9,761
416,69	9,250
416,91	3,564
417,12	6,286
417,33	11,985
417,55	5,009
417,76	17,926
417,97	11,958
418,19	2,996
418,40	14,236
418,61	15,530
418,83	11,985
419,04	10,018
419,25	8,413
419,46	7,607
419,68	7,581
419,89	5,830
420,10	9,288
420,32	2,164
420,53	6,352
420,74	3,691
420,96	11,905
421,17	8,241
421,38	12,535
421,60	8,307
421,81	8,485
422,02	7,856
422,23	9,078
422,45	8,497
422,66	6,149
422,87	10,013
423,09	2,508
423,30	7,321
423,51	0,000
423,73	7,471
423,94	9,366
424,15	8,427
424,36	12,275
424,58	8,298
424,79	10,714
425,00	4,378
425,22	11,013
425,43	4,558
425,64	7,536
425,85	11,711
426,07	3,951
426,28	9,432
426,49	14,491
426,71	16,167
426,92	4,750
427,13	6,844
427,34	10,604
427,56	6,813
427,77	9,544
427,98	7,539
428,19	10,773
428,41	9,615
428,62	11,201
428,83	13,107
429,04	9,028
429,26	9,323
429,47	10,259
429,68	9,146
429,89	4,016
430,11	10,482
430,32	7,928
430,53	7,700
430,74	7,062
430,96	8,404
431,17	9,906
431,38	10,575
431,59	5,306
431,81	9,964
432,02	9,330
432,23	6,661
432,44	4,969
432,66	7,119
432,87	8,798
433,08	6,082
433,29	7,640
433,51	11,500
433,72	7,686
433,93	7,208
434,14	9,513
434,35	5,011
434,57	4,856
434,78	3,501
434,99	4,408
435,20	9,426
435,42	5,882
435,63	9,650
435,84	6,275
436,05	7,497
436,26	8,328
436,48	7,861
436,69	6,112
436,90	6,786
437,11	6,183
437,32	4,307
437,54	6,429
437,75	7,367
437,96	4,919
438,17	9,315
438,38	5,464
438,60	4,011
438,81	7,476
439,02	8,468
439,23	6,497
439,44	4,665
439,66	5,412
439,87	3,990
440,08	6,282
440,29	7,945
440,50	5,007
440,72	5,023
440,93	4,732
441,14	5,460
441,35	4,958
441,56	5,312
441,77	3,959
441,99	4,305
442,20	4,019
442,41	4,614
442,62	6,828
442,83	6,457
443,04	4,085
443,26	4,962
443,47	4,701
443,68	3,014
443,89	4,968
444,10	3,517
444,31	5,319
444,53	4,352
444,74	3,169
444,95	3,518
445,16	2,213
445,37	3,713
445,58	4,146
445,80	3,231
446,01	4,941
446,22	3,664
446,43	2,568
446,64	2,650
446,85	3,516
447,06	2,790
447,28	2,441
447,49	3,228
447,70	2,834
447,91	3,567
448,12	3,611
448,33	4,160
448,54	3,845
448,76	2,328
448,97	3,421
449,18	2,680
449,39	2,060
449,60	2,569
449,81	3,061
450,02	3,655
450,23	2,544
450,45	1,800
450,66	2,352
450,87	2,569
451,08	2,728
451,29	2,482
451,50	2,158
451,71	1,667
451,92	2,439
452,13	2,193
452,35	3,256
452,56	1,859
452,77	2,146
452,98	2,703
453,19	2,347
453,40	2,025
453,61	1,822
453,82	1,813
454,03	2,174
454,25	2,392
454,46	1,882
454,67	1,886
454,88	1,787
455,09	1,742
455,30	2,536
455,51	1,278
455,72	1,603
455,93	1,889
456,14	1,720
456,35	1,303
456,56	1,855
456,78	2,091
456,99	2,075
457,20	1,218
457,41	1,564
457,62	1,831
457,83	1,400
458,04	0,952
458,25	1,580
458,46	1,252
458,67	1,150
458,88	1,468
459,09	1,032
459,30	1,454
459,51	1,064
459,73	1,324
459,94	1,305
460,15	0,802
460,36	1,412
460,57	1,233
460,78	1,261
460,99	1,145
461,20	0,899
461,41	1,061
461,62	0,984
461,83	1,389
462,04	1,184
462,25	1,376
462,46	1,062
462,67	1,036
462,88	1,166
463,09	1,049
463,30	1,031
463,51	1,131
463,72	1,025
463,93	1,255
464,15	0,960
464,36	1,104
464,57	1,110
464,78	1,062
464,99	1,017
465,20	0,941
465,41	1,211
465,62	1,173
465,83	1,191
466,04	0,905
466,25	1,194
466,46	1,035
466,67	1,103
466,88	1,071
467,09	0,953
467,30	0,999
467,51	0,760
467,72	1,146
467,93	1,048
468,14	1,102
468,35	1,064
468,56	0,924
468,77	1,098
468,98	1,108
469,19	0,986
469,40	1,248
469,61	1,224
469,82	0,911
470,03	1,064
470,24	1,077
470,45	1,335
470,66	1,259
470,87	1,247
471,08	1,227
471,29	1,087
471,50	1,253
471,71	1,163
471,92	1,124
472,13	1,223
472,34	1,372
472,55	1,513
472,76	1,223
472,97	1,672
473,18	1,416
473,39	1,348
473,60	1,467
473,81	1,213
474,01	1,388
474,22	1,163
474,43	1,424
474,64	1,650
474,85	1,551
475,06	1,490
475,27	1,600
475,48	1,739
475,69	1,657
475,90	1,581
476,11	1,552
476,32	1,639
476,53	1,767
476,74	1,865
476,95	1,563
477,16	1,780
477,37	1,825
477,58	1,901
477,79	1,884
478,00	1,620
478,21	1,978
478,41	1,941
478,62	1,688
478,83	2,078
479,04	1,897
479,25	1,830
479,46	1,913
479,67	2,179
479,88	1,912
480,09	1,930
480,30	2,103
480,51	2,197
480,72	2,347
480,93	2,145
481,14	1,946
481,34	2,269
481,55	2,035
481,76	2,047
481,97	2,271
482,18	2,322
482,39	2,090
482,60	2,160
482,81	1,994
483,02	2,316
483,23	2,306
483,44	2,502
483,65	2,375
483,85	2,458
484,06	2,435
484,27	2,388
484,48	2,491
484,69	2,266
484,90	2,571
485,11	2,313
485,32	2,486
485,53	2,507
485,73	2,591
485,94	2,380
486,15	2,472
486,36	2,501
486,57	2,844
486,78	2,517
486,99	2,579
487,20	2,584
487,41	2,554
487,61	2,411
487,82	2,615
488,03	2,497
488,24	2,578
488,45	2,758
488,66	2,628
488,87	2,733
489,08	2,416
489,28	2,637
489,49	2,492
489,70	2,703
489,91	2,549
490,12	2,779
490,33	2,574
490,54	2,605
490,74	2,638
490,95	2,622
491,16	2,840
491,37	2,598
491,58	2,945
491,79	2,842
492,00	2,807
492,20	2,877
492,41	2,871
492,62	2,631
492,83	2,469
493,04	2,918
493,25	2,848
493,45	3,021
493,66	3,219
493,87	2,841
494,08	3,147
494,29	2,839
494,50	2,989
494,70	2,922
494,91	2,665
495,12	2,916
495,33	3,195
495,54	2,909
495,75	3,215
495,95	3,030
496,16	2,961
496,37	3,198
496,58	3,005
496,79	3,136
496,99	2,991
497,20	2,940
497,41	3,074
497,62	3,266
497,83	3,206
498,04	2,993
498,24	3,527
498,45	3,118
498,66	3,348
498,87	3,174
499,08	3,277
499,28	3,269
499,49	3,262
499,70	3,152
499,91	3,225
500,12	3,165
500,32	3,269
500,53	3,339
500,74	3,446
500,95	3,292
501,15	3,373
501,36	3,409
501,57	3,062
501,78	3,352
501,99	3,217
502,19	3,197
502,40	3,395
502,61	3,525
502,82	3,380
503,02	3,580
503,23	3,356
503,44	3,552
503,65	3,305
503,86	3,532
504,06	3,354
504,27	3,685
504,48	3,499
504,69	3,599
504,89	3,384
505,10	3,798
505,31	3,600
505,52	3,583
505,72	3,741
505,93	3,682
506,14	3,831
506,35	3,851
506,55	3,331
506,76	3,554
506,97	3,440
507,18	3,729
507,38	3,674
507,59	3,810
507,80	3,690
508,01	3,777
508,21	3,877
508,42	3,702
508,63	3,561
508,84	3,820
509,04	3,830
509,25	3,949
509,46	4,014
509,67	3,898
509,87	3,945
510,08	3,798
510,29	3,775
510,49	3,929
510,70	4,142
510,91	4,107
511,12	3,826
511,32	4,078
511,53	3,789
511,74	3,979
511,94	4,134
512,15	4,036
512,36	4,115
512,57	4,085
512,77	4,090
512,98	4,073
513,19	4,175
513,39	4,187
513,60	4,006
513,81	3,982
514,01	3,882
514,22	4,160
514,43	4,225
514,64	4,230
514,84	4,327
515,05	4,379
515,26	3,997
515,46	4,581
515,67	4,239
515,88	4,505
516,08	4,190
516,29	4,379
516,50	4,393
516,70	4,492
516,91	4,694
517,12	4,489
517,32	4,370
517,53	4,597
517,74	4,722
517,95	4,729
518,15	4,730
518,36	4,546
518,57	4,669
518,77	4,722
518,98	4,652
519,19	4,912
519,39	4,762
519,60	4,864
519,80	4,570
520,01	4,950
520,22	4,910
520,42	4,729
520,63	4,602
520,84	4,808
521,04	5,065
521,25	4,686
521,46	4,822
521,66	4,843
521,87	4,871
522,08	4,901
522,28	5,093
522,49	5,156
522,70	5,006
522,90	4,920
523,11	4,994
523,31	5,401
523,52	5,040
523,73	5,086
523,93	5,509
524,14	5,067
524,35	5,113
524,55	5,495
524,76	5,230
524,97	5,201
525,17	5,456
525,38	5,303
525,58	5,198
525,79	5,471
526,00	5,884
526,20	5,591
526,41	5,697
526,61	5,411
526,82	5,806
527,03	5,619
527,23	5,889
527,44	6,055
527,64	5,925
527,85	5,943
528,06	6,099
528,26	5,883
528,47	6,117
528,68	5,699
528,88	5,559
529,09	5,799
529,29	5,599
529,50	5,893
529,70	6,168
529,91	5,655
530,12	5,892
530,32	6,096
530,53	6,012
530,73	5,979
530,94	5,853
531,15	6,127
531,35	6,281
531,56	5,878
531,76	6,113
531,97	6,096
532,17	6,350
532,38	6,514
532,59	6,118
532,79	6,289
533,00	6,404
533,20	6,907
533,41	6,254
533,61	6,079
533,82	6,506
534,03	6,715
534,23	6,407
534,44	6,383
534,64	6,703
534,85	6,905
535,05	6,764
535,26	6,647
535,46	6,882
535,67	6,712
535,88	6,819
536,08	6,966
536,29	7,091
536,49	6,684
536,70	6,854
536,90	7,075
537,11	6,941
537,31	7,129
537,52	7,261
537,72	7,096
537,93	6,817
538,13	7,310
538,34	7,205
538,55	7,470
538,75	6,827
538,96	6,998
539,16	7,028
539,37	7,298
539,57	7,201
539,78	6,829
539,98	7,160
540,19	7,052
540,39	7,295
540,60	7,676
540,80	7,433
541,01	7,160
541,21	7,475
541,42	7,600
541,62	7,302
541,83	7,425
542,03	7,578
542,24	7,610
542,44	7,432
542,65	7,753
542,85	7,651
543,06	7,779
543,26	7,914
543,47	7,938
543,67	7,704
543,88	7,783
544,08	8,229
544,29	7,663
544,49	8,082
544,70	7,939
544,90	7,853
545,11	7,273
545,31	7,866
545,52	8,294
545,72	7,942
545,93	7,963
546,13	8,312
546,34	8,204
546,54	8,031
546,75	7,710
546,95	8,031
547,15	8,132
547,36	8,320
547,56	8,168
547,77	8,033
547,97	8,072
548,18	7,990
548,38	8,370
548,59	8,185
548,79	8,216
549,00	8,260
549,20	8,265
549,41	8,467
549,61	8,525
549,81	8,282
550,02	8,487
550,22	8,730
550,43	8,465
550,63	8,409
550,84	8,817
551,04	8,249
551,25	8,162
551,45	8,547
551,65	9,015
551,86	8,213
552,06	8,888
552,27	8,788
552,47	8,628
552,68	8,557
552,88	8,560
553,08	8,502
553,29	8,707
553,49	8,397
553,70	8,465
553,90	8,834
554,11	8,349
554,31	9,235
554,51	8,692
554,72	8,686
554,92	9,062
555,13	9,533
555,33	8,809
555,53	8,589
555,74	9,176
555,94	8,986
556,15	8,910
556,35	8,909
556,56	9,028
556,76	8,884
556,96	8,663
557,17	8,672
557,37	8,898
557,58	9,283
557,78	9,155
557,98	9,020
558,19	8,711
558,39	9,354
558,59	8,870
558,80	8,509
559,00	9,498
559,21	8,852
559,41	8,840
559,61	9,195
559,82	9,506
560,02	8,713
560,23	9,185
560,43	9,245
560,63	8,693
560,84	9,052
561,04	9,045
561,24	9,172
561,45	9,451
561,65	9,260
561,85	9,297
562,06	9,157
562,26	9,022
562,47	9,105
562,67	8,889
562,87	9,539
563,08	9,664
563,28	9,464
563,48	9,308
563,69	9,281
563,89	9,186
564,09	9,042
564,30	9,156
564,50	8,986
564,70	9,269
564,91	9,229
565,11	9,097
565,31	9,427
565,52	9,213
565,72	9,345
565,92	8,871
566,13	8,974
566,33	8,990
566,53	9,417
566,74	9,202
566,94	8,805
567,14	8,975
567,35	8,641
567,55	9,088
567,75	9,124
567,96	9,265
568,16	9,245
568,36	9,224
568,57	9,119
568,77	9,235
568,97	9,265
569,18	9,255
569,38	9,678
569,58	9,587
569,79	9,523
569,99	9,776
570,19	9,601
570,39	9,440
570,60	9,767
570,80	9,439
571,00	9,337
571,21	9,061
571,41	9,206
571,61	9,262
571,82	9,644
572,02	9,410
572,22	9,193
572,42	9,380
572,63	9,482
572,83	8,684
573,03	8,576
573,24	8,810
573,44	9,331
573,64	9,211
573,84	9,018
574,05	9,213
574,25	9,488
574,45	9,297
574,66	9,316
574,86	9,765
575,06	9,062
575,26	9,177
575,47	9,706
575,67	9,557
575,87	9,633
576,07	9,522
576,28	8,858
576,48	9,280
576,68	9,338
576,88	9,201
577,09	9,255
577,29	9,165
577,49	8,885
577,69	9,410
577,90	9,422
578,10	9,131
578,30	9,041
578,50	9,247
578,71	9,056
578,91	9,628
579,11	9,075
579,31	9,537
579,52	9,321
579,72	9,153
579,92	9,179
580,12	9,285
580,33	8,962
580,53	9,123
580,73	8,857
580,93	9,541
581,13	9,306
581,34	8,948
581,54	8,989
581,74	9,426
581,94	9,241
582,15	8,879
582,35	9,081
582,55	8,915
582,75	9,109
582,95	9,002
583,16	9,021
583,36	8,961
583,56	8,969
583,76	9,110
583,96	9,212
584,17	8,904
584,37	8,833
584,57	9,027
584,77	8,674
584,97	8,804
585,18	8,940
585,38	8,975
585,58	9,101
585,78	9,154
585,98	9,031
586,19	8,889
586,39	9,218
586,59	9,044
586,79	8,605
586,99	8,822
587,20	9,204
587,40	8,872
587,60	8,495
587,80	8,587
588,00	8,635
588,20	8,748
588,41	8,893
588,61	8,577
588,81	8,648
589,01	8,690
589,21	8,539
589,41	8,786
589,62	8,805
589,82	8,786
590,02	8,573
590,22	8,491
590,42	8,471
590,62	8,342
590,83	8,598
591,03	8,227
591,23	8,459
591,43	8,178
591,63	8,115
591,83	7,976
592,03	8,205
592,24	8,434
592,44	8,037
592,64	8,075
592,84	8,100
593,04	8,121
593,24	8,094
593,44	7,800
593,65	8,085
593,85	7,870
594,05	8,065
594,25	8,109
594,45	8,102
594,65	7,979
594,85	8,178
595,06	8,001
595,26	7,613
595,46	8,067
595,66	8,138
595,86	7,907
596,06	8,407
596,26	8,047
596,46	7,786
596,66	7,564
596,87	8,015
597,07	8,081
597,27	7,818
597,47	7,829
597,67	7,972
597,87	7,725
598,07	7,796
598,27	8,324
598,47	8,218
598,67	8,275
598,88	8,052
599,08	8,353
599,28	8,419
599,48	8,377
599,68	8,579
599,88	8,542
600,08	8,360
600,28	8,834
600,48	8,675
600,68	8,997
600,88	8,820
601,09	8,672
601,29	8,729
601,49	8,723
601,69	8,748
601,89	8,805
602,09	9,331
602,29	9,314
602,49	8,970
602,69	9,457
602,89	9,241
603,09	9,425
603,29	9,236
603,49	9,137
603,69	8,932
603,90	8,959
604,10	9,080
604,30	9,228
604,50	9,188
604,70	9,141
604,90	9,145
605,10	9,463
605,30	9,351
605,50	9,602
605,70	9,544
605,90	9,708
606,10	10,126
606,30	9,307
606,50	9,693
606,70	9,653
606,90	9,729
607,10	9,828
607,30	9,612
607,50	9,356
607,70	9,937
607,90	9,939
608,10	9,476
608,30	9,684
608,50	9,320
608,70	9,689
608,90	9,558
609,11	9,417
609,31	9,420
609,51	9,357
609,71	10,196
609,91	9,506
610,11	9,353
610,31	9,729
610,51	9,324
610,71	9,620
610,91	9,827
611,11	9,855
611,31	9,846
611,51	9,817
611,71	9,590
611,91	9,727
612,11	9,777
612,31	9,524
612,51	10,074
612,71	10,072
612,91	10,165
613,11	9,585
613,31	10,004
613,51	9,778
613,71	9,936
613,91	9,836
614,11	10,070
614,31	9,788
614,50	9,991
614,70	9,992
614,90	9,929
615,10	9,785
615,30	9,485
615,50	9,977
615,70	9,457
615,90	9,623
616,10	9,794
616,30	9,917
616,50	9,997
616,70	9,811
616,90	10,080
617,10	9,846
617,30	10,071
617,50	10,085
617,70	10,110
617,90	9,873
618,10	9,921
618,30	9,895
618,50	9,677
618,70	9,904
618,90	10,017
619,10	9,749
619,30	9,986
619,49	10,289
619,69	10,374
619,89	10,065
620,09	10,377
620,29	9,890
620,49	10,263
620,69	10,032
620,89	10,413
621,09	10,416
621,29	10,284
621,49	10,272
621,69	9,965
621,89	9,987
622,09	10,146
622,29	10,132
622,48	10,033
622,68	10,131
622,88	10,352
623,08	10,199
623,28	10,442
623,48	10,157
623,68	10,535
623,88	10,295
624,08	10,428
624,28	10,189
624,48	10,525
624,67	10,147
624,87	10,342
625,07	9,978
625,27	10,015
625,47	10,142
625,67	10,519
625,87	10,310
626,07	10,180
626,27	10,667
626,47	10,675
626,66	10,477
626,86	10,530
627,06	10,747
627,26	10,557
627,46	10,366
627,66	10,427
627,86	10,927
628,06	10,709
628,25	10,489
628,45	10,540
628,65	10,773
628,85	10,284
629,05	10,710
629,25	10,795
629,45	10,570
629,65	11,050
629,84	10,852
630,04	10,766
630,24	10,656
630,44	10,602
630,64	10,835
630,84	10,993
631,04	10,923
631,23	10,913
631,43	10,497
631,63	10,806
631,83	10,306
632,03	10,572
632,23	10,472
632,42	10,652
632,62	10,436
632,82	10,706
633,02	10,535
633,22	10,889
633,42	10,862
633,62	10,592
633,81	10,708
634,01	11,042
634,21	10,809
634,41	11,295
634,61	10,953
634,80	11,308
635,00	11,200
635,20	11,021
635,40	11,192
635,60	11,119
635,80	11,454
635,99	10,915
636,19	11,068
636,39	11,176
636,59	10,933
636,79	11,430
636,98	11,366
637,18	11,424
637,38	11,478
637,58	11,327
637,78	11,503
637,97	11,416
638,17	11,847
638,37	12,403
638,57	12,420
638,77	12,649
638,96	12,420
639,16	12,816
639,36	13,436
639,56	13,435
639,76	13,870
639,95	14,749
640,15	14,670
640,35	15,342
640,55	15,812
640,75	16,139
640,94	16,510
641,14	17,275
641,34	18,170
641,54	18,697
641,73	19,562
641,93	20,686
642,13	21,620
642,33	23,163
642,53	24,564
642,72	26,031
642,92	28,317
643,12	29,935
643,32	32,908
643,51	35,887
643,71	39,209
643,91	42,784
644,11	46,846
644,30	51,981
644,50	54,743
644,70	58,634
644,90	62,094
645,09	64,803
645,29	67,403
645,49	69,427
645,69	71,899
645,88	72,290
646,08	73,902
646,28	76,922
646,48	77,933
646,67	78,282
646,87	80,624
647,07	80,972
647,26	82,329
647,46	82,851
647,66	83,215
647,86	82,943
648,05	83,128
648,25	83,000
648,45	83,302
648,65	83,856
648,84	83,008
649,04	84,403
649,24	82,992
649,43	84,008
649,63	83,485
649,83	83,299
650,03	83,400
650,22	81,906
650,42	82,081
650,62	82,860
650,81	82,986
651,01	83,188
651,21	83,099
651,40	82,580
651,60	81,979
651,80	81,757
652,00	81,163
652,19	80,445
652,39	79,609
652,59	78,484
652,78	78,810
652,98	76,103
653,18	78,150
653,37	76,487
653,57	75,362
653,77	74,387
653,96	73,665
654,16	72,691
654,36	70,577
654,55	69,947
654,75	68,001
654,95	65,934
655,14	64,406
655,34	61,364
655,54	58,965
655,73	55,132
655,93	51,689
656,13	47,718
656,32	43,923
656,52	40,454
656,72	37,361
656,91	34,164
657,11	31,348
657,31	29,849
657,50	27,353
657,70	25,281
657,90	23,068
658,09	21,042
658,29	19,787
658,49	17,406
658,68	15,986
658,88	14,783
659,07	14,238
659,27	13,480
659,47	12,665
659,66	12,196
659,86	11,534
660,06	11,757
660,25	11,649
660,45	11,562
660,64	11,431
660,84	11,414
661,04	11,094
661,23	11,162
661,43	10,392
661,63	10,928
661,82	10,720
662,02	10,503
662,21	10,848
662,41	10,347
662,61	10,589
662,80	10,828
663,00	10,187
663,19	10,315
663,39	10,079
663,59	10,669
663,78	10,341
663,98	10,529
664,17	10,639
664,37	10,312
664,57	10,527
664,76	10,251
664,96	10,228
665,15	10,156
665,35	10,539
665,55	10,201
665,74	10,534
665,94	9,981
666,13	10,414
666,33	10,575
666,53	10,700
666,72	10,637
666,92	10,390
667,11	10,739
667,31	10,522
667,50	10,619
667,70	10,519
667,90	10,183
668,09	10,212
668,29	10,029
668,48	10,038
668,68	9,813
668,87	10,128
669,07	9,585
669,26	9,905
669,46	10,063
669,66	9,908
669,85	10,122
670,05	9,971
670,24	9,609
670,44	9,761
670,63	9,907
670,83	10,134
671,02	10,040
671,22	10,543
671,42	10,172
671,61	10,540
671,81	10,120
672,00	9,997
672,20	10,148
672,39	10,352
672,59	10,299
672,78	10,185
672,98	10,101
673,17	9,803
673,37	10,117
673,56	10,200
673,76	10,340
673,95	10,127
674,15	9,995
674,34	10,305
674,54	10,341
674,73	9,936
674,93	9,995
675,13	9,742
675,32	9,996
675,52	9,809
675,71	10,064
675,91	9,968
676,10	10,422
676,30	10,460
676,49	10,518
676,69	10,366
676,88	10,101
677,08	10,107
677,27	10,099
677,47	10,338
677,66	10,505
677,86	10,235
678,05	10,396
678,24	10,394
678,44	9,989
678,63	9,963
678,83	9,920
679,02	10,036
679,22	10,330
679,41	10,405
679,61	10,111
679,80	10,235
680,00	9,965
680,19	10,337
680,39	10,228
680,58	10,164
680,78	10,205
680,97	10,525
681,17	10,310
681,36	10,175
681,56	9,952
681,75	10,514
681,94	10,620
682,14	10,236
682,33	10,101
682,53	10,232
682,72	9,964
682,92	10,259
683,11	10,517
683,31	10,587
683,50	10,337
683,69	10,498
683,89	10,380
684,08	10,399
684,28	10,009
684,47	9,831
684,67	10,241
684,86	10,110
685,06	10,294
685,25	10,211
685,44	10,096
685,64	10,326
685,83	9,963
686,03	10,299
686,22	9,683
686,42	9,937
686,61	10,256
686,80	10,287
687,00	10,073
687,19	10,251
687,39	10,209
687,58	9,775
687,77	10,338
687,97	10,313
688,16	10,403
688,36	10,591
688,55	10,422
688,74	10,457
688,94	10,304
689,13	10,267
689,33	10,063
689,52	10,269
689,71	10,428
689,91	10,337
690,10	10,440
690,30	10,092
690,49	10,264
690,68	10,226
690,88	10,170
691,07	10,181
691,27	10,356
691,46	10,233
691,65	10,177
691,85	10,148
692,04	10,212
692,23	10,108
692,43	10,171
692,62	10,669
692,82	10,518
693,01	10,154
693,20	10,361
693,40	10,308
693,59	10,365
693,78	10,357
693,98	10,461
694,17	10,316
694,36	10,164
694,56	10,537
694,75	10,479
694,94	10,526
695,14	10,384
695,33	10,872
695,53	10,365
695,72	10,322
695,91	10,171
696,11	10,663
696,30	10,079
696,49	10,443
696,69	10,318
696,88	10,700
697,07	10,401
697,27	10,419
697,46	10,830
697,65	10,756
697,85	10,387
698,04	10,695
698,23	10,667
698,43	11,032
698,62	10,153
698,81	11,194
699,01	10,420
699,20	10,440
699,39	10,471
699,58	10,755
699,78	10,384
699,97	10,438
700,16	10,268
700,36	10,324
700,55	10,290
700,74	10,186
700,94	10,611
701,13	10,719
701,32	10,418
701,52	10,446
701,71	10,546
701,90	10,886
702,09	10,851
702,29	10,795
702,48	10,722
702,67	10,818
702,87	10,783
703,06	11,071
703,25	10,833
703,44	10,978
703,64	10,634
703,83	10,706
704,02	10,570
704,22	10,944
704,41	10,830
704,60	10,540
704,79	10,704
704,99	11,033
705,18	10,731
705,37	10,869
705,56	10,698
705,76	10,327
705,95	10,718
706,14	10,332
706,33	10,886
706,53	10,482
706,72	10,830
706,91	10,701
707,11	10,689
707,30	10,616
707,49	10,626
707,68	10,789
707,88	10,673
708,07	10,511
708,26	10,474
708,45	10,664
708,64	10,082
708,84	10,452
709,03	10,621
709,22	10,602
709,41	10,862
709,61	10,708
709,80	10,812
709,99	10,881
710,18	11,159
710,38	10,722
710,57	11,230
710,76	10,558
710,95	10,924
711,14	11,147
711,34	11,007
711,53	10,789
711,72	10,524
711,91	10,730
712,11	10,414
712,30	10,908
712,49	10,651
712,68	10,758
712,87	10,526
713,07	10,374
713,26	10,823
713,45	10,712
713,64	10,568
713,83	11,047
714,03	10,793
714,22	10,882
714,41	11,054
714,60	10,728
714,79	10,786
714,99	10,739
715,18	10,680
715,37	10,635
715,56	10,938
715,75	11,010
715,94	11,187
716,14	10,942
716,33	10,996
716,52	10,919
716,71	10,734
716,90	10,270
717,10	10,574
717,29	10,707
717,48	11,212
717,67	11,261
717,86	10,929
718,05	10,460
718,24	10,815
718,44	11,129
718,63	10,834
718,82	11,295
719,01	11,072
719,20	10,755
719,39	10,692
719,59	10,461
719,78	10,784
719,97	10,755
720,16	11,160
720,35	10,569
720,54	10,875
720,73	11,288
720,93	10,938
721,12	10,872
721,31	11,074
721,50	10,621
721,69	11,049
721,88	11,034
722,07	10,917
722,27	10,518
722,46	10,962
722,65	10,539
722,84	10,694
723,03	10,943
723,22	10,729
723,41	11,093
723,60	10,655
723,79	10,903
723,99	10,714
724,18	11,261
724,37	11,322
724,56	10,899
724,75	11,105
724,94	11,179
725,13	11,062
725,32	11,168
725,51	11,197
725,71	11,142
725,90	11,013
726,09	10,848
726,28	11,142
726,47	11,094
726,66	11,142
726,85	11,266
727,04	10,754
727,23	10,907
727,42	10,521
727,61	10,917
727,81	10,431
728,00	10,866
728,19	10,692
728,38	11,162
728,57	11,053
728,76	10,510
728,95	11,178
729,14	11,427
729,33	11,741
729,52	11,255
729,71	10,994
729,90	11,069
730,09	11,095
730,28	11,005
730,48	10,972
730,67	11,251
730,86	10,898
731,05	11,360
731,24	11,261
731,43	10,808
731,62	11,328
731,81	11,239
732,00	11,491
732,19	10,805
732,38	10,905
732,57	11,134
732,76	10,826
732,95	10,783
733,14	11,108
733,33	11,172
733,52	10,767
733,71	11,373
733,90	10,943
734,09	11,032
734,28	11,322
734,47	10,812
734,66	10,750
734,85	10,830
735,04	11,170
735,23	10,926
735,42	11,224
735,61	11,078
735,81	10,946
736,00	11,134
736,19	10,974
736,38	10,784
736,57	10,982
736,76	10,775
736,95	11,302
737,14	11,064
737,33	11,001
737,52	11,011
737,71	11,229
737,90	10,933
738,09	11,040
738,28	11,084
738,47	11,471
738,66	11,012
738,85	10,943
739,04	11,166
739,22	11,230
739,41	11,240
739,60	10,929
739,79	11,435
739,98	11,073
740,17	11,381
740,36	10,980
740,55	10,735
740,74	11,384
740,93	11,185
741,12	11,527
741,31	10,922
741,50	11,517
741,69	11,372
741,88	11,554
742,07	11,561
742,26	11,454
742,45	11,372
742,64	11,916
742,83	12,120
743,02	11,380
743,21	11,677
743,40	11,143
743,59	11,791
743,78	11,315
743,97	11,613
744,16	11,531
744,34	11,036
744,53	11,731
744,72	11,597
744,91	11,421
745,10	11,231
745,29	11,471
745,48	11,204
745,67	11,901
745,86	11,543
746,05	11,367
746,24	11,449
746,43	11,814
746,62	11,680
746,81	12,019
747,00	11,706
747,18	11,684
747,37	11,626
747,56	11,745
747,75	12,335
747,94	11,567
748,13	11,907
748,32	11,607
748,51	11,668
748,70	11,781
748,89	11,197
749,08	11,775
749,26	11,454
749,45	11,752
749,64	11,944
749,83	11,635
750,02	11,501
750,21	11,556
750,40	11,541
750,59	11,804
750,78	11,191
750,96	11,947
751,15	12,195
751,34	11,789
751,53	11,792
751,72	11,707
751,91	11,569
752,10	11,957
752,29	11,893
752,47	11,920
752,66	11,809
752,85	12,036
753,04	12,624
753,23	12,091
753,42	12,304
753,61	12,126
753,80	11,880
753,98	11,958
754,17	12,157
754,36	11,699
754,55	11,855
754,74	11,901
754,93	12,045
755,12	12,023
755,30	11,491
755,49	11,693
755,68	12,073
755,87	11,629
756,06	11,947
756,25	11,740
756,43	12,135
756,62	11,983
756,81	12,165
757,00	12,036
757,19	11,879
757,38	11,875
757,56	11,990
757,75	12,171
757,94	11,923
758,13	12,325
758,32	11,658
758,51	11,280
758,69	11,912
758,88	11,966
759,07	12,255
759,26	11,915
759,45	12,327
759,63	12,356
759,82	12,497
760,01	12,087
760,20	12,056
760,39	12,199
760,57	12,262
760,76	12,219
760,95	12,345
761,14	12,238
761,33	12,565
761,51	12,548
761,70	12,052
761,89	11,886
762,08	11,520
762,27	11,869
762,45	12,037
762,64	12,461
762,83	12,583
763,02	13,110
763,21	12,568
763,39	13,016
763,58	12,835
763,77	13,201
763,96	12,641
764,14	12,933
764,33	13,304
764,52	13,633
764,71	13,360
764,89	13,735
765,08	13,765
765,27	13,527
765,46	14,055
765,65	14,214
765,83	14,545
766,02	14,796
766,21	14,799
766,40	14,829
766,58	15,546
766,77	15,980
766,96	16,086
767,15	16,955
767,33	16,343
767,52	17,011
767,71	17,334
767,90	17,654
768,08	18,618
768,27	18,981
768,46	19,602
768,64	19,965
768,83	20,893
769,02	21,866
769,21	22,960
769,39	23,934
769,58	24,840
769,77	25,653
769,96	26,860
770,14	28,870
770,33	29,026
770,52	30,475
770,70	32,553
770,89	33,784
771,08	35,272
771,27	37,547
771,45	39,222
771,64	41,278
771,83	45,098
772,01	46,472
772,20	49,895
772,39	52,909
772,57	56,087
772,76	59,036
772,95	60,550
773,14	63,677
773,32	66,671
773,51	70,379
773,70	72,349
773,88	74,148
774,07	76,568
774,26	77,386
774,44	78,432
774,63	80,044
774,82	81,301
775,00	82,840
775,19	82,668
775,38	82,610
775,56	82,939
775,75	83,784
775,94	84,489
776,12	84,495
776,31	85,155
776,50	84,934
776,68	84,868
776,87	83,996
777,06	85,674
777,24	85,832
777,43	85,030
777,62	84,563
777,80	86,092
777,99	85,492
778,18	84,428
778,36	84,780
778,55	84,313
778,74	84,101
778,92	84,371
779,11	84,836
779,29	83,632
779,48	83,603
779,67	84,274
779,85	84,890
780,04	84,066
780,23	84,184
780,41	82,958
780,60	84,663
780,79	83,152
780,97	82,937
781,16	82,973
781,34	82,109
781,53	81,302
781,72	81,525
781,90	81,199
782,09	81,752
782,28	81,392
782,46	81,814
782,65	80,424
782,83	78,931
783,02	80,050
783,21	79,043
783,39	78,132
783,58	77,791
783,76	76,543
783,95	74,490
784,14	74,382
784,32	73,576
784,51	72,689
784,69	71,254
784,88	70,732
785,06	69,586
785,25	67,191
785,44	64,720
785,62	63,538
785,81	61,017
785,99	58,500
786,18	56,331
786,37	53,768
786,55	52,879
786,74	50,555
786,92	47,873
787,11	45,743
787,29	43,588
787,48	41,544
787,67	39,682
787,85	36,698
788,04	35,892
788,22	32,684
788,41	31,790
788,59	30,100
788,78	28,635
788,96	26,362
789,15	25,583
789,34	24,182
789,52	22,952
789,71	22,075
789,89	20,179
790,08	19,134
790,26	18,946
790,45	17,512
790,63	17,589
790,82	16,673
791,00	15,713
791,19	15,539
791,38	14,700
791,56	14,446
791,75	14,614
791,93	13,761
792,12	13,064
792,30	13,032
792,49	13,063
792,67	12,678
792,86	12,503
793,04	12,750
793,23	12,717
793,41	12,420
793,60	13,008
793,78	12,889
793,97	12,506
794,15	12,497
794,34	12,206
794,52	12,618
794,71	12,561
794,89	11,937
795,08	11,887
795,26	12,448
795,45	12,547
795,63	12,665
795,82	11,665
796,00	12,029
796,19	12,059
796,37	11,759
796,56	11,684
796,74	11,952
796,93	11,458
797,11	11,538
797,30	10,910
797,48	11,564
797,67	11,784
797,85	11,471
798,04	11,514
798,22	12,031
798,41	11,892
798,59	11,747
798,77	11,897
798,96	11,637
799,14	11,523
799,33	11,844
799,51	11,019
799,70	11,586
799,88	11,665
800,07	11,505
800,25	11,582
800,44	11,395
800,62	10,837
800,80	11,341
800,99	11,843
801,17	11,291
801,36	11,704
801,54	11,502
801,73	11,299
801,91	11,344
802,10	11,801
802,28	12,185
802,46	11,811
802,65	11,714
802,83	11,690
803,02	11,730
803,20	11,781
803,39	12,086
803,57	11,369
803,75	11,625
803,94	11,655
804,12	11,828
804,31	11,421
804,49	11,671
804,67	10,911
804,86	11,566
805,04	11,577
805,23	11,847
805,41	11,564
805,59	11,919
805,78	11,465
805,96	11,731
806,15	11,696
806,33	11,601
806,51	11,118
806,70	11,460
806,88	11,564
807,07	11,132
807,25	11,672
807,43	11,682
807,62	11,490
807,80	12,032
807,99	11,979
808,17	11,608
808,35	11,489
808,54	11,428
808,72	11,465
808,90	11,717
809,09	11,863
809,27	11,802
809,46	11,468
809,64	11,608
809,82	11,356
810,01	11,670
810,19	11,057
810,37	10,630
810,56	11,269
810,74	11,206
810,92	11,408
811,11	11,671
811,29	11,789
811,48	11,376
811,66	11,690
811,84	12,197
812,03	11,412
812,21	11,226
812,39	12,007
812,58	11,243
812,76	11,321
812,94	11,401
813,13	11,914
813,31	11,345
813,49	11,639
813,68	11,041
813,86	11,105
814,04	11,060
814,23	11,238
814,41	10,901
814,59	10,983
814,78	10,699
814,96	10,966
815,14	11,254
815,33	10,881
815,51	11,577
815,69	10,999
815,87	11,163
816,06	11,601
816,24	11,707
816,42	11,375
816,61	11,360
816,79	11,778
816,97	11,408
817,16	11,171
817,34	11,152
817,52	11,527
817,70	11,023
817,89	11,032
818,07	10,708
818,25	10,831
818,44	10,974
818,62	11,191
818,80	11,230
818,98	10,968
819,17	11,344
819,35	11,152
819,53	11,240
819,72	11,305
819,90	11,390
820,08	10,909
820,26	11,053
820,45	11,924
820,63	11,203
820,81	11,253
820,99	11,508
821,18	10,064
821,36	11,116
821,54	11,833
821,73	11,057
821,91	11,220
822,09	11,885
822,27	11,492
822,46	11,736
822,64	11,504
822,82	11,784
823,00	11,388
823,19	11,040
823,37	11,124
823,55	11,303
823,73	11,270
823,91	11,163
824,10	11,560
824,28	11,030
824,46	11,019
824,64	10,953
824,83	11,516
825,01	11,781
825,19	11,257
825,37	11,668
825,56	10,964
825,74	11,201
825,92	11,246
826,10	11,491
826,28	11,387
826,47	11,785
826,65	11,964
826,83	11,229
827,01	11,319
827,19	11,606
827,38	11,812
827,56	11,799
827,74	11,313
827,92	11,394
828,10	11,934
828,29	11,336
828,47	11,042
828,65	11,596
828,83	11,078
829,01	11,328
829,20	11,035
829,38	10,996
829,56	11,329
829,74	11,457
829,92	11,611
830,10	11,230
830,29	10,965
830,47	10,889
830,65	10,821
830,83	12,186
831,01	11,289
831,20	11,034
831,38	11,827
831,56	12,181
831,74	11,622
831,92	11,113
832,10	11,847
832,29	11,573
832,47	11,647
832,65	11,181
832,83	11,730
833,01	11,486
833,19	11,941
833,37	12,024
833,56	11,659
833,74	11,721
833,92	11,433
834,10	11,628
834,28	11,068
834,46	11,982
834,64	11,403
834,83	10,985
835,01	11,445
835,19	11,520
835,37	11,047
835,55	10,965
835,73	11,083
835,91	11,286
836,09	11,157
836,28	11,919
836,46	11,003
836,64	11,365
836,82	11,081
837,00	11,165
837,18	11,708
837,36	10,697
837,54	11,007
837,72	11,655
837,91	11,145
838,09	11,328
838,27	11,196
838,45	11,584
838,63	11,075
838,81	11,628
838,99	12,158
839,17	12,219
839,35	11,957
839,53	11,486
839,72	11,505
839,90	11,954
840,08	11,931
840,26	11,749
840,44	12,290
840,62	12,180
840,80	12,091
840,98	11,565
841,16	11,578
841,34	12,072
841,52	11,729
841,70	11,655
841,89	11,874
842,07	11,811
842,25	11,713
842,43	11,470
842,61	11,630
842,79	11,668
842,97	11,471
843,15	11,924
843,33	11,996
843,51	11,518
843,69	11,750
843,87	12,453
844,05	11,503
844,23	12,279
844,41	11,669
844,59	11,871
844,77	11,876
844,95	11,876
845,13	11,634
845,31	10,882
845,50	12,071
845,68	11,581
845,86	11,670
846,04	11,250
846,22	10,777
846,40	11,437
846,58	11,523
846,76	11,834
846,94	11,989
847,12	11,684
847,30	11,138
847,48	11,583
847,66	11,248
847,84	11,584
848,02	11,467
848,20	12,021
848,38	11,589
848,56	11,457
848,74	11,676
848,92	11,897
849,10	11,390
849,28	11,333
849,46	11,589
849,64	11,582
849,82	11,735
850,00	11,381
850,18	11,570
850,36	12,036
850,54	11,736
850,72	11,807
850,90	11,719
851,08	12,851
851,26	11,872
851,44	12,148
851,62	11,610
851,80	11,234
851,98	12,017
852,16	12,567
852,34	11,491
852,52	11,469
852,70	11,461
852,87	11,430
853,05	11,326
853,23	11,367
853,41	11,611
853,59	11,281
853,77	10,702
853,95	11,136
854,13	11,151
854,31	11,491
854,49	12,115
854,67	11,547
854,85	12,095
855,03	11,934
855,21	11,948
855,39	11,870
855,57	12,271
855,75	12,353
855,93	12,016
856,11	11,199
856,28	11,003
856,46	11,469
856,64	11,249
856,82	11,974
857,00	11,281
857,18	11,667
857,36	11,792
857,54	12,417
857,72	11,307
857,90	11,567
858,08	12,125
858,26	12,128
858,44	12,043
858,61	11,515
858,79	11,763
858,97	11,448
859,15	11,715
859,33	11,603
859,51	12,145
859,69	11,465
859,87	11,321
860,05	11,596
860,23	11,493
860,40	11,644
860,58	11,220
860,76	11,552
860,94	11,934
861,12	12,428
861,30	11,554
861,48	12,075
861,66	11,692
861,84	12,127
862,01	12,000
862,19	12,030
862,37	11,980
862,55	11,990
862,73	12,868
862,91	12,221
863,09	12,602
863,27	12,252
863,44	12,683
863,62	13,183
863,80	12,762
863,98	12,177
864,16	12,477
864,34	12,389
864,52	12,946
864,69	13,209
864,87	12,701
865,05	12,890
865,23	13,206
865,41	13,591
865,59	13,833
865,76	14,153
865,94	14,601
866,12	15,186
866,30	14,450
866,48	15,248
866,66	15,537
866,83	16,649
867,01	16,463
867,19	17,071
867,37	17,484
867,55	17,799
867,73	18,385
867,90	17,862
868,08	19,591
868,26	19,082
868,44	19,172
868,62	19,990
868,79	21,171
868,97	20,913
869,15	22,740
869,33	22,735
869,51	23,151
869,69	23,620
869,86	24,949
870,04	25,587
870,22	26,067
870,40	27,081
870,57	28,398
870,75	29,534
870,93	30,259
871,11	31,745
871,29	32,799
871,46	35,239
871,64	36,933
871,82	37,965
872,00	40,482
872,18	41,770
872,35	44,248
872,53	48,400
872,71	50,121
872,89	52,532
873,06	56,438
873,24	57,829
873,42	61,694
873,60	64,129
873,77	67,577
873,95	70,109
874,13	71,823
874,31	74,732
874,49	75,757
874,66	77,119
874,84	77,549
875,02	80,178
875,20	80,011
875,37	80,345
875,55	79,248
875,73	81,781
875,91	79,924
876,08	80,410
876,26	81,020
876,44	80,197
876,61	80,033
876,79	81,017
876,97	79,255
877,15	79,140
877,32	80,164
877,50	79,202
877,68	80,554
877,86	80,617
878,03	79,826
878,21	79,406
878,39	79,637
878,56	78,679
878,74	78,307
878,92	77,794
879,10	77,355
879,27	77,276
879,45	76,646
879,63	76,437
879,80	77,321
879,98	76,978
880,16	76,009
880,34	75,650
880,51	75,173
880,69	74,303
880,87	73,302
881,04	72,802
881,22	71,838
881,40	72,113
881,57	70,747
881,75	70,997
881,93	70,929
882,10	67,739
882,28	67,357
882,46	67,671
882,63	67,311
882,81	63,865
882,99	65,141
883,16	62,617
883,34	62,264
883,52	60,539
883,69	59,242
883,87	56,006
884,05	54,455
884,22	52,590
884,40	49,504
884,58	45,576
884,75	42,848
884,93	39,022
885,11	34,376
885,28	31,687
885,46	28,089
885,64	24,349
885,81	22,382
885,99	20,055
886,17	17,705
886,34	15,969
886,52	15,282
886,70	13,872
886,87	13,119
887,05	12,519
887,22	12,481
887,40	12,267
887,58	12,288
887,75	11,496
887,93	11,399
888,11	11,202
888,28	10,024
888,46	10,954
888,63	10,436
888,81	10,623
888,99	10,381
889,16	10,020
889,34	10,635
889,51	10,079
889,69	9,698
889,87	10,069
890,04	10,316
890,22	10,879
890,39	10,344
890,57	10,917
890,75	10,298
890,92	10,730
891,10	10,216
891,27	9,796
891,45	10,304
891,63	10,806
891,80	10,055
891,98	10,307
892,15	10,449
892,33	10,352
892,51	10,234
892,68	9,713
892,86	9,672
893,03	10,282
893,21	9,822
893,38	10,249
893,56	9,750
893,74	9,406
893,91	9,910
894,09	10,036
894,26	9,358
894,44	9,419
894,61	8,828
894,79	9,611
894,96	9,592
895,14	9,799
895,32	10,410
895,49	9,472
895,67	8,946
895,84	9,581
896,02	9,148
896,19	9,152
896,37	9,725
896,54	9,032
896,72	9,363
896,89	9,426
897,07	9,310
897,25	9,195
897,42	9,120
897,60	10,202
897,77	10,068
897,95	8,810
898,12	9,174
898,30	9,088
898,47	8,660
898,65	9,153
898,82	8,436
899,00	9,190
899,17	8,901
899,35	9,341
899,52	9,361
899,70	8,798
899,87	9,197
900,05	9,563
900,22	9,644
900,40	9,569
900,57	8,918
900,75	9,614
900,92	8,479
901,10	9,343
901,27	8,828
901,45	8,932
901,62	9,761
901,80	9,066
901,97	9,049
902,15	9,362
902,32	9,147
902,50	9,505
902,67	8,668
902,85	8,944
903,02	8,802
903,20	9,088
903,37	8,999
903,54	8,944
903,72	8,595
903,89	8,904
904,07	9,140
904,24	9,316
904,42	8,293
904,59	9,566
904,77	9,270
904,94	9,451
905,12	8,827
905,29	9,275
905,47	8,827
905,64	9,289
905,81	9,174
905,99	9,108
906,16	9,225
906,34	9,038
906,51	8,354
906,69	8,951
906,86	8,893
907,03	9,135
907,21	9,240
907,38	8,726
907,56	8,397
907,73	8,549
907,91	9,055
908,08	8,613
908,25	8,966
908,43	9,152
908,60	8,443
908,78	8,712
908,95	9,287
909,13	8,630
909,30	7,855
909,47	8,062
909,65	8,550
909,82	8,417
910,00	8,172
910,17	8,175
910,34	8,363
910,52	8,219
910,69	8,388
910,87	7,921
911,04	7,791
911,21	8,389
911,39	7,955
911,56	8,274
911,73	8,477
911,91	7,954
912,08	8,248
912,26	8,068
912,43	8,713
912,60	8,943
912,78	8,526
912,95	7,941
913,13	8,122
913,30	8,267
913,47	7,746
913,65	8,169
913,82	8,619
913,99	7,915
914,17	8,329
914,34	8,605
914,51	8,285
914,69	7,790
914,86	9,001
915,03	8,109
915,21	7,964
915,38	8,324
915,56	7,873
915,73	7,687
915,90	7,744
916,08	8,217
916,25	7,561
916,42	7,570
916,60	7,133
916,77	7,546
916,94	7,439
917,12	7,557
917,29	6,886
917,46	8,092
917,64	7,384
917,81	7,134
917,98	7,734
918,16	6,706
918,33	7,928
918,50	7,691
918,67	7,968
918,85	7,867
919,02	7,575
919,19	7,797
919,37	7,389
919,54	7,342
919,71	7,446
919,89	7,052
920,06	7,330
920,23	7,060
920,41	7,516
920,58	7,409
920,75	7,434
920,92	7,235
921,10	7,116
921,27	6,429
921,44	7,393
921,62	7,168
921,79	7,106
921,96	8,163
922,13	7,501
922,31	7,113
922,48	8,016
922,65	7,111
922,82	7,567
923,00	7,027
923,17	6,635
923,34	6,881
923,52	7,131
923,69	6,682
923,86	6,865
924,03	6,724
924,21	6,731
924,38	6,565
924,55	7,010
924,72	6,333
924,90	6,276
925,07	7,626
925,24	6,082
925,41	6,665
925,59	6,286
925,76	6,600
925,93	6,447
926,10	5,662
926,28	7,035
926,45	6,092
926,62	6,736
926,79	5,775
926,96	6,067
927,14	6,515
927,31	6,394
927,48	6,297
927,65	6,555
927,83	6,869
928,00	6,443
928,17	6,833
928,34	5,999
928,51	6,542
928,69	5,982
928,86	6,305
929,03	6,399
929,20	6,317
929,37	6,147
929,55	6,604
929,72	6,297
929,89	5,652
930,06	5,574
930,23	6,238
930,41	6,709
930,58	6,340
930,75	6,324
930,92	6,151
931,09	6,226
931,27	5,695
931,44	6,281
931,61	5,682
931,78	5,917
931,95	5,872
932,12	6,700
932,30	6,498
932,47	6,462
932,64	5,937
932,81	5,370
932,98	6,008
933,16	6,228
933,33	6,147
933,50	5,707
933,67	5,985
933,84	5,621
934,01	5,959
934,18	5,202
934,36	5,406
934,53	5,945
934,70	5,511
934,87	6,376
935,04	6,354
935,21	6,204
935,38	5,592
935,56	6,122
935,73	5,751
935,90	5,831
936,07	6,003
936,24	6,027
936,41	6,355
936,58	5,737
936,76	5,877
936,93	5,931
937,10	5,677
937,27	5,696
937,44	5,655
937,61	6,156
937,78	6,013
937,95	6,471
938,13	5,573
938,30	5,580
938,47	5,752
938,64	5,648
938,81	5,660
938,98	5,879
939,15	5,256
939,32	5,636
939,49	5,311
939,66	5,601
939,84	6,259
940,01	5,505
940,18	5,938
940,35	5,134
940,52	5,082
940,69	6,060
940,86	5,867
941,03	5,694
941,20	5,672
941,37	5,560
941,54	5,620
941,71	5,556
941,89	6,253
942,06	5,801
942,23	5,839
942,40	5,974
942,57	5,704
942,74	5,650
942,91	5,807
943,08	6,107
943,25	6,007
943,42	5,405
943,59	6,213
943,76	6,250
943,93	5,516
944,10	5,585
944,27	5,235
944,44	5,815
944,61	6,345
944,79	6,364
944,96	5,897
945,13	5,543
945,30	5,635
945,47	6,207
945,64	5,600
945,81	5,866
945,98	5,976
946,15	5,631
946,32	5,745
946,49	4,752
946,66	5,292
946,83	5,660
947,00	6,141
947,17	6,063
947,34	5,850
947,51	5,709
947,68	6,221
947,85	5,400
948,02	5,889
948,19	4,805
948,36	5,931
948,53	5,332
948,70	6,245
948,87	5,427
949,04	5,043
949,21	4,972
949,38	6,508
949,55	6,158
949,72	5,713
949,89	5,817
950,06	6,148
950,23	4,983
950,40	5,550
950,57	5,752
950,74	5,570
950,91	6,000
951,08	6,053
951,25	6,410
951,42	6,524
951,59	5,968
951,76	5,873
951,93	5,739
952,10	6,583
952,27	6,294
952,44	5,890
952,61	5,613
952,77	6,907
952,94	5,893
953,11	6,500
953,28	6,122
953,45	5,535
953,62	6,208
953,79	5,907
953,96	6,158
954,13	7,592
954,30	6,833
954,47	5,556
954,64	6,488
954,81	6,710
954,98	8,046
955,15	5,895
955,32	6,268
955,49	6,327
955,65	6,031
955,82	6,010
955,99	6,145
956,16	6,547
956,33	7,361
956,50	6,580
956,67	6,649
956,84	6,986
957,01	5,674
957,18	6,469
957,35	7,272
957,52	7,805
957,68	6,189
957,85	6,683
958,02	7,162
958,19	6,974
958,36	8,178
958,53	8,318
958,70	7,541
958,87	8,170
959,04	6,987
959,21	6,275
959,37	7,515
959,54	8,084
959,71	8,006
959,88	8,520
960,05	8,160
960,22	7,869
960,39	7,843
960,56	7,722
960,72	8,991
960,89	8,709
961,06	8,920
961,23	10,042
961,40	8,260
961,57	8,342
961,74	8,295
961,90	8,262
962,07	8,974
962,24	9,397
962,41	7,444
962,58	8,049
962,75	8,396
962,92	8,111
963,08	8,019
963,25	8,862
963,42	8,537
963,59	7,620
963,76	7,517
963,93	9,266
964,10	9,859
964,26	9,072
964,43	7,488
964,60	8,365
964,77	9,198
964,94	9,414
965,10	8,387
965,27	8,440
965,44	8,446
965,61	7,407
965,78	11,086
965,95	8,771
966,11	9,797
966,28	8,336
966,45	8,730
966,62	9,397
966,79	9,143
966,95	8,819
967,12	9,495
967,29	7,188
967,46	10,445
967,63	10,733
967,79	10,680
967,96	9,928
968,13	8,778
968,30	7,957
968,47	8,359
968,63	8,542
968,80	8,484
968,97	9,263
969,14	7,050
969,31	9,346
969,47	8,878
969,64	9,594
969,81	8,051
969,98	7,781
970,14	9,349
970,31	9,887
970,48	9,815
970,65	7,609
970,81	8,716
970,98	7,730
971,15	10,285
971,32	8,072
971,48	9,029
971,65	8,327
971,82	10,193
971,99	8,258
972,15	10,920
972,32	8,931
972,49	8,745
972,66	10,350
972,82	9,657
972,99	9,495
973,16	9,244
973,33	9,589
973,49	10,036
973,66	9,880
973,83	9,799
974,00	10,657
974,16	8,784
974,33	9,262
974,50	9,194
974,67	8,785
974,83	8,567
975,00	8,778
975,17	7,859
975,33	10,122
975,50	9,091
975,67	6,541
975,84	7,704
976,00	9,109
976,17	9,091
976,34	7,192
976,50	9,664
976,67	8,789
976,84	9,149
977,00	10,130
977,17	10,478
977,34	7,376
977,50	6,513
977,67	7,530
977,84	6,775
978,01	9,165
978,17	7,909
978,34	10,577
978,51	6,901
978,67	8,597
978,84	8,782
979,01	10,081
979,17	9,376
979,34	11,535
979,51	9,509
979,67	7,597
979,84	9,030
980,01	10,509
980,17	7,937
980,34	10,337
980,51	11,159
980,67	12,753
980,84	9,130
981,01	9,445
981,17	8,742
981,34	11,880
981,50	10,774
981,67	9,556
981,84	9,598
982,00	6,970
982,17	12,803
982,34	10,611
982,50	9,837
982,67	9,976
982,84	7,700
983,00	8,119
983,17	8,617
983,33	8,252
983,50	7,555
983,67	10,828
983,83	9,482
984,00	7,685
984,17	9,886
984,33	7,164
984,50	9,012
984,66	9,377
984,83	8,012
985,00	8,484
985,16	7,909
985,33	10,567
985,49	9,475
985,66	10,125
985,83	6,516
985,99	8,775
986,16	9,063
986,32	9,651
986,49	11,898
986,66	9,105
986,82	10,883
986,99	6,098
987,15	8,239
987,32	8,809
987,49	8,616
987,65	10,071
987,82	9,250
987,98	8,527
988,15	9,686
988,31	11,367
988,48	9,286
988,65	7,395
988,81	10,372
988,98	10,681
989,14	8,370
989,31	12,250
989,47	12,394
989,64	9,701
989,80	8,303
989,97	10,182
990,14	8,121
990,30	10,608
990,47	10,312
990,63	9,250
990,80	11,852
990,96	8,660
991,13	8,570
991,29	9,081
991,46	11,212
991,62	9,008
991,79	8,063
991,95	8,392
992,12	11,296
992,29	10,928
992,45	9,885
992,62	8,166
992,78	8,818
992,95	9,872
993,11	11,422
993,28	9,335
993,44	7,215
993,61	9,899
993,77	5,769
993,94	8,858
994,10	10,508
994,27	8,116
994,43	7,614
994,60	9,628
994,76	10,370
994,93	8,333
995,09	11,594
995,26	11,334
995,42	8,323
995,59	6,116
995,75	9,411
995,92	8,809
996,08	14,152
996,25	8,393
996,41	11,147
996,58	11,631
996,74	10,460
996,91	6,815
997,07	7,359
997,23	8,182
997,40	8,748
997,56	6,585
997,73	10,975
997,89	8,014
998,06	12,517
998,22	7,800
998,39	4,904
998,55	9,271
998,72	9,180
998,88	10,608
999,05	10,806
999,21	9,631
999,37	7,416
999,54	11,498
999,70	8,247
999,87	11,001
1000,03	8,599
1000,20	9,653
1000,36	7,822
1000,52	8,423
1000,69	11,334
1000,85	10,656
1001,02	9,290
1001,18	9,657
1001,35	10,303
1001,51	11,584
1001,67	8,451
1001,84	11,547
1002,00	6,835
1002,17	9,325
1002,33	9,724
1002,50	8,234
1002,66	7,271
1002,82	7,525
1002,99	8,589
1003,15	11,520
1003,32	9,327
1003,48	8,777
1003,64	8,091
1003,81	11,621
1003,97	11,953
1004,14	8,047
1004,30	5,656
1004,46	6,225
1004,63	8,081
1004,79	11,120
1004,95	11,626
1005,12	11,934
1005,28	13,835
1005,45	11,832
1005,61	11,513
1005,77	10,146
1005,94	12,623
1006,10	13,849
1006,26	12,966
1006,43	10,277
1006,59	4,475
1006,76	9,859
1006,92	10,926
1007,08	9,662
1007,25	8,579
1007,41	3,635
1007,57	10,064
1007,74	9,154
1007,90	7,333
1008,06	10,045
1008,23	10,297
1008,39	8,091
1008,55	11,816
1008,72	10,602
1008,88	9,083
1009,04	8,347
1009,21	5,054
1009,37	8,852
1009,53	6,750
1009,70	6,443
1009,86	9,856
1010,02	8,878
1010,19	6,228
1010,35	5,618
1010,51	7,348
1010,68	8,914
1010,84	8,587
1011,00	10,776
1011,17	8,076
1011,33	6,047
1011,49	11,141
1011,66	8,083
1011,82	7,699
1011,98	3,153
1012,14	6,870
1012,31	9,448
1012,47	8,410
1012,63	9,963
1012,80	9,228
1012,96	10,477
1013,12	6,745
1013,29	11,724
1013,45	6,940
1013,61	13,129
1013,77	7,910
1013,94	9,256
1014,10	7,260
1014,26	5,269
1014,43	11,443
1014,59	8,351
1014,75	10,725
1014,91	7,320
1015,08	9,869
1015,24	12,805
1015,40	5,672
1015,56	5,596
1015,73	11,515
1015,89	7,400
1016,05	3,779
1016,21	9,619
1016,38	8,548
1016,54	9,261
1016,70	7,612
1016,86	3,098
1017,03	2,935
1017,19	8,619
1017,35	10,817
1017,51	9,034
1017,68	7,288
1017,84	3,640
1018,00	7,701
1018,16	9,637
1018,33	12,608
1018,49	6,810
1018,65	3,939
1018,81	10,345
1018,97	8,864
1019,14	12,556
1019,30	7,253
1019,46	9,567
1019,62	0,773
1019,79	9,144
1019,95	12,666
1020,11	10,900
1020,27	6,788
1020,43	8,501
1020,60	8,912
1020,76	5,584
1020,92	6,977
1021,08	6,960
1021,24	13,033
1021,41	8,352
1021,57	11,858
1021,73	5,534
1021,89	5,019
1022,05	11,928
1022,21	9,206
1022,38	12,242
1022,54	6,790
1022,70	6,105
1022,86	6,884
1023,02	10,091
1023,19	10,610
1023,35	-1,771
1023,51	11,887
1023,67	7,874
1023,83	11,924
1023,99	10,925
1024,16	6,555
1024,32	0,000
1024,48	5,929
1024,64	7,102
1024,80	4,828
1024,96	-1,449
1025,12	17,089
1025,29	11,174
1025,45	8,609
1025,61	10,596
1025,77	4,348
1025,93	10,215
1026,09	13,680
1026,26	4,971
1026,42	12,221
1026,58	12,963
1026,74	3,672
1026,90	12,215
1027,06	1,749
1027,22	10,128
1027,38	8,689
1027,55	9,639
1027,71	13,486
1027,87	8,787
1028,03	12,680
1028,19	1,906
1028,35	9,063
1028,51	8,309
1028,67	7,078
1028,83	3,221
1029,00	9,929
1029,16	10,116
1029,32	8,060
1029,48	2,367
1029,64	10,511
1029,80	9,091
1029,96	7,120
1030,12	8,464
1030,28	2,521
1030,44	9,130
1030,61	7,278
1030,77	3,247
1030,93	7,089
1031,09	8,209
1031,25	3,361
1031,41	11,215
1031,57	3,393
1031,73	6,992
1031,89	5,132
1032,05	6,061
1032,21	5,500
1032,37	-0,551
1032,53	6,070
1032,69	7,806
1032,86	-1,386
1033,02	10,624
1033,18	2,397
1033,34	5,604
1033,50	9,850
1033,66	7,428
1033,82	11,795
1033,98	6,306
1034,14	6,305
1034,30	6,383
1034,46	10,912
1034,62	5,524
1034,78	0,687
1034,94	12,984
1035,10	6,642
1035,26	12,165
1035,42	2,632
1035,58	13,534
1035,74	4,200
1035,90	5,049
1036,06	7,010
1036,22	11,250
1036,38	13,873
1036,54	5,765
1036,70	1,403
1036,86	9,387
1037,02	3,048
1037,18	13,396
1037,34	2,614
1037,50	2,479
1037,66	15,976
1037,82	2,548
1037,98	-0,380
1038,14	7,676
1038,30	12,377
1038,46	12,046
1038,62	3,992
1038,78	8,367
1038,94	4,017
1039,10	6,420
1039,26	3,712
1039,42	18,236
1039,58	0,665
1039,74	6,682
1039,90	5,645
1040,06	2,926
>>>>>End Processed Spectral Data<<<<<
