SpectraSuite Data File
++++++++++++++++++++++++++++++++++++
Date: Thu Feb 02 18:38:52 EET 2017
User: optolab
Dark Spectrum Present: Yes
Reference Spectrum Present: Yes
Number of Sampled Component Spectra: 1
Spectrometers: USB4C02475
Integration Time (usec): 151411 (USB4C02475)
Spectra Averaged: 1 (USB4C02475)
Boxcar Smoothing: 0 (USB4C02475)
Correct for Electrical Dark: No (USB4C02475)
Strobe/Lamp Enabled: No (USB4C02475)
Correct for Detector Non-linearity: No (USB4C02475)
Correct for Stray Light: No (USB4C02475)
Number of Pixels in Processed Spectrum: 3648
>>>>>Begin Processed Spectral Data<<<<<
344,91	170,370
345,13	170,370
345,35	170,370
345,57	150,000
345,79	-138,462
346,00	40,000
346,22	72,973
346,44	-200,000
346,66	1166,667
346,87	140,000
347,09	-250,000
347,31	3300,000
347,53	33,333
347,74	-112,500
347,96	244,444
348,18	53,659
348,40	-260,000
348,61	54,902
348,83	-75,000
349,05	23,636
349,27	-1,471
349,48	33,333
349,70	85,455
349,92	-14,634
350,14	-100,000
350,35	3,846
350,57	33,824
350,79	72,340
351,01	0,000
351,22	471,429
351,44	-44,444
351,66	48,780
351,87	-31,818
352,09	5,769
352,31	186,957
352,53	112,903
352,74	-59,375
352,96	29,592
353,18	227,273
353,40	96,429
353,61	31,667
353,83	24,000
354,05	68,966
354,26	-70,455
354,48	-54,545
354,70	55,000
354,92	60,317
355,13	22,449
355,35	1350,000
355,57	38,961
355,78	87,500
356,00	55,814
356,22	47,761
356,44	0,000
356,65	87,179
356,87	71,605
357,09	18,841
357,30	64,865
357,52	-8,571
357,74	83,077
357,95	111,111
358,17	8,333
358,39	475,000
358,60	26,316
358,82	56,944
359,04	355,556
359,26	88,889
359,47	93,103
359,69	575,000
359,91	21,875
360,12	0,000
360,34	368,421
360,56	4,211
360,77	53,704
360,99	-40,000
361,21	116,667
361,42	7,500
361,64	63,636
361,86	56,044
362,07	30,693
362,29	-414,286
362,51	18,519
362,72	40,000
362,94	-55,000
363,16	53,623
363,37	59,375
363,59	32,967
363,81	69,492
364,02	81,818
364,24	44,615
364,46	-76,000
364,67	-75,000
364,89	45,946
365,11	-333,333
365,32	114,035
365,54	13,043
365,76	28,750
365,97	27,143
366,19	-45,614
366,41	63,077
366,62	77,143
366,84	-10,000
367,05	-26,389
367,27	95,455
367,49	81,818
367,70	44,565
367,92	55,696
368,14	1,075
368,35	17,284
368,57	32,222
368,79	20,270
369,00	57,857
369,22	47,917
369,43	32,653
369,65	28,571
369,87	44,444
370,08	2,899
370,30	24,706
370,51	58,779
370,73	11,111
370,95	-5,155
371,16	-9,091
371,38	-13,699
371,60	-27,907
371,81	70,526
372,03	-3,636
372,24	-152,632
372,46	-15,000
372,68	54,430
372,89	15,789
373,11	-29,630
373,32	-9,524
373,54	3,125
373,76	18,487
373,97	27,642
374,19	76,667
374,40	48,696
374,62	0,000
374,84	8,738
375,05	5,263
375,27	-4,762
375,48	7,792
375,70	25,676
375,92	-17,391
376,13	52,381
376,35	8,537
376,56	19,231
376,78	3,846
376,99	-58,442
377,21	32,540
377,43	25,000
377,64	27,119
377,86	4,301
378,07	45,789
378,29	0,909
378,51	50,000
378,72	-41,667
378,94	2,098
379,15	-6,338
379,37	22,628
379,58	24,786
379,80	29,834
380,01	19,000
380,23	8,955
380,45	-15,000
380,66	35,417
380,88	21,765
381,09	-28,409
381,31	22,941
381,52	42,568
381,74	13,836
381,95	-23,684
382,17	20,787
382,39	31,325
382,60	15,827
382,82	1,418
383,03	-1,667
383,25	10,638
383,46	36,522
383,68	32,278
383,89	40,659
384,11	-7,738
384,32	30,714
384,54	-17,143
384,76	38,728
384,97	12,500
385,19	24,800
385,40	8,333
385,62	15,957
385,83	32,903
386,05	-16,084
386,26	20,635
386,48	15,584
386,69	20,800
386,91	34,595
387,12	27,128
387,34	-8,840
387,55	1,961
387,77	-9,091
387,98	24,537
388,20	4,762
388,41	10,040
388,63	15,238
388,84	2,685
389,06	9,836
389,27	22,120
389,49	18,932
389,70	22,340
389,92	33,498
390,13	5,405
390,35	27,679
390,56	23,361
390,78	3,766
390,99	2,073
391,21	17,647
391,42	30,364
391,64	20,126
391,85	29,744
392,07	26,923
392,28	37,302
392,50	25,385
392,71	-2,513
392,93	7,469
393,14	-0,546
393,36	18,018
393,57	29,185
393,79	5,479
394,00	-34,706
394,22	-3,518
394,43	-9,251
394,65	22,407
394,86	8,745
395,08	-17,341
395,29	-16,000
395,50	29,386
395,72	5,957
395,93	8,678
396,15	23,273
396,36	13,366
396,58	2,242
396,79	17,466
397,01	18,143
397,22	9,363
397,44	20,253
397,65	16,254
397,87	17,375
398,08	22,977
398,29	13,468
398,51	19,174
398,72	16,544
398,94	7,586
399,15	28,516
399,37	10,274
399,58	9,412
399,80	22,414
400,01	7,599
400,22	15,385
400,44	1,255
400,65	19,000
400,87	10,458
401,08	5,724
401,30	4,778
401,51	11,236
401,72	9,926
401,94	18,182
402,15	16,176
402,37	21,429
402,58	3,679
402,80	16,076
403,01	6,842
403,22	16,193
403,44	20,408
403,65	2,448
403,87	-2,462
404,08	12,171
404,30	13,483
404,51	13,803
404,72	14,985
404,94	12,467
405,15	10,884
405,37	14,681
405,58	17,402
405,79	18,351
406,01	14,763
406,22	8,122
406,44	10,761
406,65	12,349
406,86	16,977
407,08	15,877
407,29	17,039
407,51	16,053
407,72	14,324
407,93	7,916
408,15	10,024
408,36	8,293
408,58	3,917
408,79	16,623
409,00	10,278
409,22	14,583
409,43	5,000
409,64	10,200
409,86	9,281
410,07	16,812
410,29	9,333
410,50	7,755
410,71	10,526
410,93	12,045
411,14	18,004
411,35	1,639
411,57	1,598
411,78	9,978
412,00	14,903
412,21	8,516
412,42	8,605
412,64	6,852
412,85	-0,674
413,06	16,067
413,28	12,944
413,49	4,034
413,70	9,962
413,92	12,000
414,13	10,794
414,34	12,929
414,56	6,731
414,77	13,346
414,98	11,028
415,20	0,584
415,41	15,190
415,63	2,708
415,84	16,606
416,05	12,079
416,27	16,423
416,48	8,103
416,69	6,457
416,91	11,089
417,12	5,333
417,33	2,809
417,55	9,660
417,76	15,290
417,97	14,731
418,19	3,558
418,40	12,326
418,61	11,742
418,83	10,674
419,04	13,005
419,25	13,175
419,46	5,937
419,68	10,968
419,89	8,481
420,10	17,957
420,32	7,264
420,53	9,283
420,74	9,060
420,96	7,738
421,17	7,448
421,38	12,113
421,60	8,464
421,81	8,030
422,02	3,110
422,23	9,663
422,45	2,614
422,66	0,809
422,87	12,224
423,09	8,621
423,30	3,894
423,51	0,621
423,73	7,040
423,94	12,948
424,15	9,972
424,36	7,784
424,58	7,454
424,79	11,111
425,00	7,114
425,22	10,759
425,43	6,300
425,64	7,391
425,85	12,500
426,07	3,134
426,28	8,706
426,49	12,010
426,71	10,561
426,92	10,475
427,13	7,224
427,34	7,754
427,56	10,046
427,77	10,923
427,98	4,213
428,19	9,602
428,41	10,520
428,62	8,661
428,83	5,876
429,04	10,995
429,26	12,875
429,47	10,475
429,68	8,141
429,89	4,618
430,11	8,121
430,32	7,082
430,53	8,786
430,74	2,968
430,96	7,932
431,17	9,434
431,38	8,627
431,59	5,855
431,81	10,053
432,02	9,330
432,23	4,294
432,44	1,952
432,66	9,106
432,87	10,801
433,08	6,714
433,29	4,160
433,51	4,333
433,72	4,675
433,93	6,379
434,14	9,056
434,35	6,834
434,57	10,319
434,78	2,991
434,99	7,948
435,20	8,363
435,42	6,159
435,63	9,067
435,84	5,614
436,05	4,746
436,26	8,959
436,48	3,464
436,69	5,986
436,90	4,750
437,11	7,907
437,32	6,195
437,54	4,881
437,75	7,889
437,96	4,919
438,17	6,341
438,38	6,602
438,60	3,022
438,81	5,471
439,02	4,935
439,23	6,341
439,44	5,477
439,66	6,522
439,87	2,494
440,08	8,017
440,29	6,975
440,50	3,732
440,72	3,790
440,93	4,600
441,14	4,041
441,35	3,917
441,56	4,216
441,77	3,918
441,99	5,332
442,20	3,256
442,41	4,924
442,62	5,896
442,83	5,621
443,04	4,012
443,26	4,310
443,47	5,377
443,68	3,215
443,89	5,535
444,10	3,448
444,31	3,438
444,53	3,956
444,74	4,070
444,95	3,740
445,16	3,850
445,37	3,445
445,58	3,827
445,80	3,689
446,01	1,926
446,22	3,554
446,43	2,621
446,64	3,577
446,85	3,594
447,06	3,804
447,28	1,406
447,49	2,728
447,70	2,218
447,91	3,398
448,12	4,074
448,33	3,710
448,54	2,660
448,76	2,218
448,97	3,379
449,18	2,529
449,39	2,602
449,60	2,670
449,81	3,341
450,02	2,386
450,23	2,354
450,45	1,947
450,66	1,750
450,87	3,018
451,08	2,940
451,29	2,193
451,50	1,855
451,71	2,730
451,92	2,407
452,13	2,256
452,35	2,642
452,56	2,036
452,77	1,469
452,98	2,759
453,19	1,788
453,40	2,104
453,61	2,257
453,82	2,004
454,03	2,248
454,25	1,287
454,46	1,481
454,67	1,826
454,88	1,876
455,09	1,378
455,30	2,080
455,51	1,300
455,72	1,750
455,93	1,826
456,14	2,054
456,35	1,595
456,56	1,603
456,78	1,914
456,99	1,315
457,20	1,263
457,41	1,225
457,62	1,448
457,83	1,266
458,04	1,288
458,25	1,485
458,46	1,023
458,67	1,412
458,88	1,283
459,09	1,208
459,30	1,496
459,51	1,333
459,73	1,168
459,94	1,245
460,15	1,119
460,36	1,008
460,57	1,312
460,78	1,141
460,99	1,423
461,20	0,853
461,41	1,003
461,62	0,738
461,83	1,247
462,04	1,075
462,25	1,179
462,46	1,020
462,67	1,026
462,88	1,247
463,09	1,103
463,30	1,075
463,51	1,178
463,72	1,149
463,93	1,193
464,15	1,002
464,36	1,154
464,57	1,218
464,78	1,192
464,99	1,116
465,20	1,042
465,41	1,241
465,62	1,195
465,83	1,187
466,04	0,783
466,25	1,109
466,46	1,111
466,67	1,091
466,88	1,104
467,09	1,036
467,30	1,023
467,51	0,849
467,72	1,103
467,93	1,002
468,14	1,135
468,35	0,932
468,56	0,936
468,77	1,039
468,98	1,250
469,19	1,045
469,40	1,140
469,61	1,240
469,82	1,032
470,03	1,076
470,24	0,965
470,45	1,222
470,66	1,034
470,87	1,298
471,08	1,219
471,29	1,075
471,50	1,213
471,71	1,284
471,92	1,248
472,13	1,049
472,34	1,088
472,55	1,372
472,76	1,139
472,97	1,274
473,18	1,208
473,39	1,377
473,60	1,459
473,81	1,323
474,01	1,185
474,22	1,101
474,43	1,578
474,64	1,419
474,85	1,447
475,06	1,409
475,27	1,410
475,48	1,765
475,69	1,626
475,90	1,677
476,11	1,579
476,32	1,639
476,53	1,629
476,74	1,691
476,95	1,676
477,16	1,833
477,37	1,852
477,58	1,689
477,79	1,699
478,00	1,829
478,21	1,897
478,41	1,735
478,62	1,608
478,83	2,011
479,04	1,717
479,25	1,894
479,46	1,719
479,67	2,198
479,88	1,858
480,09	1,917
480,30	2,216
480,51	2,028
480,72	2,092
480,93	2,250
481,14	1,928
481,34	2,035
481,55	2,035
481,76	2,029
481,97	2,023
482,18	2,277
482,39	2,185
482,60	2,109
482,81	2,238
483,02	1,998
483,23	2,360
483,44	2,194
483,65	2,415
483,85	2,220
484,06	2,050
484,27	2,168
484,48	2,252
484,69	2,417
484,90	2,575
485,11	2,074
485,32	2,245
485,53	2,419
485,73	2,389
485,94	2,515
486,15	2,166
486,36	2,404
486,57	2,423
486,78	2,565
486,99	2,331
487,20	2,457
487,41	2,514
487,61	2,646
487,82	2,538
488,03	2,406
488,24	2,336
488,45	2,341
488,66	2,440
488,87	2,427
489,08	2,008
489,28	2,573
489,49	2,365
489,70	2,465
489,91	2,443
490,12	2,397
490,33	2,420
490,54	2,325
490,74	2,791
490,95	2,396
491,16	2,704
491,37	2,594
491,58	2,653
491,79	2,855
492,00	2,218
492,20	2,653
492,41	2,464
492,62	2,851
492,83	2,688
493,04	2,736
493,25	2,636
493,45	2,970
493,66	2,906
493,87	2,517
494,08	2,904
494,29	2,645
494,50	2,864
494,70	2,939
494,91	2,901
495,12	2,879
495,33	2,781
495,54	2,930
495,75	2,979
495,95	2,807
496,16	2,840
496,37	2,812
496,58	2,749
496,79	2,839
496,99	2,744
497,20	2,733
497,41	2,881
497,62	2,612
497,83	2,838
498,04	2,853
498,24	3,109
498,45	2,887
498,66	2,911
498,87	2,964
499,08	3,117
499,28	3,023
499,49	3,015
499,70	3,180
499,91	3,213
500,12	3,124
500,32	3,182
500,53	2,845
500,74	3,252
500,95	2,927
501,15	3,203
501,36	3,165
501,57	2,924
501,78	2,919
501,99	3,250
502,19	3,064
502,40	2,967
502,61	3,406
502,82	3,007
503,02	3,130
503,23	3,140
503,44	3,397
503,65	3,024
503,86	3,335
504,06	3,030
504,27	3,194
504,48	3,311
504,69	3,342
504,89	3,142
505,10	3,473
505,31	3,244
505,52	3,265
505,72	3,492
505,93	3,581
506,14	3,599
506,35	3,436
506,55	3,163
506,76	3,287
506,97	3,470
507,18	3,438
507,38	3,522
507,59	3,490
507,80	3,699
508,01	3,414
508,21	3,657
508,42	3,444
508,63	3,608
508,84	3,444
509,04	3,574
509,25	3,738
509,46	3,834
509,67	3,573
509,87	3,513
510,08	3,662
510,29	3,411
510,49	3,462
510,70	3,812
510,91	3,827
511,12	3,635
511,32	3,738
511,53	3,499
511,74	3,710
511,94	3,747
512,15	3,602
512,36	3,950
512,57	3,821
512,77	3,607
512,98	3,659
513,19	3,713
513,39	3,631
513,60	3,676
513,81	3,700
514,01	3,605
514,22	3,774
514,43	3,972
514,64	3,911
514,84	4,158
515,05	3,896
515,26	4,048
515,46	3,882
515,67	4,152
515,88	3,958
516,08	3,782
516,29	3,986
516,50	4,056
516,70	4,013
516,91	4,079
517,12	4,074
517,32	4,182
517,53	4,129
517,74	4,111
517,95	4,385
518,15	4,333
518,36	4,251
518,57	4,332
518,77	4,320
518,98	4,334
519,19	4,363
519,39	4,547
519,60	4,559
519,80	4,250
520,01	4,536
520,22	4,328
520,42	4,081
520,63	4,368
520,84	4,049
521,04	4,633
521,25	4,723
521,46	4,355
521,66	4,332
521,87	4,301
522,08	4,484
522,28	4,708
522,49	4,727
522,70	4,610
522,90	4,489
523,11	4,569
523,31	4,732
523,52	4,835
523,73	4,850
523,93	4,901
524,14	4,611
524,35	5,042
524,55	5,277
524,76	4,825
524,97	4,861
525,17	4,946
525,38	5,170
525,58	5,138
525,79	5,077
526,00	5,144
526,20	5,462
526,41	5,197
526,61	4,840
526,82	5,322
527,03	5,447
527,23	5,236
527,44	5,382
527,64	5,469
527,85	5,538
528,06	5,356
528,26	5,261
528,47	5,358
528,68	5,135
528,88	5,300
529,09	5,410
529,29	5,205
529,50	5,514
529,70	5,403
529,91	5,451
530,12	5,531
530,32	5,525
530,53	5,829
530,73	5,463
530,94	5,262
531,15	5,623
531,35	5,808
531,56	5,573
531,76	5,176
531,97	5,618
532,17	5,865
532,38	6,277
532,59	6,204
532,79	6,059
533,00	5,919
533,20	5,983
533,41	5,714
533,61	5,660
533,82	6,235
534,03	5,894
534,23	6,112
534,44	6,152
534,64	6,063
534,85	6,111
535,05	6,395
535,26	6,214
535,46	6,497
535,67	6,227
535,88	6,523
536,08	6,219
536,29	6,311
536,49	6,375
536,70	6,562
536,90	6,726
537,11	6,463
537,31	6,363
537,52	6,517
537,72	6,537
537,93	6,269
538,13	6,406
538,34	6,707
538,55	6,740
538,75	6,383
538,96	6,079
539,16	6,502
539,37	6,654
539,57	6,361
539,78	6,069
539,98	6,308
540,19	6,235
540,39	6,754
540,60	6,820
540,80	6,679
541,01	7,031
541,21	6,830
541,42	6,961
541,62	6,856
541,83	7,009
542,03	7,314
542,24	6,960
542,44	6,910
542,65	7,083
542,85	6,893
543,06	7,008
543,26	6,961
543,47	7,027
543,67	7,234
543,88	7,439
544,08	7,381
544,29	6,925
544,49	7,287
544,70	7,053
544,90	7,332
545,11	6,946
545,31	7,460
545,52	7,487
545,72	6,982
545,93	7,433
546,13	7,176
546,34	7,379
546,54	7,465
546,75	7,435
546,95	7,027
547,15	7,402
547,36	7,470
547,56	7,726
547,77	7,396
547,97	7,392
548,18	7,213
548,38	7,699
548,59	7,789
548,79	7,461
549,00	7,512
549,20	7,484
549,41	7,670
549,61	7,814
549,81	7,657
550,02	7,488
550,22	7,791
550,43	7,860
550,63	7,982
550,84	8,117
551,04	7,806
551,25	7,258
551,45	7,890
551,65	8,085
551,86	7,374
552,06	8,094
552,27	7,520
552,47	7,951
552,68	8,359
552,88	7,892
553,08	8,042
553,29	7,411
553,49	8,059
553,70	7,511
553,90	7,798
554,11	7,908
554,31	7,837
554,51	8,343
554,72	7,712
554,92	7,776
555,13	8,023
555,33	8,137
555,53	8,050
555,74	8,101
555,94	7,827
556,15	7,741
556,35	8,092
556,56	8,330
556,76	7,734
556,96	8,340
557,17	7,753
557,37	7,470
557,58	8,270
557,78	8,244
557,98	7,500
558,19	8,183
558,39	8,195
558,59	8,281
558,80	7,841
559,00	8,462
559,21	8,510
559,41	8,437
559,61	7,843
559,82	8,099
560,02	8,318
560,23	8,310
560,43	7,833
560,63	7,992
560,84	7,851
561,04	8,607
561,24	7,908
561,45	8,110
561,65	8,218
561,85	8,430
562,06	8,227
562,26	8,357
562,47	7,991
562,67	8,248
562,87	8,448
563,08	8,153
563,28	8,370
563,48	8,109
563,69	8,000
563,89	8,250
564,09	8,377
564,30	8,194
564,50	7,952
564,70	7,862
564,91	8,422
565,11	8,346
565,31	8,323
565,52	8,256
565,72	8,262
565,92	8,029
566,13	8,264
566,33	7,949
566,53	8,149
566,74	7,972
566,94	7,880
567,14	8,456
567,35	7,851
567,55	7,966
567,75	8,366
567,96	8,232
568,16	8,530
568,36	8,125
568,57	8,115
568,77	8,258
568,97	8,198
569,18	8,187
569,38	8,345
569,58	8,412
569,79	8,351
569,99	8,412
570,19	8,668
570,39	8,687
570,60	8,259
570,80	8,540
571,00	8,260
571,21	8,628
571,41	8,720
571,61	8,538
571,82	8,287
572,02	8,958
572,22	8,591
572,42	8,637
572,63	8,431
572,83	7,752
573,03	8,088
573,24	7,706
573,44	7,974
573,64	8,309
573,84	8,378
574,05	8,133
574,25	8,399
574,45	8,759
574,66	8,293
574,86	8,626
575,06	8,156
575,26	8,441
575,47	8,581
575,67	9,046
575,87	8,949
576,07	8,522
576,28	8,441
576,48	8,469
576,68	8,284
576,88	8,230
577,09	7,843
577,29	8,038
577,49	8,058
577,69	8,064
577,90	8,811
578,10	8,237
578,30	8,159
578,50	8,045
578,71	8,017
578,91	8,431
579,11	8,480
579,31	8,453
579,52	8,322
579,72	8,386
579,92	8,262
580,12	8,566
580,33	7,757
580,53	8,567
580,73	8,066
580,93	8,305
581,13	8,289
581,34	8,092
581,54	8,155
581,74	8,097
581,94	8,195
582,15	7,931
582,35	8,280
582,55	7,843
582,75	7,706
582,95	7,933
583,16	7,953
583,36	7,780
583,56	7,968
583,76	7,728
583,96	8,245
584,17	8,198
584,37	8,033
584,57	8,298
584,77	8,090
584,97	7,770
585,18	7,790
585,38	7,900
585,58	7,777
585,78	8,214
585,98	7,840
586,19	7,864
586,39	8,241
586,59	7,761
586,79	7,707
586,99	8,126
587,20	7,919
587,40	7,685
587,60	7,726
587,80	7,778
588,00	7,047
588,20	7,385
588,41	7,825
588,61	7,725
588,81	7,775
589,01	8,080
589,21	8,064
589,41	7,732
589,62	7,690
589,82	7,932
590,02	7,541
590,22	7,717
590,42	7,541
590,62	7,534
590,83	7,626
591,03	7,537
591,23	7,469
591,43	7,388
591,63	7,574
591,83	7,229
592,03	7,189
592,24	7,676
592,44	7,080
592,64	7,367
592,84	7,168
593,04	7,406
593,24	7,149
593,44	7,286
593,65	7,218
593,85	7,110
594,05	7,117
594,25	6,940
594,45	6,984
594,65	7,313
594,85	7,161
595,06	7,205
595,26	7,103
595,46	7,372
595,66	6,846
595,86	7,366
596,06	7,072
596,26	6,935
596,46	7,071
596,66	7,008
596,87	7,121
597,07	7,320
597,27	7,129
597,47	7,127
597,67	7,144
597,87	7,386
598,07	7,328
598,27	7,632
598,47	7,313
598,67	7,172
598,88	7,187
599,08	7,574
599,28	7,489
599,48	7,707
599,68	7,505
599,88	7,738
600,08	7,542
600,28	7,678
600,48	7,585
600,68	7,734
600,88	7,965
601,09	8,206
601,29	7,724
601,49	7,752
601,69	7,926
601,89	8,029
602,09	8,467
602,29	7,955
602,49	8,374
602,69	8,644
602,89	8,168
603,09	8,472
603,29	8,366
603,49	8,440
603,69	8,263
603,90	8,114
604,10	8,110
604,30	8,376
604,50	8,065
604,70	7,710
604,90	8,403
605,10	8,403
605,30	8,483
605,50	8,608
605,70	8,773
605,90	8,781
606,10	8,801
606,30	8,572
606,50	8,980
606,70	8,476
606,90	8,550
607,10	8,787
607,30	8,434
607,50	8,414
607,70	8,322
607,90	8,900
608,10	8,600
608,30	8,527
608,50	8,674
608,70	8,577
608,90	8,409
609,11	8,541
609,31	8,740
609,51	8,971
609,71	8,774
609,91	8,945
610,11	8,439
610,31	8,717
610,51	8,574
610,71	8,782
610,91	8,595
611,11	9,098
611,31	8,883
611,51	8,644
611,71	8,940
611,91	8,377
612,11	8,803
612,31	8,734
612,51	9,183
612,71	9,101
612,91	9,050
613,11	9,179
613,31	9,036
613,51	8,771
613,71	9,185
613,91	8,791
614,11	8,815
614,31	8,861
614,50	9,310
614,70	8,660
614,90	8,977
615,10	8,769
615,30	8,778
615,50	9,161
615,70	8,860
615,90	9,068
616,10	8,921
616,30	8,699
616,50	9,056
616,70	8,717
616,90	8,878
617,10	8,965
617,30	9,461
617,50	9,040
617,70	9,075
617,90	9,120
618,10	8,810
618,30	8,732
618,50	8,632
618,70	8,708
618,90	9,112
619,10	9,069
619,30	9,092
619,49	9,219
619,69	9,562
619,89	9,093
620,09	9,184
620,29	9,116
620,49	9,215
620,69	9,198
620,89	9,198
621,09	9,421
621,29	9,146
621,49	9,257
621,69	8,946
621,89	9,284
622,09	9,056
622,29	9,216
622,48	8,998
622,68	9,467
622,88	9,145
623,08	9,543
623,28	9,625
623,48	9,612
623,68	9,566
623,88	9,451
624,08	9,394
624,28	9,346
624,48	9,482
624,67	9,233
624,87	9,276
625,07	9,136
625,27	9,323
625,47	9,171
625,67	9,750
625,87	9,602
626,07	9,738
626,27	9,517
626,47	9,556
626,66	9,551
626,86	9,751
627,06	9,605
627,26	9,781
627,46	10,189
627,66	9,548
627,86	9,838
628,06	9,721
628,25	9,874
628,45	9,566
628,65	9,715
628,85	9,640
629,05	9,343
629,25	9,735
629,45	9,457
629,65	9,983
629,84	9,937
630,04	9,882
630,24	9,488
630,44	10,010
630,64	9,753
630,84	9,786
631,04	9,963
631,23	10,028
631,43	10,161
631,63	10,008
631,83	9,820
632,03	10,267
632,23	9,879
632,42	9,651
632,62	9,992
632,82	10,344
633,02	10,526
633,22	10,618
633,42	10,885
633,62	10,804
633,81	11,007
634,01	11,318
634,21	11,391
634,41	11,917
634,61	11,348
634,80	12,695
635,00	12,276
635,20	12,439
635,40	12,820
635,60	12,952
635,80	13,198
635,99	13,157
636,19	13,439
636,39	13,550
636,59	14,367
636,79	14,961
636,98	14,847
637,18	15,170
637,38	15,176
637,58	15,665
637,78	16,079
637,97	16,706
638,17	17,677
638,37	18,741
638,57	18,884
638,77	19,967
638,96	21,414
639,16	22,690
639,36	23,274
639,56	24,582
639,76	26,089
639,95	27,561
640,15	29,179
640,35	31,294
640,55	32,971
640,75	35,429
640,94	37,372
641,14	39,468
641,34	42,474
641,54	44,976
641,73	47,316
641,93	50,174
642,13	52,096
642,33	55,245
642,53	57,943
642,72	60,800
642,92	63,448
643,12	66,554
643,32	69,922
643,51	70,783
643,71	73,798
643,91	74,038
644,11	75,458
644,30	75,730
644,50	77,430
644,70	78,275
644,90	78,803
645,09	80,131
645,29	80,311
645,49	80,691
645,69	81,793
645,88	80,750
646,08	79,855
646,28	80,815
646,48	80,584
646,67	80,450
646,87	79,907
647,07	79,975
647,26	79,199
647,46	79,613
647,66	79,300
647,86	78,706
648,05	79,167
648,25	78,225
648,45	77,828
648,65	77,511
648,84	76,531
649,04	77,939
649,24	75,645
649,43	75,617
649,63	75,061
649,83	74,913
650,03	74,108
650,22	72,775
650,42	72,169
650,62	71,295
650,81	70,908
651,01	70,590
651,21	69,206
651,40	68,286
651,60	66,514
651,80	64,503
652,00	62,679
652,19	61,025
652,39	58,590
652,59	56,885
652,78	54,271
652,98	52,057
653,18	50,166
653,37	48,039
653,57	45,007
653,77	42,223
653,96	39,533
654,16	35,931
654,36	33,845
654,55	30,722
654,75	28,105
654,95	25,897
655,14	23,711
655,34	22,251
655,54	20,417
655,73	18,271
655,93	16,913
656,13	15,674
656,32	14,394
656,52	13,217
656,72	12,092
656,91	11,687
657,11	10,593
657,31	10,440
657,50	10,191
657,70	9,790
657,90	9,536
658,09	9,315
658,29	9,282
658,49	9,064
658,68	9,257
658,88	9,025
659,07	8,861
659,27	8,851
659,47	9,109
659,66	9,151
659,86	9,334
660,06	9,414
660,25	9,481
660,45	9,476
660,64	9,385
660,84	9,433
661,04	9,118
661,23	8,897
661,43	9,134
661,63	9,199
661,82	9,084
662,02	9,230
662,21	9,263
662,41	8,918
662,61	9,490
662,80	9,463
663,00	9,007
663,19	9,223
663,39	8,769
663,59	8,829
663,78	8,986
663,98	9,212
664,17	9,180
664,37	9,020
664,57	9,128
664,76	9,414
664,96	8,924
665,15	9,300
665,35	9,374
665,55	9,022
665,74	9,507
665,94	8,853
666,13	9,472
666,33	9,157
666,53	9,183
666,72	9,340
666,92	9,372
667,11	9,321
667,31	9,351
667,50	9,344
667,70	9,361
667,90	8,958
668,09	9,020
668,29	9,003
668,48	9,110
668,68	8,961
668,87	8,576
669,07	8,557
669,26	8,825
669,46	8,818
669,66	9,183
669,85	8,881
670,05	9,154
670,24	9,214
670,44	8,920
670,63	9,270
670,83	9,108
671,02	8,851
671,22	9,007
671,42	9,080
671,61	9,121
671,81	9,156
672,00	9,245
672,20	8,734
672,39	9,170
672,59	8,869
672,78	9,103
672,98	9,020
673,17	8,784
673,37	8,819
673,56	9,399
673,76	9,165
673,95	8,901
674,15	8,817
674,34	9,308
674,54	8,754
674,73	8,941
674,93	8,960
675,13	8,734
675,32	8,641
675,52	8,774
675,71	8,795
675,91	9,090
676,10	8,812
676,30	8,741
676,49	9,347
676,69	8,849
676,88	9,226
677,08	9,175
677,27	8,531
677,47	8,925
677,66	8,669
677,86	9,214
678,05	9,514
678,24	8,932
678,44	8,884
678,63	9,237
678,83	8,921
679,02	9,093
679,22	9,236
679,41	9,177
679,61	8,987
679,80	8,844
680,00	9,036
680,19	8,904
680,39	8,737
680,58	8,822
680,78	9,078
680,97	9,006
681,17	8,889
681,36	8,925
681,56	8,828
681,75	9,106
681,94	8,885
682,14	8,953
682,33	8,922
682,53	8,897
682,72	9,069
682,92	9,012
683,11	8,976
683,31	9,132
683,50	8,906
683,69	9,298
683,89	9,134
684,08	9,127
684,28	8,752
684,47	8,936
684,67	8,880
684,86	9,063
685,06	8,839
685,25	8,672
685,44	9,007
685,64	8,805
685,83	8,856
686,03	8,923
686,22	8,821
686,42	9,029
686,61	9,128
686,80	8,898
687,00	9,011
687,19	9,073
687,39	8,901
687,58	8,736
687,77	9,163
687,97	8,908
688,16	9,336
688,36	9,116
688,55	9,114
688,74	9,490
688,94	9,146
689,13	9,605
689,33	9,068
689,52	9,493
689,71	9,089
689,91	8,968
690,10	8,818
690,30	8,485
690,49	8,999
690,68	9,220
690,88	9,245
691,07	9,282
691,27	8,803
691,46	8,896
691,65	9,019
691,85	9,155
692,04	9,023
692,23	9,228
692,43	9,344
692,62	9,406
692,82	9,295
693,01	9,176
693,20	9,198
693,40	9,276
693,59	9,376
693,78	9,198
693,98	9,123
694,17	8,775
694,36	8,851
694,56	8,748
694,75	8,799
694,94	9,330
695,14	9,002
695,33	9,425
695,53	8,916
695,72	9,161
695,91	9,382
696,11	9,347
696,30	8,705
696,49	9,443
696,69	8,763
696,88	8,881
697,07	9,075
697,27	9,112
697,46	9,511
697,65	9,473
697,85	8,969
698,04	9,511
698,23	9,574
698,43	9,412
698,62	9,367
698,81	9,325
699,01	9,307
699,20	9,152
699,39	9,384
699,58	9,265
699,78	9,214
699,97	9,107
700,16	8,707
700,36	9,274
700,55	8,994
700,74	9,003
700,94	9,206
701,13	9,314
701,32	9,134
701,52	8,934
701,71	9,283
701,90	9,120
702,09	9,019
702,29	9,752
702,48	9,464
702,67	9,489
702,87	9,607
703,06	9,448
703,25	9,202
703,44	9,456
703,64	9,309
703,83	9,391
704,02	9,348
704,22	9,529
704,41	9,372
704,60	9,790
704,79	9,289
704,99	9,471
705,18	9,463
705,37	9,773
705,56	9,639
705,76	9,610
705,95	9,343
706,14	9,867
706,33	9,948
706,53	9,527
706,72	9,845
706,91	9,475
707,11	8,889
707,30	9,468
707,49	9,382
707,68	9,748
707,88	9,373
708,07	9,322
708,26	9,291
708,45	9,511
708,64	9,300
708,84	9,570
709,03	9,552
709,22	9,351
709,41	9,664
709,61	9,831
709,80	9,970
709,99	9,429
710,18	9,563
710,38	9,614
710,57	9,661
710,76	9,497
710,95	9,838
711,14	9,613
711,34	9,808
711,53	9,297
711,72	9,027
711,91	9,094
712,11	9,250
712,30	9,584
712,49	9,500
712,68	9,409
712,87	9,497
713,07	9,209
713,26	9,310
713,45	9,238
713,64	9,808
713,83	9,761
714,03	9,770
714,22	9,471
714,41	9,715
714,60	9,690
714,79	9,555
714,99	9,611
715,18	9,867
715,37	9,265
715,56	9,812
715,75	9,646
715,94	9,779
716,14	9,618
716,33	9,642
716,52	9,479
716,71	9,517
716,90	9,454
717,10	9,551
717,29	9,768
717,48	9,464
717,67	9,690
717,86	9,740
718,05	9,569
718,24	9,772
718,44	9,765
718,63	9,186
718,82	10,308
719,01	9,692
719,20	9,687
719,39	9,320
719,59	9,039
719,78	9,708
719,97	9,582
720,16	9,346
720,35	9,446
720,54	9,455
720,73	9,831
720,93	9,390
721,12	9,740
721,31	9,677
721,50	9,748
721,69	10,077
721,88	9,577
722,07	9,393
722,27	9,851
722,46	9,550
722,65	9,807
722,84	9,501
723,03	9,609
723,22	9,809
723,41	9,975
723,60	9,676
723,79	9,692
723,99	9,747
724,18	9,900
724,37	10,348
724,56	9,832
724,75	10,062
724,94	9,892
725,13	9,869
725,32	10,003
725,51	9,794
725,71	10,179
725,90	9,580
726,09	9,736
726,28	9,869
726,47	9,987
726,66	10,086
726,85	9,576
727,04	9,639
727,23	9,676
727,42	9,459
727,61	9,800
727,81	9,658
728,00	9,903
728,19	9,571
728,38	9,995
728,57	9,603
728,76	9,562
728,95	9,936
729,14	10,132
729,33	10,186
729,52	9,749
729,71	9,589
729,90	9,602
730,09	9,861
730,28	9,873
730,48	10,078
730,67	9,964
730,86	9,877
731,05	9,982
731,24	9,888
731,43	9,811
731,62	10,110
731,81	10,183
732,00	10,073
732,19	10,040
732,38	9,719
732,57	9,895
732,76	9,597
732,95	9,784
733,14	9,249
733,33	9,890
733,52	9,982
733,71	9,886
733,90	9,901
734,09	9,674
734,28	9,813
734,47	9,896
734,66	9,494
734,85	9,926
735,04	10,042
735,23	9,661
735,42	10,210
735,61	9,764
735,81	9,874
736,00	9,923
736,19	9,674
736,38	9,820
736,57	9,772
736,76	9,839
736,95	9,471
737,14	10,010
737,33	9,677
737,52	9,706
737,71	9,993
737,90	9,918
738,09	10,296
738,28	10,212
738,47	9,900
738,66	9,992
738,85	9,892
739,04	10,101
739,22	10,218
739,41	9,966
739,60	9,917
739,79	9,751
739,98	10,010
740,17	9,843
740,36	10,033
740,55	10,090
740,74	10,131
740,93	10,195
741,12	10,014
741,31	9,873
741,50	10,026
741,69	10,160
741,88	10,109
742,07	10,067
742,26	10,319
742,45	10,328
742,64	10,278
742,83	10,339
743,02	10,143
743,21	10,197
743,40	9,833
743,59	10,084
743,78	10,260
743,97	10,484
744,16	10,199
744,34	10,028
744,53	10,025
744,72	10,377
744,91	10,099
745,10	9,660
745,29	10,195
745,48	10,259
745,67	10,356
745,86	9,998
746,05	10,241
746,24	10,431
746,43	10,346
746,62	10,431
746,81	10,553
747,00	10,486
747,18	10,736
747,37	10,442
747,56	10,547
747,75	10,615
747,94	10,873
748,13	10,933
748,32	10,980
748,51	10,904
748,70	10,948
748,89	10,649
749,08	10,291
749,26	10,871
749,45	10,711
749,64	10,374
749,83	10,111
750,02	10,809
750,21	10,531
750,40	10,392
750,59	11,245
750,78	10,829
750,96	11,172
751,15	10,559
751,34	10,705
751,53	11,227
751,72	10,787
751,91	10,397
752,10	10,421
752,29	10,722
752,47	10,473
752,66	10,284
752,85	10,638
753,04	11,028
753,23	10,894
753,42	11,145
753,61	10,937
753,80	10,754
753,98	10,560
754,17	10,859
754,36	10,602
754,55	10,516
754,74	11,007
754,93	11,308
755,12	10,893
755,30	10,802
755,49	10,904
755,68	11,055
755,87	10,805
756,06	10,879
756,25	10,675
756,43	10,913
756,62	10,429
756,81	11,258
757,00	10,915
757,19	10,849
757,38	10,815
757,56	10,768
757,75	10,878
757,94	10,648
758,13	10,713
758,32	10,907
758,51	10,789
758,69	11,163
758,88	11,485
759,07	11,710
759,26	11,375
759,45	11,533
759,63	11,434
759,82	11,760
760,01	11,919
760,20	11,747
760,39	11,970
760,57	11,819
760,76	12,404
760,95	12,323
761,14	12,306
761,33	12,520
761,51	12,615
761,70	12,765
761,89	12,784
762,08	13,605
762,27	13,773
762,45	14,047
762,64	14,646
762,83	15,249
763,02	15,432
763,21	15,775
763,39	16,028
763,58	16,226
763,77	16,460
763,96	16,671
764,14	17,290
764,33	17,867
764,52	19,364
764,71	18,830
764,89	19,378
765,08	19,802
765,27	19,983
765,46	21,095
765,65	22,322
765,83	23,045
766,02	23,577
766,21	24,803
766,40	25,360
766,58	26,481
766,77	27,356
766,96	28,261
767,15	29,578
767,33	30,304
767,52	31,377
767,71	31,974
767,90	34,013
768,08	36,304
768,27	38,486
768,46	38,886
768,64	41,498
768,83	44,387
769,02	46,697
769,21	50,355
769,39	53,665
769,58	55,704
769,77	57,686
769,96	61,125
770,14	63,333
770,33	64,629
770,52	66,770
770,70	70,496
770,89	69,990
771,08	73,137
771,27	75,087
771,45	75,593
771,64	76,265
771,83	79,139
772,01	78,910
772,20	79,302
772,39	80,847
772,57	80,943
772,76	81,276
772,95	82,026
773,14	81,086
773,32	82,071
773,51	81,714
773,70	82,122
773,88	82,137
774,07	82,820
774,26	82,497
774,44	80,427
774,63	81,182
774,82	82,794
775,00	81,190
775,19	80,262
775,38	80,371
775,56	81,293
775,75	80,314
775,94	80,704
776,12	79,782
776,31	80,092
776,50	79,840
776,68	79,982
776,87	78,072
777,06	78,603
777,24	78,075
777,43	78,050
777,62	77,778
777,80	78,378
777,99	77,706
778,18	75,797
778,36	76,982
778,55	76,319
778,74	75,661
778,92	74,646
779,11	74,710
779,29	73,012
779,48	73,930
779,67	73,205
779,85	72,463
780,04	72,817
780,23	70,578
780,41	69,092
780,60	69,212
780,79	68,268
780,97	67,807
781,16	66,769
781,34	64,212
781,53	63,674
781,72	62,822
781,90	61,307
782,09	60,334
782,28	58,376
782,46	55,430
782,65	53,564
782,83	51,878
783,02	49,363
783,21	48,411
783,39	46,742
783,58	44,943
783,76	42,239
783,95	39,955
784,14	37,906
784,32	36,982
784,51	35,059
784,69	33,302
784,88	31,678
785,06	30,395
785,25	28,511
785,44	26,349
785,62	25,878
785,81	23,924
785,99	22,846
786,18	21,008
786,37	20,235
786,55	19,526
786,74	18,389
786,92	17,689
787,11	15,869
787,29	14,777
787,48	14,291
787,67	13,788
787,85	13,792
788,04	12,710
788,22	12,036
788,41	12,282
788,59	12,012
788,78	11,426
788,96	11,897
789,15	11,235
789,34	10,826
789,52	11,383
789,71	10,708
789,89	10,980
790,08	10,643
790,26	10,491
790,45	10,470
790,63	10,734
790,82	10,505
791,00	10,657
791,19	10,997
791,38	10,236
791,56	10,065
791,75	10,514
791,93	10,698
792,12	10,761
792,30	10,720
792,49	10,933
792,67	10,460
792,86	9,799
793,04	10,708
793,23	10,327
793,41	10,838
793,60	10,864
793,78	10,636
793,97	10,932
794,15	10,493
794,34	10,282
794,52	11,106
794,71	10,965
794,89	10,821
795,08	11,005
795,26	10,921
795,45	10,651
795,63	10,575
795,82	10,493
796,00	9,997
796,19	10,712
796,37	10,522
796,56	10,079
796,74	10,294
796,93	10,518
797,11	10,441
797,30	9,903
797,48	10,104
797,67	10,208
797,85	10,385
798,04	10,397
798,22	10,149
798,41	10,057
798,59	10,415
798,77	10,200
798,96	10,539
799,14	10,378
799,33	10,528
799,51	9,931
799,70	10,187
799,88	9,550
800,07	10,099
800,25	9,978
800,44	9,768
800,62	9,498
800,80	10,194
800,99	10,179
801,17	9,901
801,36	10,456
801,54	10,100
801,73	9,919
801,91	10,511
802,10	10,271
802,28	10,290
802,46	10,910
802,65	10,661
802,83	10,519
803,02	10,682
803,20	10,242
803,39	10,411
803,57	9,878
803,75	10,675
803,94	10,414
804,12	10,114
804,31	10,523
804,49	10,247
804,67	10,313
804,86	9,844
805,04	9,986
805,23	10,378
805,41	10,276
805,59	10,068
805,78	10,356
805,96	10,078
806,15	10,558
806,33	10,185
806,51	9,676
806,70	10,295
806,88	10,168
807,07	9,714
807,25	10,183
807,43	10,235
807,62	10,058
807,80	10,430
807,99	10,175
808,17	9,569
808,35	10,128
808,54	9,870
808,72	10,328
808,90	10,795
809,09	10,408
809,27	10,725
809,46	10,843
809,64	10,631
809,82	10,235
810,01	10,548
810,19	9,752
810,37	10,044
810,56	10,016
810,74	9,664
810,92	9,915
811,11	9,748
811,29	10,190
811,48	10,352
811,66	9,924
811,84	10,564
812,03	9,819
812,21	9,679
812,39	10,514
812,58	9,945
812,76	10,269
812,94	10,235
813,13	10,218
813,31	10,345
813,49	10,483
813,68	10,353
813,86	10,681
814,04	9,633
814,23	9,800
814,41	9,813
814,59	10,167
814,78	9,959
814,96	9,982
815,14	10,240
815,33	9,861
815,51	10,216
815,69	9,942
815,87	10,299
816,06	9,938
816,24	10,374
816,42	9,919
816,61	10,289
816,79	10,466
816,97	10,346
817,16	10,441
817,34	9,870
817,52	9,915
817,70	9,612
817,89	9,817
818,07	9,375
818,25	9,521
818,44	9,905
818,62	9,957
818,80	10,206
818,98	9,886
819,17	10,058
819,35	9,862
819,53	10,439
819,72	9,877
819,90	9,810
820,08	9,970
820,26	10,466
820,45	10,036
820,63	10,065
820,81	9,972
820,99	10,010
821,18	9,769
821,36	9,865
821,54	10,181
821,73	9,973
821,91	9,780
822,09	9,860
822,27	10,251
822,46	10,148
822,64	10,177
822,82	10,194
823,00	10,022
823,19	9,988
823,37	10,439
823,55	10,342
823,73	10,362
823,91	10,444
824,10	10,556
824,28	10,318
824,46	10,208
824,64	10,363
824,83	10,030
825,01	11,003
825,19	9,787
825,37	10,370
825,56	9,944
825,74	10,052
825,92	10,726
826,10	10,815
826,28	10,538
826,47	10,440
826,65	10,451
826,83	10,454
827,01	10,651
827,19	10,623
827,38	10,570
827,56	10,673
827,74	10,753
827,92	10,286
828,10	10,230
828,29	10,433
828,47	10,518
828,65	10,570
828,83	9,776
829,01	10,065
829,20	10,096
829,38	10,568
829,56	9,941
829,74	10,024
829,92	9,419
830,10	10,406
830,29	10,644
830,47	10,418
830,65	10,013
830,83	10,048
831,01	10,680
831,20	10,346
831,38	10,025
831,56	10,991
831,74	10,657
831,92	10,386
832,10	10,710
832,29	11,214
832,47	10,265
832,65	9,887
832,83	10,867
833,01	10,827
833,19	10,765
833,37	9,895
833,56	10,455
833,74	10,469
833,92	9,900
834,10	10,731
834,28	10,213
834,46	10,714
834,64	10,554
834,83	9,833
835,01	10,283
835,19	10,563
835,37	9,989
835,55	10,273
835,73	10,896
835,91	10,361
836,09	10,093
836,28	10,178
836,46	10,090
836,64	10,152
836,82	10,173
837,00	10,575
837,18	10,443
837,36	10,652
837,54	10,727
837,72	10,032
837,91	10,208
838,09	10,904
838,27	9,974
838,45	9,916
838,63	9,874
838,81	10,292
838,99	10,606
839,17	10,633
839,35	10,726
839,53	10,383
839,72	10,211
839,90	10,826
840,08	10,628
840,26	10,745
840,44	10,780
840,62	11,007
840,80	11,216
840,98	11,623
841,16	11,309
841,34	11,305
841,52	10,855
841,70	10,315
841,89	10,847
842,07	10,910
842,25	10,177
842,43	10,856
842,61	10,670
842,79	10,305
842,97	9,936
843,15	10,968
843,33	10,996
843,51	10,591
843,69	10,294
843,87	10,671
844,05	11,235
844,23	10,756
844,41	10,802
844,59	10,719
844,77	10,218
844,95	10,651
845,13	10,716
845,31	10,591
845,50	10,498
845,68	10,613
845,86	10,803
846,04	10,715
846,22	10,318
846,40	10,201
846,58	10,684
846,76	10,777
846,94	10,674
847,12	10,169
847,30	9,986
847,48	10,427
847,66	11,027
847,84	10,748
848,02	10,571
848,20	11,367
848,38	10,207
848,56	9,854
848,74	11,359
848,92	10,010
849,10	11,007
849,28	10,258
849,46	10,117
849,64	10,333
849,82	10,216
850,00	10,974
850,18	10,535
850,36	10,381
850,54	10,924
850,72	10,705
850,90	11,491
851,08	11,378
851,26	11,094
851,44	11,365
851,62	10,950
851,80	10,486
851,98	10,520
852,16	10,970
852,34	10,367
852,52	10,071
852,70	10,178
852,87	10,998
853,05	10,719
853,23	10,721
853,41	10,245
853,59	9,858
853,77	10,386
853,95	10,200
854,13	10,039
854,31	10,352
854,49	11,303
854,67	10,561
854,85	10,810
855,03	11,173
855,21	11,055
855,39	10,245
855,57	10,846
855,75	10,936
855,93	10,932
856,11	10,483
856,28	10,264
856,46	10,362
856,64	10,319
856,82	11,538
857,00	10,587
857,18	10,729
857,36	10,966
857,54	10,362
857,72	10,312
857,90	11,129
858,08	11,149
858,26	11,844
858,44	11,356
858,61	11,617
858,79	11,935
858,97	11,837
859,15	11,674
859,33	11,994
859,51	11,576
859,69	11,465
859,87	12,200
860,05	12,318
860,23	12,437
860,40	13,240
860,58	12,766
860,76	12,955
860,94	13,177
861,12	13,719
861,30	13,519
861,48	14,605
861,66	14,278
861,84	15,021
862,01	15,303
862,19	15,084
862,37	15,716
862,55	15,578
862,73	15,683
862,91	16,486
863,09	16,634
863,27	16,915
863,44	18,126
863,62	17,488
863,80	18,698
863,98	18,488
864,16	18,913
864,34	19,947
864,52	20,601
864,69	20,232
864,87	20,377
865,05	20,859
865,23	22,125
865,41	22,036
865,59	23,044
865,76	22,615
865,94	23,889
866,12	24,961
866,30	25,106
866,48	26,225
866,66	26,265
866,83	27,988
867,01	29,118
867,19	29,642
867,37	31,080
867,55	32,413
867,73	33,171
867,90	33,630
868,08	35,506
868,26	36,469
868,44	39,226
868,62	40,785
868,79	42,888
868,97	44,620
869,15	47,337
869,33	49,374
869,51	51,683
869,69	53,104
869,86	57,398
870,04	57,509
870,22	59,698
870,40	62,465
870,57	64,584
870,75	65,888
870,93	68,190
871,11	70,150
871,29	70,342
871,46	71,590
871,64	71,877
871,82	72,371
872,00	73,654
872,18	73,928
872,35	73,370
872,53	74,430
872,71	76,216
872,89	75,645
873,06	76,514
873,24	75,340
873,42	77,124
873,60	76,610
873,77	76,705
873,95	76,508
874,13	74,433
874,31	74,668
874,49	73,713
874,66	74,664
874,84	74,739
875,02	73,955
875,20	75,245
875,37	74,249
875,55	72,647
875,73	72,791
875,91	73,088
876,08	71,210
876,26	73,015
876,44	71,471
876,61	70,852
876,79	70,279
876,97	69,007
877,15	68,503
877,32	67,762
877,50	67,421
877,68	67,039
877,86	66,960
878,03	67,970
878,21	66,707
878,39	65,533
878,56	62,917
878,74	61,602
878,92	61,490
879,10	60,815
879,27	58,790
879,45	57,330
879,63	56,151
879,80	55,588
879,98	54,528
880,16	52,601
880,34	50,195
880,51	48,976
880,69	45,831
880,87	44,998
881,04	42,596
881,22	39,631
881,40	37,711
881,57	35,085
881,75	34,861
881,93	31,311
882,10	29,136
882,28	28,287
882,46	27,039
882,63	25,668
882,81	23,079
882,99	23,006
883,16	21,249
883,34	20,535
883,52	20,644
883,69	19,160
883,87	17,793
884,05	17,011
884,22	16,336
884,40	15,286
884,58	14,290
884,75	13,294
884,93	12,134
885,11	10,899
885,28	10,862
885,46	10,677
885,64	9,713
885,81	10,152
885,99	8,997
886,17	10,170
886,34	9,441
886,52	9,083
886,70	9,488
886,87	9,233
887,05	9,659
887,22	9,665
887,40	9,967
887,58	9,222
887,75	9,032
887,93	9,400
888,11	9,436
888,28	9,147
888,46	8,801
888,63	8,986
888,81	8,879
888,99	8,900
889,16	8,522
889,34	9,000
889,51	8,273
889,69	8,613
889,87	8,774
890,04	8,532
890,22	9,619
890,39	9,037
890,57	8,499
890,75	8,754
890,92	8,972
891,10	8,537
891,27	9,044
891,45	8,815
891,63	8,930
891,80	8,548
891,98	9,528
892,15	8,564
892,33	7,848
892,51	8,451
892,68	8,708
892,86	9,159
893,03	9,364
893,21	8,721
893,38	8,984
893,56	8,191
893,74	8,405
893,91	8,844
894,09	8,926
894,26	7,953
894,44	8,346
894,61	7,936
894,79	8,805
894,96	8,220
895,14	8,413
895,32	8,970
895,49	8,635
895,67	8,099
895,84	8,379
896,02	8,199
896,19	8,018
896,37	8,628
896,54	8,189
896,72	8,709
896,89	8,396
897,07	8,405
897,25	9,057
897,42	8,688
897,60	8,745
897,77	8,915
897,95	8,094
898,12	8,172
898,30	8,591
898,47	8,379
898,65	8,243
898,82	8,044
899,00	7,908
899,17	8,219
899,35	8,047
899,52	8,714
899,70	8,174
899,87	8,188
900,05	8,206
900,22	8,824
900,40	8,457
900,57	8,083
900,75	8,307
900,92	8,136
901,10	8,270
901,27	8,097
901,45	7,815
901,62	7,806
901,80	7,507
901,97	8,077
902,15	7,315
902,32	8,062
902,50	7,955
902,67	7,696
902,85	7,543
903,02	7,420
903,20	7,900
903,37	8,111
903,54	7,592
903,72	8,119
903,89	8,121
904,07	7,650
904,24	7,836
904,42	7,314
904,59	8,334
904,77	8,184
904,94	7,883
905,12	7,809
905,29	7,602
905,47	7,504
905,64	8,053
905,81	7,504
905,99	8,508
906,16	7,681
906,34	7,743
906,51	7,857
906,69	7,990
906,86	7,664
907,03	8,478
907,21	7,910
907,38	7,600
907,56	7,334
907,73	7,389
907,91	7,732
908,08	7,313
908,25	7,973
908,43	7,597
908,60	7,377
908,78	7,883
908,95	7,283
909,13	7,394
909,30	6,865
909,47	6,981
909,65	7,402
909,82	7,504
910,00	7,372
910,17	7,158
910,34	7,531
910,52	6,715
910,69	7,533
910,87	6,675
911,04	7,432
911,21	7,161
911,39	7,007
911,56	7,450
911,73	6,972
911,91	6,756
912,08	7,772
912,26	7,644
912,43	7,963
912,60	7,393
912,78	6,930
912,95	7,364
913,13	7,259
913,30	7,029
913,47	6,949
913,65	7,035
913,82	7,262
913,99	6,575
914,17	6,932
914,34	7,075
914,51	7,214
914,69	7,678
914,86	7,308
915,03	7,241
915,21	6,906
915,38	6,912
915,56	6,935
915,73	6,249
915,90	7,325
916,08	7,622
916,25	7,111
916,42	7,075
916,60	6,770
916,77	6,457
916,94	6,274
917,12	7,091
917,29	6,908
917,46	7,002
917,64	6,493
917,81	6,900
917,98	6,825
918,16	6,395
918,33	6,890
918,50	6,775
918,67	6,534
918,85	6,047
919,02	6,640
919,19	6,256
919,37	6,622
919,54	6,352
919,71	6,468
919,89	6,493
920,06	6,575
920,23	6,240
920,41	6,665
920,58	6,162
920,75	6,423
920,92	6,129
921,10	5,991
921,27	6,053
921,44	6,796
921,62	6,461
921,79	6,238
921,96	7,116
922,13	7,041
922,31	6,924
922,48	6,796
922,65	6,330
922,82	6,461
923,00	5,850
923,17	5,632
923,34	6,199
923,52	6,083
923,69	6,446
923,86	6,339
924,03	6,198
924,21	6,698
924,38	6,304
924,55	6,120
924,72	5,706
924,90	6,555
925,07	6,035
925,24	5,690
925,41	5,850
925,59	5,794
925,76	5,670
925,93	5,688
926,10	5,200
926,28	5,981
926,45	5,985
926,62	5,373
926,79	5,037
926,96	5,297
927,14	5,482
927,31	5,954
927,48	5,626
927,65	6,003
927,83	5,961
928,00	5,886
928,17	5,339
928,34	5,562
928,51	5,543
928,69	5,514
928,86	5,252
929,03	5,626
929,20	5,553
929,37	4,960
929,55	5,595
929,72	5,699
929,89	5,098
930,06	4,524
930,23	5,483
930,41	5,206
930,58	5,517
930,75	5,574
930,92	5,075
931,09	5,425
931,27	5,155
931,44	5,748
931,61	5,052
931,78	5,148
931,95	5,242
932,12	5,604
932,30	5,878
932,47	5,630
932,64	5,197
932,81	5,017
932,98	5,095
933,16	5,270
933,33	5,611
933,50	5,038
933,67	5,382
933,84	5,040
934,01	4,830
934,18	4,943
934,36	4,983
934,53	5,326
934,70	5,995
934,87	5,475
935,04	5,722
935,21	5,016
935,38	5,046
935,56	5,297
935,73	5,101
935,90	4,845
936,07	5,784
936,24	5,297
936,41	4,992
936,58	4,590
936,76	4,605
936,93	4,553
937,10	4,684
937,27	4,473
937,44	5,087
937,61	5,668
937,78	4,834
937,95	5,245
938,13	5,021
938,30	4,471
938,47	4,516
938,64	5,210
938,81	4,695
938,98	5,019
939,15	4,408
939,32	4,912
939,49	4,789
939,66	4,952
939,84	5,248
940,01	4,649
940,18	4,607
940,35	4,329
940,52	5,338
940,69	4,935
940,86	5,029
941,03	5,222
941,20	5,152
941,37	4,709
941,54	4,442
941,71	5,128
941,89	5,122
942,06	5,185
942,23	5,265
942,40	4,835
942,57	5,042
942,74	4,923
942,91	4,518
943,08	4,747
943,25	4,795
943,42	4,672
943,59	5,154
943,76	4,788
943,93	4,633
944,10	4,968
944,27	4,294
944,44	4,950
944,61	5,544
944,79	5,394
944,96	4,873
945,13	5,117
945,30	5,200
945,47	5,146
945,64	4,197
945,81	4,426
945,98	5,869
946,15	4,840
946,32	5,208
946,49	4,508
946,66	4,695
946,83	4,740
947,00	5,847
947,17	5,462
947,34	4,796
947,51	4,988
947,68	4,750
947,85	4,627
948,02	5,062
948,19	4,496
948,36	5,438
948,53	3,890
948,70	4,967
948,87	4,552
949,04	4,420
949,21	4,957
949,38	5,728
949,55	5,586
949,72	4,722
949,89	5,359
950,06	4,834
950,23	4,998
950,40	5,457
950,57	4,881
950,74	5,539
950,91	4,947
951,08	5,264
951,25	5,619
951,42	5,783
951,59	5,398
951,76	6,018
951,93	4,880
952,10	6,484
952,27	5,421
952,44	5,273
952,61	4,903
952,77	5,654
952,94	5,672
953,11	5,345
953,28	5,821
953,45	5,535
953,62	5,463
953,79	5,127
953,96	5,245
954,13	6,556
954,30	6,346
954,47	4,780
954,64	5,630
954,81	6,615
954,98	6,711
955,15	5,488
955,32	4,845
955,49	5,810
955,65	6,554
955,82	5,544
955,99	5,653
956,16	5,923
956,33	6,245
956,50	5,195
956,67	6,481
956,84	7,048
957,01	5,825
957,18	6,234
957,35	5,508
957,52	5,527
957,68	6,552
957,85	6,774
958,02	6,618
958,19	6,171
958,36	6,576
958,53	7,824
958,70	6,280
958,87	6,629
959,04	6,437
959,21	6,900
959,37	7,146
959,54	6,891
959,71	5,312
959,88	6,731
960,05	8,010
960,22	6,230
960,39	7,767
960,56	6,767
960,72	7,203
960,89	8,290
961,06	7,486
961,23	7,825
961,40	9,529
961,57	6,886
961,74	7,506
961,90	8,342
962,07	7,158
962,24	7,768
962,41	7,390
962,58	7,690
962,75	6,172
962,92	7,056
963,08	7,477
963,25	9,114
963,42	9,042
963,59	6,803
963,76	8,168
963,93	8,197
964,10	7,512
964,26	7,912
964,43	6,601
964,60	6,450
964,77	8,263
964,94	9,603
965,10	7,552
965,27	7,449
965,44	8,610
965,61	9,162
965,78	9,085
965,95	8,003
966,11	9,597
966,28	7,653
966,45	8,828
966,62	8,690
966,79	8,300
966,95	6,844
967,12	9,798
967,29	7,955
967,46	9,265
967,63	7,223
967,79	9,274
967,96	7,642
968,13	7,622
968,30	8,325
968,47	8,459
968,63	8,714
968,80	8,818
968,97	8,267
969,14	7,183
969,31	8,445
969,47	7,387
969,64	7,279
969,81	6,804
969,98	6,734
970,14	8,116
970,31	8,273
970,48	9,222
970,65	6,780
970,81	9,452
970,98	7,883
971,15	8,258
971,32	9,487
971,48	7,619
971,65	10,390
971,82	8,919
971,99	10,920
972,15	5,920
972,32	9,046
972,49	9,686
972,66	9,698
972,82	7,844
972,99	6,238
973,16	8,656
973,33	7,494
973,49	9,356
973,66	6,880
973,83	9,676
974,00	9,065
974,16	8,459
974,33	8,038
974,50	6,675
974,67	8,701
974,83	9,095
975,00	8,778
975,17	8,023
975,33	9,265
975,50	8,775
975,67	7,158
975,84	8,060
976,00	8,708
976,17	9,337
976,34	8,132
976,50	8,403
976,67	7,187
976,84	8,047
977,00	8,246
977,17	10,353
977,34	7,969
977,50	8,174
977,67	9,144
977,84	8,233
978,01	10,542
978,17	6,926
978,34	8,814
978,51	8,681
978,67	9,566
978,84	7,560
979,01	7,866
979,17	9,197
979,34	9,375
979,51	7,932
979,67	9,208
979,84	9,611
980,01	9,316
980,17	7,700
980,34	8,214
980,51	8,547
980,67	9,553
980,84	10,182
981,01	7,046
981,17	9,366
981,34	9,917
981,50	8,211
981,67	11,458
981,84	8,913
982,00	6,278
982,17	9,311
982,34	10,611
982,50	9,693
982,67	10,931
982,84	8,765
983,00	7,195
983,17	8,430
983,33	9,863
983,50	7,507
983,67	9,946
983,83	8,016
984,00	9,731
984,17	11,326
984,33	8,756
984,50	6,977
984,66	8,149
984,83	6,159
985,00	10,090
985,16	9,270
985,33	9,995
985,49	10,443
985,66	11,028
985,83	7,696
985,99	8,204
986,16	10,196
986,32	9,600
986,49	10,259
986,66	8,100
986,82	9,204
986,99	8,365
987,15	7,754
987,32	9,557
987,49	9,243
987,65	8,812
987,82	7,608
987,98	8,250
988,15	9,521
988,31	7,721
988,48	10,628
988,65	7,288
988,81	11,980
988,98	8,283
989,14	9,141
989,31	9,616
989,47	8,113
989,64	9,414
989,80	8,602
989,97	11,447
990,14	8,991
990,30	7,509
990,47	10,731
990,63	9,250
990,80	8,333
990,96	10,123
991,13	9,043
991,29	9,023
991,46	7,513
991,62	8,267
991,79	5,767
991,95	9,448
992,12	10,149
992,29	10,814
992,45	9,655
992,62	6,383
992,78	7,525
992,95	11,092
993,11	10,723
993,28	9,393
993,44	5,027
993,61	7,469
993,77	5,950
993,94	7,086
994,10	9,353
994,27	8,513
994,43	9,233
994,60	8,836
994,76	9,506
994,93	7,603
995,09	10,749
995,26	8,442
995,42	5,404
995,59	8,008
995,75	10,499
995,92	7,478
996,08	9,768
996,25	8,263
996,41	10,889
996,58	9,292
996,74	8,394
996,91	9,177
997,07	7,634
997,23	8,048
997,40	6,595
997,56	7,060
997,73	9,543
997,89	8,087
998,06	10,919
998,22	7,098
998,39	10,139
998,55	9,884
998,72	9,530
998,88	9,257
999,05	12,574
999,21	7,650
999,37	8,664
999,54	11,852
999,70	5,891
999,87	10,291
1000,03	7,420
1000,20	6,528
1000,36	7,456
1000,52	7,271
1000,69	10,504
1000,85	7,269
1001,02	6,657
1001,18	9,800
1001,35	7,410
1001,51	8,445
1001,67	4,225
1001,84	11,474
1002,00	8,841
1002,17	10,690
1002,33	10,949
1002,50	9,431
1002,66	7,271
1002,82	5,431
1002,99	5,674
1003,15	10,720
1003,32	10,092
1003,48	5,326
1003,64	9,976
1003,81	6,719
1003,97	7,891
1004,14	7,812
1004,30	8,279
1004,46	7,329
1004,63	9,790
1004,79	9,267
1004,95	6,571
1005,12	8,971
1005,28	11,650
1005,45	11,915
1005,61	10,609
1005,77	7,481
1005,94	10,164
1006,10	10,280
1006,26	9,237
1006,43	10,903
1006,59	7,831
1006,76	5,446
1006,92	11,676
1007,08	11,163
1007,25	8,146
1007,41	3,723
1007,57	11,253
1007,74	10,026
1007,90	7,241
1008,06	9,865
1008,23	9,686
1008,39	9,235
1008,55	7,819
1008,72	10,332
1008,88	6,924
1009,04	10,455
1009,21	7,581
1009,37	6,223
1009,53	8,792
1009,70	6,708
1009,86	10,365
1010,02	5,025
1010,19	8,246
1010,35	9,853
1010,51	10,394
1010,68	8,821
1010,84	7,245
1011,00	12,759
1011,17	8,711
1011,33	6,679
1011,49	9,019
1011,66	6,767
1011,82	3,896
1011,98	6,757
1012,14	5,344
1012,31	7,671
1012,47	8,775
1012,63	8,410
1012,80	7,910
1012,96	7,484
1013,12	7,429
1013,29	9,163
1013,45	7,038
1013,61	10,069
1013,77	5,664
1013,94	8,753
1014,10	7,260
1014,26	4,301
1014,43	11,343
1014,59	4,433
1014,75	5,561
1014,91	10,309
1015,08	12,387
1015,24	5,894
1015,40	8,088
1015,56	7,461
1015,73	8,889
1015,89	8,351
1016,05	3,269
1016,21	7,822
1016,38	6,385
1016,54	6,764
1016,70	5,318
1016,86	8,440
1017,03	5,543
1017,19	6,758
1017,35	6,363
1017,51	8,508
1017,68	5,359
1017,84	2,248
1018,00	6,711
1018,16	4,989
1018,33	12,284
1018,49	6,243
1018,65	10,722
1018,81	6,142
1018,97	14,205
1019,14	12,556
1019,30	4,994
1019,46	10,592
1019,62	2,191
1019,79	8,681
1019,95	11,098
1020,11	16,469
1020,27	5,939
1020,43	7,792
1020,60	5,787
1020,76	10,260
1020,92	4,134
1021,08	12,210
1021,24	8,526
1021,41	6,751
1021,57	8,169
1021,73	4,247
1021,89	9,034
1022,05	11,325
1022,21	6,431
1022,38	10,909
1022,54	6,914
1022,70	10,867
1022,86	1,252
1023,02	8,409
1023,19	3,714
1023,35	-2,180
1023,51	10,294
1023,67	9,711
1023,83	13,932
1023,99	8,869
1024,16	8,229
1024,32	-1,897
1024,48	10,013
1024,64	3,977
1024,80	11,310
1024,96	1,318
1025,12	13,671
1025,29	12,871
1025,45	9,669
1025,61	9,139
1025,77	5,362
1025,93	8,468
1026,09	11,218
1026,26	5,994
1026,42	10,283
1026,58	4,558
1026,74	3,249
1026,90	11,275
1027,06	8,892
1027,22	4,137
1027,38	8,832
1027,55	7,898
1027,71	10,617
1027,87	11,855
1028,03	4,899
1028,19	-1,466
1028,35	5,781
1028,51	5,248
1028,67	6,476
1028,83	7,515
1029,00	10,355
1029,16	4,643
1029,32	10,896
1029,48	0,444
1029,64	5,856
1029,80	10,269
1029,96	3,398
1030,12	3,448
1030,28	0,504
1030,44	9,558
1030,61	6,804
1030,77	6,818
1030,93	8,748
1031,09	9,403
1031,25	6,555
1031,41	8,411
1031,57	3,877
1031,73	3,902
1031,89	2,152
1032,05	8,134
1032,21	6,000
1032,37	3,676
1032,53	12,460
1032,69	12,666
1032,86	-0,520
1033,02	11,804
1033,18	6,164
1033,34	14,011
1033,50	13,189
1033,66	1,812
1033,82	9,402
1033,98	4,324
1034,14	4,904
1034,30	10,638
1034,46	1,431
1034,62	9,333
1034,78	10,825
1034,94	7,364
1035,10	3,506
1035,26	6,082
1035,42	2,024
1035,58	6,203
1035,74	7,000
1035,90	4,272
1036,06	2,887
1036,22	3,929
1036,38	12,717
1036,54	-3,380
1036,70	3,407
1036,86	13,602
1037,02	11,619
1037,18	12,830
1037,34	7,843
1037,50	2,273
1037,66	7,890
1037,82	9,342
1037,98	0,380
1038,14	7,676
1038,30	6,090
1038,46	15,488
1038,62	-3,571
1038,78	6,122
1038,94	7,822
1039,10	3,113
1039,26	-0,928
1039,42	21,643
1039,58	1,330
1039,74	8,756
1039,90	5,242
1040,06	8,777
>>>>>End Processed Spectral Data<<<<<
