SpectraSuite Data File
++++++++++++++++++++++++++++++++++++
Date: Thu Feb 02 18:41:58 EET 2017
User: optolab
Dark Spectrum Present: Yes
Reference Spectrum Present: Yes
Number of Sampled Component Spectra: 1
Spectrometers: USB4C02475
Integration Time (usec): 151411 (USB4C02475)
Spectra Averaged: 1 (USB4C02475)
Boxcar Smoothing: 0 (USB4C02475)
Correct for Electrical Dark: No (USB4C02475)
Strobe/Lamp Enabled: No (USB4C02475)
Correct for Detector Non-linearity: No (USB4C02475)
Correct for Stray Light: No (USB4C02475)
Number of Pixels in Processed Spectrum: 3648
>>>>>Begin Processed Spectral Data<<<<<
344,91	137,037
345,13	137,037
345,35	137,037
345,57	-160,000
345,79	153,846
346,00	-0,000
346,22	75,676
346,44	-261,538
346,66	1300,000
346,87	-150,000
347,09	-50,000
347,31	400,000
347,53	7,692
347,74	50,000
347,96	122,222
348,18	107,317
348,40	13,333
348,61	62,745
348,83	86,111
349,05	25,455
349,27	116,176
349,48	25,490
349,70	61,818
349,92	75,610
350,14	-1000,000
350,35	23,077
350,57	45,588
350,79	-40,426
351,01	9,677
351,22	285,714
351,44	-8,889
351,66	41,463
351,87	140,909
352,09	55,769
352,31	86,957
352,53	148,387
352,74	-25,000
352,96	42,857
353,18	109,091
353,40	117,857
353,61	93,333
353,83	60,000
354,05	62,069
354,26	-45,455
354,48	18,182
354,70	55,000
354,92	73,016
355,13	26,531
355,35	-650,000
355,57	100,000
355,78	110,000
356,00	-32,558
356,22	-16,418
356,44	0,000
356,65	23,077
356,87	112,346
357,09	-30,435
357,30	127,027
357,52	-28,571
357,74	44,615
357,95	-144,444
358,17	50,000
358,39	525,000
358,60	41,053
358,82	41,667
359,04	5,556
359,26	11,111
359,47	36,207
359,69	1700,000
359,91	-40,625
360,12	-4,762
360,34	221,053
360,56	18,947
360,77	81,481
360,99	175,000
361,21	30,769
361,42	5,000
361,64	0,000
361,86	53,846
362,07	53,465
362,29	-364,286
362,51	46,296
362,72	-10,000
362,94	32,500
363,16	69,565
363,37	53,125
363,59	30,769
363,81	15,254
364,02	45,455
364,24	-10,769
364,46	-2,000
364,67	44,444
364,89	-13,514
365,11	-666,667
365,32	28,070
365,54	21,739
365,76	6,250
365,97	65,714
366,19	57,895
366,41	101,538
366,62	95,714
366,84	43,333
367,05	-12,500
367,27	-95,455
367,49	51,515
367,70	28,261
367,92	30,380
368,14	9,677
368,35	46,914
368,57	-5,556
368,79	-41,892
369,00	30,714
369,22	30,208
369,43	50,000
369,65	77,381
369,87	-9,877
370,08	31,884
370,30	41,176
370,51	61,832
370,73	-15,873
370,95	-3,093
371,16	33,333
371,38	23,288
371,60	-18,605
371,81	18,947
372,03	21,818
372,24	0,000
372,46	-31,667
372,68	0,000
372,89	30,702
373,11	-64,815
373,32	23,810
373,54	-1,563
373,76	-16,807
373,97	-8,943
374,19	45,556
374,40	52,174
374,62	26,136
374,84	1,942
375,05	53,684
375,27	29,762
375,48	54,545
375,70	4,054
375,92	17,391
376,13	16,190
376,35	14,634
376,56	26,923
376,78	24,615
376,99	19,481
377,21	13,492
377,43	-6,250
377,64	21,186
377,86	7,527
378,07	27,368
378,29	30,000
378,51	21,875
378,72	15,741
378,94	-1,399
379,15	23,239
379,37	34,307
379,58	31,624
379,80	8,840
380,01	4,000
380,23	28,358
380,45	12,000
380,66	7,639
380,88	7,647
381,09	9,091
381,31	2,353
381,52	13,514
381,74	16,352
381,95	-39,474
382,17	10,112
382,39	16,867
382,60	-15,108
382,82	29,078
383,03	28,333
383,25	12,766
383,46	-24,348
383,68	4,430
383,89	45,055
384,11	-4,762
384,32	23,571
384,54	-57,143
384,76	5,780
384,97	31,818
385,19	28,000
385,40	24,405
385,62	12,766
385,83	18,710
386,05	18,881
386,26	12,169
386,48	-2,597
386,69	-19,200
386,91	-5,946
387,12	9,574
387,34	-3,315
387,55	-5,882
387,77	-3,743
387,98	10,185
388,20	41,071
388,41	18,876
388,63	13,810
388,84	2,685
389,06	-10,383
389,27	25,346
389,49	4,854
389,70	2,660
389,92	23,645
390,13	-9,459
390,35	3,125
390,56	13,115
390,78	8,787
390,99	-6,218
391,21	21,569
391,42	17,409
391,64	14,465
391,85	18,462
392,07	8,242
392,28	24,206
392,50	18,846
392,71	15,578
392,93	4,564
393,14	-7,650
393,36	13,964
393,57	20,172
393,79	15,982
394,00	-23,529
394,22	-6,533
394,43	3,965
394,65	16,183
394,86	2,662
395,08	5,202
395,29	5,333
395,50	20,614
395,72	-7,234
395,93	2,066
396,15	21,091
396,36	12,871
396,58	20,628
396,79	10,274
397,01	8,861
397,22	22,472
397,44	-0,422
397,65	15,194
397,87	17,375
398,08	20,712
398,29	5,051
398,51	25,369
398,72	6,618
398,94	0,690
399,15	9,766
399,37	1,370
399,58	5,098
399,80	22,989
400,01	13,070
400,22	14,047
400,44	-9,205
400,65	4,667
400,87	8,497
401,08	0,000
401,30	8,874
401,51	17,697
401,72	-6,985
401,94	8,042
402,15	15,000
402,37	15,934
402,58	-9,699
402,80	15,259
403,01	3,421
403,22	13,068
403,44	20,748
403,65	2,797
403,87	3,077
404,08	10,197
404,30	5,056
404,51	9,014
404,72	7,034
404,94	13,263
405,15	3,741
405,37	12,465
405,58	13,971
405,79	24,734
406,01	1,671
406,22	14,975
406,44	3,150
406,65	13,559
406,86	16,977
407,08	3,343
407,29	7,263
407,51	10,000
407,72	0,796
407,93	16,095
408,15	16,229
408,36	3,902
408,58	6,912
408,79	23,377
409,00	6,424
409,22	13,333
409,43	6,250
409,64	5,100
409,86	17,169
410,07	10,044
410,29	4,222
410,50	11,429
410,71	5,817
410,93	1,136
411,14	12,148
411,35	4,215
411,57	1,826
411,78	11,308
412,00	8,639
412,21	2,676
412,42	12,093
412,64	0,428
412,85	-6,067
413,06	4,556
413,28	4,175
413,49	1,062
413,70	4,981
413,92	4,909
414,13	2,648
414,34	13,535
414,56	0,385
414,77	11,799
414,98	8,037
415,20	-1,751
415,41	7,414
415,63	6,383
415,84	7,040
416,05	10,495
416,27	5,474
416,48	8,656
416,69	13,089
416,91	5,347
417,12	4,190
417,33	4,682
417,55	1,610
417,76	12,302
417,97	6,412
418,19	3,745
418,40	3,646
418,61	8,333
418,83	7,303
419,04	9,842
419,25	13,810
419,46	0,928
419,68	8,387
419,89	-0,177
420,10	8,669
420,32	6,182
420,53	3,420
420,74	9,564
420,96	4,018
421,17	5,388
421,38	11,268
421,60	6,426
421,81	4,394
422,02	1,800
422,23	12,592
422,45	6,536
422,66	3,883
422,87	6,892
423,09	-1,881
423,30	-1,869
423,51	0,466
423,73	3,592
423,94	6,887
424,15	2,669
424,36	0,000
424,58	2,250
424,79	5,423
425,00	3,557
425,22	9,114
425,43	0,268
425,64	0,145
425,85	12,237
426,07	0,545
426,28	5,925
426,49	3,786
426,71	10,691
426,92	3,654
427,13	2,281
427,34	4,333
427,56	6,005
427,77	7,741
427,98	6,319
428,19	6,792
428,41	1,697
428,62	5,658
428,83	7,684
429,04	8,333
429,26	4,661
429,47	6,263
429,68	0,402
429,89	1,606
430,11	7,177
430,32	5,285
430,53	3,554
430,74	3,480
430,96	8,215
431,17	5,283
431,38	8,905
431,59	2,013
431,81	8,541
432,02	5,254
432,23	4,032
432,44	-0,355
432,66	0,745
432,87	3,746
433,08	6,003
433,29	3,141
433,51	6,833
433,72	2,853
433,93	4,060
434,14	6,697
434,35	1,746
434,57	5,008
434,78	1,167
434,99	6,431
435,20	6,520
435,42	5,398
435,63	5,117
435,84	3,765
436,05	1,307
436,26	5,363
436,48	4,197
436,69	5,545
436,90	2,344
437,11	3,092
437,32	4,012
437,54	2,500
437,75	4,408
437,96	1,389
438,17	2,301
438,38	3,415
438,60	1,868
438,81	2,600
439,02	3,844
439,23	4,470
439,44	2,637
439,66	3,191
439,87	3,591
440,08	3,985
440,29	3,141
440,50	2,315
440,72	1,096
440,93	2,875
441,14	5,116
441,35	3,667
441,56	3,668
441,77	2,680
441,99	4,739
442,20	2,894
442,41	3,024
442,62	3,545
442,83	3,342
443,04	1,021
443,26	1,992
443,47	4,665
443,68	2,411
443,89	2,734
444,10	2,276
444,31	2,789
444,53	2,308
444,74	2,361
444,95	2,916
445,16	2,001
445,37	2,198
445,58	2,986
445,80	3,231
446,01	3,155
446,22	1,901
446,43	1,230
446,64	1,908
446,85	1,758
447,06	2,029
447,28	2,244
447,49	1,952
447,70	0,986
447,91	1,253
448,12	1,903
448,33	2,564
448,54	1,789
448,76	1,120
448,97	2,497
449,18	1,522
449,39	1,800
449,60	1,214
449,81	1,801
450,02	1,363
450,23	1,177
450,45	0,937
450,66	2,060
450,87	1,604
451,08	1,919
451,29	1,530
451,50	1,096
451,71	1,254
451,92	1,045
452,13	1,303
452,35	1,889
452,56	0,797
452,77	0,864
452,98	1,513
453,19	1,369
453,40	1,438
453,61	1,523
453,82	1,306
454,03	1,031
454,25	1,493
454,46	0,583
454,67	0,668
454,88	1,416
455,09	0,728
455,30	1,346
455,51	0,393
455,72	0,534
455,93	1,189
456,14	1,297
456,35	1,050
456,56	0,826
456,78	1,264
456,99	1,056
457,20	0,659
457,41	0,652
457,62	1,303
457,83	0,855
458,04	0,919
458,25	0,762
458,46	0,680
458,67	0,754
458,88	0,734
459,09	0,548
459,30	0,787
459,51	0,981
459,73	0,574
459,94	0,450
460,15	0,873
460,36	0,918
460,57	0,744
460,78	0,711
460,99	0,761
461,20	0,617
461,41	0,551
461,62	0,587
461,83	1,008
462,04	0,711
462,25	0,765
462,46	0,650
462,67	0,905
462,88	0,591
463,09	0,594
463,30	0,992
463,51	0,646
463,72	0,749
463,93	0,816
464,15	0,522
464,36	0,774
464,57	0,431
464,78	0,847
464,99	0,666
465,20	0,633
465,41	0,382
465,62	0,824
465,83	0,776
466,04	0,570
466,25	0,785
466,46	0,658
466,67	0,604
466,88	0,529
467,09	0,663
467,30	0,602
467,51	0,459
467,72	0,685
467,93	0,712
468,14	0,598
468,35	0,522
468,56	0,428
468,77	0,782
468,98	0,878
469,19	0,611
469,40	0,574
469,61	0,704
469,82	0,679
470,03	0,572
470,24	0,565
470,45	0,775
470,66	0,633
470,87	0,758
471,08	0,903
471,29	0,710
471,50	0,643
471,71	0,810
471,92	0,718
472,13	0,591
472,34	0,771
472,55	0,890
472,76	0,570
472,97	0,826
473,18	0,902
473,39	0,804
473,60	0,815
473,81	0,942
474,01	0,762
474,22	0,615
474,43	0,839
474,64	0,798
474,85	1,010
475,06	0,668
475,27	0,806
475,48	0,952
475,69	1,030
475,90	0,827
476,11	0,861
476,32	0,992
476,53	1,172
476,74	1,071
476,95	0,775
477,16	1,032
477,37	1,031
477,58	0,951
477,79	1,222
478,00	0,990
478,21	1,131
478,41	0,988
478,62	1,065
478,83	1,177
479,04	1,151
479,25	1,295
479,46	1,017
479,67	1,190
479,88	1,275
480,09	1,205
480,30	1,266
480,51	1,317
480,72	1,169
480,93	1,324
481,14	1,309
481,34	1,397
481,55	1,204
481,76	1,185
481,97	1,206
482,18	1,397
482,39	1,128
482,60	1,139
482,81	1,133
483,02	1,250
483,23	1,305
483,44	1,235
483,65	1,349
483,85	1,339
484,06	1,584
484,27	1,227
484,48	1,286
484,69	1,567
484,90	1,230
485,11	1,216
485,32	1,530
485,53	1,380
485,73	1,645
485,94	1,437
486,15	1,240
486,36	1,479
486,57	1,457
486,78	1,327
486,99	1,463
487,20	1,635
487,41	1,556
487,61	1,526
487,82	1,404
488,03	1,381
488,24	1,360
488,45	1,504
488,66	1,346
488,87	1,489
489,08	1,539
489,28	1,570
489,49	1,382
489,70	1,690
489,91	1,482
490,12	1,494
490,33	1,439
490,54	1,351
490,74	1,427
490,95	1,532
491,16	1,484
491,37	1,472
491,58	1,768
491,79	1,600
492,00	1,427
492,20	1,722
492,41	1,415
492,62	1,668
492,83	1,634
493,04	1,835
493,25	1,634
493,45	1,732
493,66	1,933
493,87	1,814
494,08	1,804
494,29	1,760
494,50	1,545
494,70	1,940
494,91	1,583
495,12	1,721
495,33	1,786
495,54	1,810
495,75	1,707
495,95	1,817
496,16	1,676
496,37	1,866
496,58	1,616
496,79	1,737
496,99	1,742
497,20	1,857
497,41	1,680
497,62	1,864
497,83	1,642
498,04	1,700
498,24	1,845
498,45	1,786
498,66	1,903
498,87	1,740
499,08	1,960
499,28	1,828
499,49	1,791
499,70	1,804
499,91	1,848
500,12	1,873
500,32	1,678
500,53	1,757
500,74	2,029
500,95	1,959
501,15	2,065
501,36	1,881
501,57	1,851
501,78	1,765
501,99	2,013
502,19	1,704
502,40	1,874
502,61	1,981
502,82	1,864
503,02	1,914
503,23	1,911
503,44	1,998
503,65	1,936
503,86	1,943
504,06	1,806
504,27	2,010
504,48	1,727
504,69	1,719
504,89	1,744
505,10	1,988
505,31	1,921
505,52	1,913
505,72	1,900
505,93	2,185
506,14	2,158
506,35	2,108
506,55	1,752
506,76	2,048
506,97	1,743
507,18	1,924
507,38	2,113
507,59	2,097
507,80	2,099
508,01	2,183
508,21	2,036
508,42	1,944
508,63	2,281
508,84	2,148
509,04	2,232
509,25	2,205
509,46	2,213
509,67	2,143
509,87	2,216
510,08	2,344
510,29	2,071
510,49	1,973
510,70	2,116
510,91	2,411
511,12	2,177
511,32	2,178
511,53	2,146
511,74	2,180
511,94	2,427
512,15	2,183
512,36	2,244
512,57	2,271
512,77	2,034
512,98	2,043
513,19	2,068
513,39	2,310
513,60	2,144
513,81	2,326
514,01	2,155
514,22	2,253
514,43	2,411
514,64	2,230
514,84	2,468
515,05	2,463
515,26	2,147
515,46	2,379
515,67	2,409
515,88	2,392
516,08	2,262
516,29	2,473
516,50	2,437
516,70	2,477
516,91	2,375
517,12	2,490
517,32	2,235
517,53	2,432
517,74	2,763
517,95	2,675
518,15	2,528
518,36	2,583
518,57	2,403
518,77	2,520
518,98	2,626
519,19	2,694
519,39	2,569
519,60	2,620
519,80	2,427
520,01	2,327
520,22	2,529
520,42	2,459
520,63	2,366
520,84	2,463
521,04	2,837
521,25	2,417
521,46	2,553
521,66	2,777
521,87	2,343
522,08	2,733
522,28	2,748
522,49	2,714
522,70	2,724
522,90	2,544
523,11	2,654
523,31	2,710
523,52	2,673
523,73	2,894
523,93	2,997
524,14	2,721
524,35	3,010
524,55	3,263
524,76	3,017
524,97	3,020
525,17	2,672
525,38	2,848
525,58	3,061
525,79	2,962
526,00	3,359
526,20	3,475
526,41	3,261
526,61	2,691
526,82	3,365
527,03	3,159
527,23	3,037
527,44	3,058
527,64	3,089
527,85	3,189
528,06	2,953
528,26	3,416
528,47	3,209
528,68	2,760
528,88	3,136
529,09	3,277
529,29	3,038
529,50	3,170
529,70	3,105
529,91	3,236
530,12	3,310
530,32	3,464
530,53	3,216
530,73	3,189
530,94	3,209
531,15	3,170
531,35	3,498
531,56	3,216
531,76	3,461
531,97	3,359
532,17	3,469
532,38	3,557
532,59	3,502
532,79	3,595
533,00	3,679
533,20	3,564
533,41	3,432
533,61	3,423
533,82	3,719
534,03	3,522
534,23	3,693
534,44	3,401
534,64	3,804
534,85	3,389
535,05	3,667
535,26	3,614
535,46	3,614
535,67	3,610
535,88	3,762
536,08	3,933
536,29	3,466
536,49	3,728
536,70	4,022
536,90	3,776
537,11	3,459
537,31	3,653
537,52	3,991
537,72	3,947
537,93	3,578
538,13	3,996
538,34	3,877
538,55	3,869
538,75	4,006
538,96	3,892
539,16	3,723
539,37	3,815
539,57	3,791
539,78	3,369
539,98	3,854
540,19	3,795
540,39	4,177
540,60	4,004
540,80	3,904
541,01	4,280
541,21	3,831
541,42	4,120
541,62	3,995
541,83	3,585
542,03	4,274
542,24	3,851
542,44	3,963
542,65	4,020
542,85	4,049
543,06	3,810
543,26	4,475
543,47	4,301
543,67	4,508
543,88	4,419
544,08	4,421
544,29	3,955
544,49	4,332
544,70	4,147
544,90	4,389
545,11	4,104
545,31	4,237
545,52	4,227
545,72	4,310
545,93	4,153
546,13	4,303
546,34	4,291
546,54	4,550
546,75	3,960
546,95	4,247
547,15	4,567
547,36	4,480
547,56	4,496
547,77	4,379
547,97	4,501
548,18	4,237
548,38	4,619
548,59	4,221
548,79	4,111
549,00	4,742
549,20	4,493
549,41	4,575
549,61	4,205
549,81	4,120
550,02	4,334
550,22	4,702
550,43	4,562
550,63	4,783
550,84	5,159
551,04	4,388
551,25	4,340
551,45	4,543
551,65	4,657
551,86	4,434
552,06	4,669
552,27	4,623
552,47	4,475
552,68	4,896
552,88	4,393
553,08	4,464
553,29	4,778
553,49	4,415
553,70	4,492
553,90	4,589
554,11	4,690
554,31	4,802
554,51	5,042
554,72	4,654
554,92	5,095
555,13	4,535
555,33	4,489
555,53	4,719
555,74	4,642
555,94	4,671
556,15	4,828
556,35	5,013
556,56	4,940
556,76	4,386
556,96	4,904
557,17	4,696
557,37	4,859
557,58	5,219
557,78	4,746
557,98	4,460
558,19	4,907
558,39	4,954
558,59	4,742
558,80	4,580
559,00	4,915
559,21	5,077
559,41	4,662
559,61	4,688
559,82	5,100
560,02	4,752
560,23	5,107
560,43	4,891
560,63	4,656
560,84	5,023
561,04	5,076
561,24	4,560
561,45	5,157
561,65	4,549
561,85	5,166
562,06	4,890
562,26	5,049
562,47	4,684
562,67	5,372
562,87	4,816
563,08	4,797
563,28	5,174
563,48	4,984
563,69	4,863
563,89	5,102
564,09	5,127
564,30	4,612
564,50	4,627
564,70	5,209
564,91	5,104
565,11	5,113
565,31	5,020
565,52	5,248
565,72	5,071
565,92	4,596
566,13	4,953
566,33	4,669
566,53	5,269
566,74	5,136
566,94	4,487
567,14	5,168
567,35	4,935
567,55	5,178
567,75	5,270
567,96	5,161
568,16	4,827
568,36	5,487
568,57	5,220
568,77	4,987
568,97	5,152
569,18	5,150
569,38	5,569
569,58	5,159
569,79	5,270
569,99	5,213
570,19	5,019
570,39	5,420
570,60	5,324
570,80	4,813
571,00	5,099
571,21	4,486
571,41	5,472
571,61	4,872
571,82	5,549
572,02	5,157
572,22	4,986
572,42	5,209
572,63	5,129
572,83	4,718
573,03	4,729
573,24	4,824
573,44	4,827
573,64	5,073
573,84	5,256
574,05	5,072
574,25	5,288
574,45	5,339
574,66	5,120
574,86	5,197
575,06	4,940
575,26	5,260
575,47	5,435
575,67	5,306
575,87	5,369
576,07	5,179
576,28	5,196
576,48	5,451
576,68	5,028
576,88	5,008
577,09	5,342
577,29	4,859
577,49	4,944
577,69	5,148
577,90	5,283
578,10	5,176
578,30	4,873
578,50	5,175
578,71	4,968
578,91	4,955
579,11	4,776
579,31	5,057
579,52	4,756
579,72	4,864
579,92	5,128
580,12	5,070
580,33	4,789
580,53	5,106
580,73	4,715
580,93	5,214
581,13	5,254
581,34	4,799
581,54	4,851
581,74	5,032
581,94	5,026
582,15	5,141
582,35	5,052
582,55	4,963
582,75	4,863
582,95	4,778
583,16	4,896
583,36	4,818
583,56	4,869
583,76	4,868
583,96	5,066
584,17	5,213
584,37	4,650
584,57	5,423
584,77	4,881
584,97	4,633
585,18	5,091
585,38	4,836
585,58	4,698
585,78	4,818
585,98	4,838
586,19	4,709
586,39	5,206
586,59	4,954
586,79	4,802
586,99	4,926
587,20	5,288
587,40	4,974
587,60	4,557
587,80	4,559
588,00	4,523
588,20	4,898
588,41	4,859
588,61	4,790
588,81	4,600
589,01	4,723
589,21	4,335
589,41	4,712
589,62	4,741
589,82	4,924
590,02	4,707
590,22	4,685
590,42	4,567
590,62	4,829
590,83	4,596
591,03	4,571
591,23	4,687
591,43	4,911
591,63	4,668
591,83	4,549
592,03	4,548
592,24	4,693
592,44	4,662
592,64	4,474
592,84	4,415
593,04	4,575
593,24	4,495
593,44	4,412
593,65	4,427
593,85	4,210
594,05	4,489
594,25	4,143
594,45	4,406
594,65	4,509
594,85	4,440
595,06	4,399
595,26	4,463
595,46	4,551
595,66	4,578
595,86	4,399
596,06	4,368
596,26	4,623
596,46	4,400
596,66	4,574
596,87	4,639
597,07	4,480
597,27	4,450
597,47	4,648
597,67	4,438
597,87	4,306
598,07	4,566
598,27	4,694
598,47	4,786
598,67	4,695
598,88	4,375
599,08	4,850
599,28	4,987
599,48	5,071
599,68	5,367
599,88	5,251
600,08	5,266
600,28	5,661
600,48	5,141
600,68	5,441
600,88	5,581
601,09	5,626
601,29	5,622
601,49	6,102
601,69	5,972
601,89	5,991
602,09	6,570
602,29	6,401
602,49	6,614
602,69	6,981
602,89	6,965
603,09	7,327
603,29	7,053
603,49	7,126
603,69	7,562
603,90	7,507
604,10	7,345
604,30	8,254
604,50	7,866
604,70	7,841
604,90	7,750
605,10	8,289
605,30	8,546
605,50	8,433
605,70	8,857
605,90	9,056
606,10	9,610
606,30	9,021
606,50	9,763
606,70	9,776
606,90	9,934
607,10	10,196
607,30	10,079
607,50	10,636
607,70	10,767
607,90	11,114
608,10	10,788
608,30	11,592
608,50	11,597
608,70	11,840
608,90	12,238
609,11	12,082
609,31	12,867
609,51	13,505
609,71	13,308
609,91	14,196
610,11	14,035
610,31	15,053
610,51	15,007
610,71	15,705
610,91	15,977
611,11	17,058
611,31	17,670
611,51	18,311
611,71	19,533
611,91	19,241
612,11	20,471
612,31	20,630
612,51	22,337
612,71	23,324
612,91	24,127
613,11	25,104
613,31	25,779
613,51	26,299
613,71	26,968
613,91	28,057
614,11	29,240
614,31	29,803
614,50	30,655
614,70	30,998
614,90	31,974
615,10	31,867
615,30	31,995
615,50	32,747
615,70	33,466
615,90	33,386
616,10	33,624
616,30	34,197
616,50	33,726
616,70	34,280
616,90	34,053
617,10	34,038
617,30	33,269
617,50	33,422
617,70	34,215
617,90	33,649
618,10	33,453
618,30	33,959
618,50	33,384
618,70	34,076
618,90	33,978
619,10	34,007
619,30	33,243
619,49	33,874
619,69	33,550
619,89	34,215
620,09	33,149
620,29	34,047
620,49	33,452
620,69	33,611
620,89	34,126
621,09	33,672
621,29	33,438
621,49	34,201
621,69	33,266
621,89	33,431
622,09	33,401
622,29	33,544
622,48	33,441
622,68	32,743
622,88	32,628
623,08	33,440
623,28	32,759
623,48	33,081
623,68	32,601
623,88	31,858
624,08	32,883
624,28	32,913
624,48	32,549
624,67	32,459
624,87	32,686
625,07	33,165
625,27	33,321
625,47	33,311
625,67	34,202
625,87	35,132
626,07	35,179
626,27	35,578
626,47	35,914
626,66	36,262
626,86	36,681
627,06	36,933
627,26	37,407
627,46	37,410
627,66	37,659
627,86	38,143
628,06	37,878
628,25	38,124
628,45	37,708
628,65	37,861
628,85	37,941
629,05	37,711
629,25	38,309
629,45	38,129
629,65	37,407
629,84	37,227
630,04	37,018
630,24	36,674
630,44	36,385
630,64	36,672
630,84	35,886
631,04	35,559
631,23	35,454
631,43	34,939
631,63	35,307
631,83	34,186
632,03	33,838
632,23	33,963
632,42	33,838
632,62	33,128
632,82	32,919
633,02	31,883
633,22	31,766
633,42	31,006
633,62	30,570
633,81	29,510
634,01	29,099
634,21	28,472
634,41	28,130
634,61	26,861
634,80	26,466
635,00	25,383
635,20	23,964
635,40	22,166
635,60	21,778
635,80	20,295
635,99	18,328
636,19	17,482
636,39	16,240
636,59	15,338
636,79	14,379
636,98	13,476
637,18	12,349
637,38	11,592
637,58	10,266
637,78	9,720
637,97	9,437
638,17	8,564
638,37	8,199
638,57	7,830
638,77	7,327
638,96	7,618
639,16	7,234
639,36	6,357
639,56	6,692
639,76	6,846
639,95	6,556
640,15	6,398
640,35	6,236
640,55	6,189
640,75	6,455
640,94	5,699
641,14	6,324
641,34	6,172
641,54	5,829
641,73	5,845
641,93	5,907
642,13	5,791
642,33	5,752
642,53	5,498
642,72	5,408
642,92	5,256
643,12	5,460
643,32	5,401
643,51	5,179
643,71	5,582
643,91	5,140
644,11	5,032
644,30	5,569
644,50	5,527
644,70	5,479
644,90	5,260
645,09	5,458
645,29	5,373
645,49	5,296
645,69	5,033
645,88	5,079
646,08	4,838
646,28	5,016
646,48	5,232
646,67	5,269
646,87	5,190
647,07	5,066
647,26	5,195
647,46	5,212
647,66	4,887
647,86	4,995
648,05	5,236
648,25	5,137
648,45	5,437
648,65	5,247
648,84	5,281
649,04	5,458
649,24	5,369
649,43	5,199
649,63	5,130
649,83	5,060
650,03	4,735
650,22	5,067
650,42	4,951
650,62	5,092
650,81	5,039
651,01	4,991
651,21	5,190
651,40	4,783
651,60	4,824
651,80	4,888
652,00	5,310
652,19	5,407
652,39	4,958
652,59	4,917
652,78	5,182
652,98	5,228
653,18	5,065
653,37	4,860
653,57	5,210
653,77	4,812
653,96	4,989
654,16	5,109
654,36	5,266
654,55	4,698
654,75	5,023
654,95	5,006
655,14	5,139
655,34	5,107
655,54	5,245
655,73	5,090
655,93	5,299
656,13	5,067
656,32	4,747
656,52	4,884
656,72	5,124
656,91	4,887
657,11	4,919
657,31	5,000
657,50	4,907
657,70	4,776
657,90	5,023
658,09	4,902
658,29	4,866
658,49	4,789
658,68	4,640
658,88	5,005
659,07	4,797
659,27	4,878
659,47	5,245
659,66	4,726
659,86	5,058
660,06	4,915
660,25	5,368
660,45	5,280
660,64	5,106
660,84	4,998
661,04	5,085
661,23	4,945
661,43	4,686
661,63	4,632
661,82	4,797
662,02	5,142
662,21	4,685
662,41	5,037
662,61	5,308
662,80	4,846
663,00	4,949
663,19	5,048
663,39	5,003
663,59	4,961
663,78	5,131
663,98	4,899
664,17	4,796
664,37	4,951
664,57	4,861
664,76	5,315
664,96	5,008
665,15	4,929
665,35	4,956
665,55	4,973
665,74	4,968
665,94	4,758
666,13	4,968
666,33	5,007
666,53	5,026
666,72	5,387
666,92	4,914
667,11	5,398
667,31	5,053
667,50	5,059
667,70	4,961
667,90	4,463
668,09	4,867
668,29	4,907
668,48	5,078
668,68	4,790
668,87	4,957
669,07	4,776
669,26	5,048
669,46	4,766
669,66	4,547
669,85	5,009
670,05	5,094
670,24	4,818
670,44	5,012
670,63	5,070
670,83	4,907
671,02	4,537
671,22	5,009
671,42	5,011
671,61	4,950
671,81	5,220
672,00	5,089
672,20	4,925
672,39	5,215
672,59	5,122
672,78	5,216
672,98	4,929
673,17	4,727
673,37	4,668
673,56	4,826
673,76	4,583
673,95	4,683
674,15	4,917
674,34	5,121
674,54	4,876
674,73	4,869
674,93	5,098
675,13	4,964
675,32	5,028
675,52	4,700
675,71	4,796
675,91	5,025
676,10	4,857
676,30	4,829
676,49	4,947
676,69	5,155
676,88	5,104
677,08	4,738
677,27	4,861
677,47	5,099
677,66	4,963
677,86	4,859
678,05	4,957
678,24	5,183
678,44	4,983
678,63	5,094
678,83	5,118
679,02	5,197
679,22	5,077
679,41	5,283
679,61	4,941
679,80	4,893
680,00	5,055
680,19	5,240
680,39	5,105
680,58	4,985
680,78	5,214
680,97	5,451
681,17	5,065
681,36	4,959
681,56	4,748
681,75	4,987
681,94	5,122
682,14	4,998
682,33	4,725
682,53	4,846
682,72	5,105
682,92	5,170
683,11	5,087
683,31	5,208
683,50	4,976
683,69	5,108
683,89	4,961
684,08	4,857
684,28	4,776
684,47	4,895
684,67	4,875
684,86	4,696
685,06	4,830
685,25	4,900
685,44	5,107
685,64	5,097
685,83	5,120
686,03	5,175
686,22	4,883
686,42	5,127
686,61	5,011
686,80	4,893
687,00	4,835
687,19	5,026
687,39	4,963
687,58	4,899
687,77	5,092
687,97	5,285
688,16	5,348
688,36	5,070
688,55	4,743
688,74	5,044
688,94	5,157
689,13	4,998
689,33	4,878
689,52	4,895
689,71	5,177
689,91	5,058
690,10	5,127
690,30	4,981
690,49	5,178
690,68	5,189
690,88	4,971
691,07	5,218
691,27	5,000
691,46	5,091
691,65	5,095
691,85	4,918
692,04	4,949
692,23	4,897
692,43	5,258
692,62	4,991
692,82	4,962
693,01	5,400
693,20	5,139
693,40	4,539
693,59	5,066
693,78	4,950
693,98	4,853
694,17	4,926
694,36	4,963
694,56	5,248
694,75	5,052
694,94	5,275
695,14	5,231
695,33	5,029
695,53	4,947
695,72	5,314
695,91	5,415
696,11	5,219
696,30	4,952
696,49	5,183
696,69	4,776
696,88	5,066
697,07	4,990
697,27	4,916
697,46	5,098
697,65	5,273
697,85	5,089
698,04	5,170
698,23	5,095
698,43	5,230
698,62	5,049
698,81	5,282
699,01	5,249
699,20	5,184
699,39	4,918
699,58	4,997
699,78	5,078
699,97	5,362
700,16	4,902
700,36	4,897
700,55	5,348
700,74	4,993
700,94	5,459
701,13	5,247
701,32	5,251
701,52	4,787
701,71	5,129
701,90	4,798
702,09	5,411
702,29	5,492
702,48	5,174
702,67	5,336
702,87	5,018
703,06	5,344
703,25	4,978
703,44	5,510
703,64	5,137
703,83	5,233
704,02	4,952
704,22	5,418
704,41	5,315
704,60	5,087
704,79	5,450
704,99	5,103
705,18	5,127
705,37	5,318
705,56	5,174
705,76	5,192
705,95	4,799
706,14	5,251
706,33	5,222
706,53	5,090
706,72	5,084
706,91	5,072
707,11	5,328
707,30	5,064
707,49	5,498
707,68	5,253
707,88	5,000
708,07	5,237
708,26	5,062
708,45	5,089
708,64	5,081
708,84	5,081
709,03	5,261
709,22	5,188
709,41	5,013
709,61	5,161
709,80	5,337
709,99	5,194
710,18	5,435
710,38	5,402
710,57	5,661
710,76	5,007
710,95	5,521
711,14	5,141
711,34	4,924
711,53	5,197
711,72	5,363
711,91	5,708
712,11	5,339
712,30	5,375
712,49	5,084
712,68	5,079
712,87	5,297
713,07	5,355
713,26	5,237
713,45	5,341
713,64	5,486
713,83	5,389
714,03	5,199
714,22	5,035
714,41	5,544
714,60	5,288
714,79	5,410
714,99	5,312
715,18	5,171
715,37	5,103
715,56	5,474
715,75	5,120
715,94	5,211
716,14	5,098
716,33	5,323
716,52	5,336
716,71	5,030
716,90	5,357
717,10	5,214
717,29	5,275
717,48	5,116
717,67	5,438
717,86	5,178
718,05	5,550
718,24	5,088
718,44	5,366
718,63	5,410
718,82	5,545
719,01	5,426
719,20	5,114
719,39	5,031
719,59	5,150
719,78	5,488
719,97	5,619
720,16	5,450
720,35	5,436
720,54	5,296
720,73	5,332
720,93	5,084
721,12	5,493
721,31	5,562
721,50	5,201
721,69	5,482
721,88	5,250
722,07	5,740
722,27	5,445
722,46	5,531
722,65	5,275
722,84	5,307
723,03	5,203
723,22	5,168
723,41	5,374
723,60	5,512
723,79	5,424
723,99	5,374
724,18	5,823
724,37	5,357
724,56	5,692
724,75	5,581
724,94	5,544
725,13	5,343
725,32	5,285
725,51	5,470
725,71	5,734
725,90	5,512
726,09	5,381
726,28	5,956
726,47	5,570
726,66	5,710
726,85	5,810
727,04	5,538
727,23	5,831
727,42	5,576
727,61	5,431
727,81	5,572
728,00	6,264
728,19	5,976
728,38	5,807
728,57	6,475
728,76	6,455
728,95	6,255
729,14	6,316
729,33	6,794
729,52	6,599
729,71	6,724
729,90	6,970
730,09	6,879
730,28	7,109
730,48	6,937
730,67	7,345
730,86	6,891
731,05	7,247
731,24	7,855
731,43	7,700
731,62	8,252
731,81	8,147
732,00	8,543
732,19	8,339
732,38	8,451
732,57	8,646
732,76	8,648
732,95	8,816
733,14	8,918
733,33	9,340
733,52	9,486
733,71	9,886
733,90	9,911
734,09	10,328
734,28	10,537
734,47	10,721
734,66	10,397
734,85	10,554
735,04	11,635
735,23	11,356
735,42	11,934
735,61	11,570
735,81	12,476
736,00	12,386
736,19	12,687
736,38	13,245
736,57	13,154
736,76	13,252
736,95	13,950
737,14	14,821
737,33	14,962
737,52	15,345
737,71	16,261
737,90	16,372
738,09	17,237
738,28	17,477
738,47	18,021
738,66	19,161
738,85	19,304
739,04	19,855
739,22	20,788
739,41	22,126
739,60	22,228
739,79	22,880
739,98	23,591
740,17	24,795
740,36	25,530
740,55	26,870
740,74	27,810
740,93	28,457
741,12	29,898
741,31	30,636
741,50	32,563
741,69	33,447
741,88	34,858
742,07	35,981
742,26	37,530
742,45	38,591
742,64	40,562
742,83	41,161
743,02	41,740
743,21	43,519
743,40	43,850
743,59	44,706
743,78	46,780
743,97	47,461
744,16	48,135
744,34	49,826
744,53	50,508
744,72	50,826
744,91	51,112
745,10	51,243
745,29	52,911
745,48	53,305
745,67	53,507
745,86	53,414
746,05	53,467
746,24	52,817
746,43	53,417
746,62	53,055
746,81	53,191
747,00	51,790
747,18	51,980
747,37	51,560
747,56	51,550
747,75	52,424
747,94	51,022
748,13	50,732
748,32	50,522
748,51	50,144
748,70	49,415
748,89	49,079
749,08	47,819
749,26	48,557
749,45	47,018
749,64	46,336
749,83	46,243
750,02	45,489
750,21	45,511
750,40	43,542
750,59	43,037
750,78	42,022
750,96	42,175
751,15	41,738
751,34	40,866
751,53	40,264
751,72	40,519
751,91	39,246
752,10	39,579
752,29	39,058
752,47	38,284
752,66	39,261
752,85	37,657
753,04	38,418
753,23	37,147
753,42	36,867
753,61	37,176
753,80	36,756
753,98	35,995
754,17	36,152
754,36	36,152
754,55	35,356
754,74	34,870
754,93	35,007
755,12	35,107
755,30	34,451
755,49	34,274
755,68	34,237
755,87	34,329
756,06	33,654
756,25	33,219
756,43	32,935
756,62	32,780
756,81	32,251
757,00	32,695
757,19	32,042
757,38	32,047
757,56	30,721
757,75	31,019
757,94	30,385
758,13	29,839
758,32	30,077
758,51	28,563
758,69	28,857
758,88	27,715
759,07	27,827
759,26	27,041
759,45	26,232
759,63	25,545
759,82	24,870
760,01	23,951
760,20	22,978
760,39	22,020
760,57	20,843
760,76	19,699
760,95	19,000
761,14	18,360
761,33	17,466
761,51	16,392
761,70	15,661
761,89	14,507
762,08	13,741
762,27	13,248
762,45	12,612
762,64	11,943
762,83	11,180
763,02	11,099
763,21	9,736
763,39	9,850
763,58	9,398
763,77	9,227
763,96	8,972
764,14	8,291
764,33	8,139
764,52	8,416
764,71	7,608
764,89	8,081
765,08	7,624
765,27	7,049
765,46	7,658
765,65	7,538
765,83	7,367
766,02	7,245
766,21	6,814
766,40	6,871
766,58	7,110
766,77	6,879
766,96	6,976
767,15	6,857
767,33	6,240
767,52	6,277
767,71	5,999
767,90	5,873
768,08	6,043
768,27	6,170
768,46	5,670
768,64	5,450
768,83	5,438
769,02	5,435
769,21	5,693
769,39	5,354
769,58	5,338
769,77	5,164
769,96	5,039
770,14	5,161
770,33	5,149
770,52	5,118
770,70	4,810
770,89	4,756
771,08	4,999
771,27	5,141
771,45	5,104
771,64	4,927
771,83	4,843
772,01	5,062
772,20	4,952
772,39	5,302
772,57	5,225
772,76	4,987
772,95	4,922
773,14	4,810
773,32	4,980
773,51	5,019
773,70	5,024
773,88	4,774
774,07	4,995
774,26	5,087
774,44	5,092
774,63	4,983
774,82	5,344
775,00	5,263
775,19	5,213
775,38	4,897
775,56	4,952
775,75	4,802
775,94	5,104
776,12	4,756
776,31	4,861
776,50	5,106
776,68	4,966
776,87	4,789
777,06	5,222
777,24	4,505
777,43	5,146
777,62	4,702
777,80	4,830
777,99	4,758
778,18	4,823
778,36	5,053
778,55	4,477
778,74	4,821
778,92	4,736
779,11	4,551
779,29	4,525
779,48	5,223
779,67	4,820
779,85	4,988
780,04	5,199
780,23	4,937
780,41	4,961
780,60	4,815
780,79	5,003
780,97	5,296
781,16	4,977
781,34	5,386
781,53	4,964
781,72	4,998
781,90	5,158
782,09	5,015
782,28	4,986
782,46	4,930
782,65	4,791
782,83	4,336
783,02	4,655
783,21	4,726
783,39	4,887
783,58	5,009
783,76	4,945
783,95	4,806
784,14	4,920
784,32	4,874
784,51	4,860
784,69	4,713
784,88	4,750
785,06	5,187
785,25	4,826
785,44	4,739
785,62	4,731
785,81	4,723
785,99	5,200
786,18	4,817
786,37	4,952
786,55	4,554
786,74	5,095
786,92	4,781
787,11	4,640
787,29	4,876
787,48	4,852
787,67	4,744
787,85	4,580
788,04	4,880
788,22	4,504
788,41	4,677
788,59	4,597
788,78	4,602
788,96	4,995
789,15	4,684
789,34	4,950
789,52	5,046
789,71	4,715
789,89	5,395
790,08	4,518
790,26	5,135
790,45	4,945
790,63	5,446
790,82	5,167
791,00	4,967
791,19	5,008
791,38	4,895
791,56	4,958
791,75	5,176
791,93	5,676
792,12	5,196
792,30	5,079
792,49	5,562
792,67	5,100
792,86	5,019
793,04	5,090
793,23	5,105
793,41	4,710
793,60	5,032
793,78	4,756
793,97	5,124
794,15	5,229
794,34	5,113
794,52	5,137
794,71	5,313
794,89	5,261
795,08	5,454
795,26	4,967
795,45	5,513
795,63	4,967
795,82	5,379
796,00	4,707
796,19	5,429
796,37	5,154
796,56	4,744
796,74	4,947
796,93	4,799
797,11	5,140
797,30	4,882
797,48	5,002
797,67	4,957
797,85	5,092
798,04	5,300
798,22	5,389
798,41	5,073
798,59	4,856
798,77	5,158
798,96	5,219
799,14	5,076
799,33	5,360
799,51	4,638
799,70	4,390
799,88	4,717
800,07	5,073
800,25	4,968
800,44	4,747
800,62	4,572
800,80	4,800
800,99	4,828
801,17	4,924
801,36	5,069
801,54	4,560
801,73	4,922
801,91	5,025
802,10	5,202
802,28	5,034
802,46	5,181
802,65	4,999
802,83	5,192
803,02	5,380
803,20	5,347
803,39	5,174
803,57	5,041
803,75	5,250
803,94	5,395
804,12	5,401
804,31	5,112
804,49	5,085
804,67	5,167
804,86	4,915
805,04	5,003
805,23	5,210
805,41	5,152
805,59	5,182
805,78	4,955
805,96	5,096
806,15	5,336
806,33	5,093
806,51	4,413
806,70	4,899
806,88	5,151
807,07	5,199
807,25	4,988
807,43	4,629
807,62	4,941
807,80	4,841
807,99	4,814
808,17	4,883
808,35	4,881
808,54	4,510
808,72	5,086
808,90	5,412
809,09	4,840
809,27	5,464
809,46	5,098
809,64	5,110
809,82	5,291
810,01	5,227
810,19	4,582
810,37	4,372
810,56	5,051
810,74	5,159
810,92	5,239
811,11	5,107
811,29	5,377
811,48	4,868
811,66	5,561
811,84	5,598
812,03	4,924
812,21	5,198
812,39	5,290
812,58	5,117
812,76	5,205
812,94	5,211
813,13	4,470
813,31	5,264
813,49	5,692
813,68	5,050
813,86	5,292
814,04	4,607
814,23	4,647
814,41	5,131
814,59	4,743
814,78	4,692
814,96	4,833
815,14	4,771
815,33	4,811
815,51	4,669
815,69	4,907
815,87	5,444
816,06	5,408
816,24	5,958
816,42	5,223
816,61	5,520
816,79	5,827
816,97	5,398
817,16	5,500
817,34	5,165
817,52	5,048
817,70	5,409
817,89	5,451
818,07	5,422
818,25	5,264
818,44	5,631
818,62	5,352
818,80	5,877
818,98	5,314
819,17	5,750
819,35	5,744
819,53	6,135
819,72	5,926
819,90	6,290
820,08	5,912
820,26	6,419
820,45	6,559
820,63	6,365
820,81	6,743
820,99	6,444
821,18	6,312
821,36	6,251
821,54	6,966
821,73	7,155
821,91	6,116
822,09	6,947
822,27	7,704
822,46	7,059
822,64	7,475
822,82	7,911
823,00	7,175
823,19	7,874
823,37	7,466
823,55	7,565
823,73	8,141
823,91	7,616
824,10	8,433
824,28	8,238
824,46	8,262
824,64	8,375
824,83	8,917
825,01	9,315
825,19	8,705
825,37	9,630
825,56	8,924
825,74	9,283
825,92	9,577
826,10	9,856
826,28	9,615
826,47	9,917
826,65	10,290
826,83	10,342
827,01	10,503
827,19	11,197
827,38	11,265
827,56	11,756
827,74	11,219
827,92	11,186
828,10	11,968
828,29	11,652
828,47	11,524
828,65	12,665
828,83	12,405
829,01	12,192
829,20	12,473
829,38	13,255
829,56	13,201
829,74	13,757
829,92	13,544
830,10	14,313
830,29	14,117
830,47	15,164
830,65	14,967
830,83	15,943
831,01	16,125
831,20	16,684
831,38	16,584
831,56	17,368
831,74	18,455
831,92	18,460
832,10	18,712
832,29	19,081
832,47	20,204
832,65	20,831
832,83	20,951
833,01	22,196
833,19	22,833
833,37	23,173
833,56	24,147
833,74	25,617
833,92	25,587
834,10	26,597
834,28	27,538
834,46	28,452
834,64	28,651
834,83	30,303
835,01	31,053
835,19	32,592
835,37	32,869
835,55	34,395
835,73	35,460
835,91	34,529
836,09	36,302
836,28	37,021
836,46	38,863
836,64	38,483
836,82	39,269
837,00	40,323
837,18	41,348
837,36	40,680
837,54	42,233
837,72	42,305
837,91	41,641
838,09	43,615
838,27	44,247
838,45	46,050
838,63	45,527
838,81	45,095
838,99	47,098
839,17	47,217
839,35	46,498
839,53	46,701
839,72	48,512
839,90	46,821
840,08	48,941
840,26	49,732
840,44	49,483
840,62	49,561
840,80	49,820
840,98	48,660
841,16	48,422
841,34	49,094
841,52	49,024
841,70	49,028
841,89	47,992
842,07	49,449
842,25	48,636
842,43	47,900
842,61	47,215
842,79	46,559
842,97	45,829
843,15	45,382
843,33	43,554
843,51	42,640
843,69	41,652
843,87	41,600
844,05	40,801
844,23	39,736
844,41	39,451
844,59	37,687
844,77	38,417
844,95	37,419
845,13	35,977
845,31	36,822
845,50	35,088
845,68	34,965
845,86	34,287
846,04	33,932
846,22	34,063
846,40	32,651
846,58	31,954
846,76	33,340
846,94	32,457
847,12	31,420
847,30	30,995
847,48	31,374
847,66	31,572
847,84	30,795
848,02	31,406
848,20	32,103
848,38	31,135
848,56	30,774
848,74	31,394
848,92	29,866
849,10	31,719
849,28	29,204
849,46	28,996
849,64	29,998
849,82	29,273
850,00	30,063
850,18	29,037
850,36	29,518
850,54	28,993
850,72	28,213
850,90	28,133
851,08	28,566
851,26	27,233
851,44	27,120
851,62	25,993
851,80	25,674
851,98	26,041
852,16	25,604
852,34	23,827
852,52	22,978
852,70	23,204
852,87	21,611
853,05	21,303
853,23	19,938
853,41	19,438
853,59	18,776
853,77	18,053
853,95	16,665
854,13	16,615
854,31	15,456
854,49	14,882
854,67	14,378
854,85	13,243
855,03	13,696
855,21	13,298
855,39	12,139
855,57	12,504
855,75	11,128
855,93	10,853
856,11	11,160
856,28	10,954
856,46	10,734
856,64	9,859
856,82	10,735
857,00	9,873
857,18	10,064
857,36	10,012
857,54	9,846
857,72	9,819
857,90	9,256
858,08	9,529
858,26	10,203
858,44	9,709
858,61	8,992
858,79	9,781
858,97	9,011
859,15	9,008
859,33	9,260
859,51	9,129
859,69	8,622
859,87	8,377
860,05	8,607
860,23	7,708
860,40	8,473
860,58	7,939
860,76	7,741
860,94	7,791
861,12	8,037
861,30	7,374
861,48	7,302
861,66	7,023
861,84	7,099
862,01	7,687
862,19	7,009
862,37	7,524
862,55	7,186
862,73	6,322
862,91	6,914
863,09	6,796
863,27	6,809
863,44	6,683
863,62	6,560
863,80	6,335
863,98	6,322
864,16	6,132
864,34	6,006
864,52	6,391
864,69	5,821
864,87	5,680
865,05	5,836
865,23	5,367
865,41	5,288
865,59	5,259
865,76	4,663
865,94	5,354
866,12	4,980
866,30	4,930
866,48	4,250
866,66	4,789
866,83	5,102
867,01	4,267
867,19	4,331
867,37	4,326
867,55	4,237
867,73	4,022
867,90	4,745
868,08	4,430
868,26	3,980
868,44	4,077
868,62	3,935
868,79	4,531
868,97	3,925
869,15	3,987
869,33	4,303
869,51	4,706
869,69	4,066
869,86	3,599
870,04	3,718
870,22	4,290
870,40	4,418
870,57	3,989
870,75	3,751
870,93	4,095
871,11	4,500
871,29	4,107
871,46	3,891
871,64	4,654
871,82	3,677
872,00	4,285
872,18	4,619
872,35	4,239
872,53	4,417
872,71	4,284
872,89	4,342
873,06	4,390
873,24	4,260
873,42	4,187
873,60	4,286
873,77	4,102
873,95	4,208
874,13	3,459
874,31	4,537
874,49	4,174
874,66	3,884
874,84	4,382
875,02	3,534
875,20	4,198
875,37	3,933
875,55	4,189
875,73	4,141
875,91	3,851
876,08	3,619
876,26	4,124
876,44	3,998
876,61	4,153
876,79	4,302
876,97	3,749
877,15	3,585
877,32	3,810
877,50	3,448
877,68	3,644
877,86	3,607
878,03	4,094
878,21	3,953
878,39	4,155
878,56	3,544
878,74	4,384
878,92	3,681
879,10	4,085
879,27	4,071
879,45	3,758
879,63	3,523
879,80	4,090
879,98	4,008
880,16	4,288
880,34	4,261
880,51	3,316
880,69	4,555
880,87	4,109
881,04	4,357
881,22	3,923
881,40	4,096
881,57	3,764
881,75	3,974
881,93	3,962
882,10	4,280
882,28	3,816
882,46	4,381
882,63	4,370
882,81	3,555
882,99	4,066
883,16	3,512
883,34	3,916
883,52	3,459
883,69	3,182
883,87	3,832
884,05	4,220
884,22	3,460
884,40	3,732
884,58	4,271
884,75	4,171
884,93	4,463
885,11	4,048
885,28	3,471
885,46	3,855
885,64	4,084
885,81	3,707
885,99	3,915
886,17	3,789
886,34	3,855
886,52	3,823
886,70	3,859
886,87	3,707
887,05	4,224
887,22	4,256
887,40	4,344
887,58	3,819
887,75	3,479
887,93	4,041
888,11	3,234
888,28	3,291
888,46	2,963
888,63	3,871
888,81	4,050
888,99	3,392
889,16	3,291
889,34	3,516
889,51	3,580
889,69	3,711
889,87	3,529
890,04	2,974
890,22	3,759
890,39	3,673
890,57	4,260
890,75	3,670
890,92	4,281
891,10	3,520
891,27	3,389
891,45	3,183
891,63	3,731
891,80	3,531
891,98	4,172
892,15	3,436
892,33	3,517
892,51	3,628
892,68	3,213
892,86	3,773
893,03	4,250
893,21	3,537
893,38	3,058
893,56	3,524
893,74	3,602
893,91	3,712
894,09	3,564
894,26	3,414
894,44	3,332
894,61	3,024
894,79	3,876
894,96	3,853
895,14	3,771
895,32	4,154
895,49	3,601
895,67	3,600
895,84	3,773
896,02	3,421
896,19	3,834
896,37	3,728
896,54	3,508
896,72	3,448
896,89	3,265
897,07	3,516
897,25	3,487
897,42	3,191
897,60	3,680
897,77	4,164
897,95	3,179
898,12	3,048
898,30	3,389
898,47	2,852
898,65	3,206
898,82	2,847
899,00	3,067
899,17	2,362
899,35	3,142
899,52	3,753
899,70	2,904
899,87	3,834
900,05	3,220
900,22	3,172
900,40	3,834
900,57	3,212
900,75	3,414
900,92	3,479
901,10	2,905
901,27	3,052
901,45	3,639
901,62	3,620
901,80	2,936
901,97	3,045
902,15	3,652
902,32	2,982
902,50	3,059
902,67	2,683
902,85	3,723
903,02	3,078
903,20	2,884
903,37	3,414
903,54	3,142
903,72	2,908
903,89	3,140
904,07	3,232
904,24	3,330
904,42	2,552
904,59	3,529
904,77	3,376
904,94	3,522
905,12	3,144
905,29	2,837
905,47	3,019
905,64	3,512
905,81	2,846
905,99	3,556
906,16	3,264
906,34	3,104
906,51	3,895
906,69	3,187
906,86	2,888
907,03	3,067
907,21	3,335
907,38	3,203
907,56	2,847
907,73	3,190
907,91	3,416
908,08	3,326
908,25	3,610
908,43	3,065
908,60	2,720
908,78	3,183
908,95	2,801
909,13	2,699
909,30	2,410
909,47	2,912
909,65	2,999
909,82	3,425
910,00	3,329
910,17	2,519
910,34	3,090
910,52	2,815
910,69	3,128
910,87	2,934
911,04	2,771
911,21	3,412
911,39	3,088
911,56	3,025
911,73	2,997
911,91	3,000
912,08	2,778
912,26	3,321
912,43	3,705
912,60	3,458
912,78	3,093
912,95	3,024
913,13	2,804
913,30	2,902
913,47	2,502
913,65	2,702
913,82	3,159
913,99	2,457
914,17	2,859
914,34	2,767
914,51	3,509
914,69	2,873
914,86	2,974
915,03	2,747
915,21	2,684
915,38	3,148
915,56	3,228
915,73	1,933
915,90	3,067
916,08	3,657
916,25	2,693
916,42	3,395
916,60	2,979
916,77	2,537
916,94	2,911
917,12	2,945
917,29	3,261
917,46	3,270
917,64	3,241
917,81	3,005
917,98	3,061
918,16	2,398
918,33	3,136
918,50	3,203
918,67	2,208
918,85	2,637
919,02	2,187
919,19	2,720
919,37	2,433
919,54	2,514
919,71	2,756
919,89	2,720
920,06	2,341
920,23	2,693
920,41	2,951
920,58	2,948
920,75	2,700
920,92	2,445
921,10	2,483
921,27	2,760
921,44	2,917
921,62	2,715
921,79	2,424
921,96	3,411
922,13	3,117
922,31	2,830
922,48	2,888
922,65	2,587
922,82	2,617
923,00	2,124
923,17	2,691
923,34	2,407
923,52	2,566
923,69	2,295
923,86	2,682
924,03	2,728
924,21	2,759
924,38	2,000
924,55	2,529
924,72	2,410
924,90	2,699
925,07	2,798
925,24	2,169
925,41	2,250
925,59	1,946
925,76	2,651
925,93	2,225
926,10	1,354
926,28	2,732
926,45	2,038
926,62	1,940
926,79	2,160
926,96	2,188
927,14	2,604
927,31	3,004
927,48	2,637
927,65	2,841
927,83	2,439
928,00	2,494
928,17	2,989
928,34	2,513
928,51	2,305
928,69	2,371
928,86	2,427
929,03	2,449
929,20	2,597
929,37	2,286
929,55	2,227
929,72	2,055
929,89	2,316
930,06	1,865
930,23	2,320
930,41	1,975
930,58	1,433
930,75	2,827
930,92	1,982
931,09	2,198
931,27	2,093
931,44	2,619
931,61	2,059
931,78	1,896
931,95	2,261
932,12	2,248
932,30	2,734
932,47	2,405
932,64	1,926
932,81	1,836
932,98	2,457
933,16	2,028
933,33	2,281
933,50	2,004
933,67	2,526
933,84	1,779
934,01	2,020
934,18	1,666
934,36	1,531
934,53	2,302
934,70	2,204
934,87	2,969
935,04	2,364
935,21	2,160
935,38	2,053
935,56	2,509
935,73	2,099
935,90	2,075
936,07	1,909
936,24	2,178
936,41	2,542
936,58	1,936
936,76	2,120
936,93	1,658
937,10	1,951
937,27	2,213
937,44	2,603
937,61	3,042
937,78	1,679
937,95	2,428
938,13	1,994
938,30	1,657
938,47	1,700
938,64	2,297
938,81	1,609
938,98	2,282
939,15	1,768
939,32	1,690
939,49	1,482
939,66	2,019
939,84	2,841
940,01	1,456
940,18	1,906
940,35	1,719
940,52	1,560
940,69	1,839
940,86	2,345
941,03	2,169
941,20	2,117
941,37	2,300
941,54	1,869
941,71	1,775
941,89	1,952
942,06	1,910
942,23	2,171
942,40	2,417
942,57	2,659
942,74	1,879
942,91	2,029
943,08	2,275
943,25	1,972
943,42	1,441
943,59	1,684
943,76	2,329
943,93	2,099
944,10	2,142
944,27	1,728
944,44	2,494
944,61	2,210
944,79	1,914
944,96	2,193
945,13	1,999
945,30	1,874
945,47	1,612
945,64	1,631
945,81	1,426
945,98	2,023
946,15	2,522
946,32	1,832
946,49	2,125
946,66	1,945
946,83	1,704
947,00	2,168
947,17	2,431
947,34	2,107
947,51	1,978
947,68	2,284
947,85	1,870
948,02	3,037
948,19	1,469
948,36	1,769
948,53	1,311
948,70	1,954
948,87	1,824
949,04	1,365
949,21	2,418
949,38	2,654
949,55	2,966
949,72	1,858
949,89	1,954
950,06	1,631
950,23	2,222
950,40	2,689
950,57	1,554
950,74	2,036
950,91	1,867
951,08	1,900
951,25	2,343
951,42	2,610
951,59	2,327
951,76	1,706
951,93	1,913
952,10	2,795
952,27	2,653
952,44	2,136
952,61	1,691
952,77	2,505
952,94	2,947
953,11	2,586
953,28	2,910
953,45	2,183
953,62	1,543
953,79	3,034
953,96	2,077
954,13	2,761
954,30	2,812
954,47	1,292
954,64	2,256
954,81	2,948
954,98	3,203
955,15	1,862
955,32	1,865
955,49	1,771
955,65	2,151
955,82	2,550
955,99	1,832
956,16	3,223
956,33	3,701
956,50	2,241
956,67	2,760
956,84	3,255
957,01	1,963
957,18	1,836
957,35	2,025
957,52	2,476
957,68	2,607
957,85	2,182
958,02	2,856
958,19	1,904
958,36	2,922
958,53	2,632
958,70	3,516
958,87	2,862
959,04	3,183
959,21	2,925
959,37	3,217
959,54	2,971
959,71	4,028
959,88	3,304
960,05	3,004
960,22	3,178
960,39	2,105
960,56	1,782
960,72	2,375
960,89	4,014
961,06	2,522
961,23	3,912
961,40	4,894
961,57	1,801
961,74	3,318
961,90	2,949
962,07	4,087
962,24	3,070
962,41	1,586
962,58	2,922
962,75	3,058
962,92	1,917
963,08	2,568
963,25	3,243
963,42	3,398
963,59	2,161
963,76	2,693
963,93	2,911
964,10	4,137
964,26	4,253
964,43	1,987
964,60	2,363
964,77	2,563
964,94	3,338
965,10	2,662
965,27	1,950
965,44	3,976
965,61	3,346
965,78	3,772
965,95	4,129
966,11	3,532
966,28	3,895
966,45	3,413
966,62	3,503
966,79	3,138
966,95	3,064
967,12	2,660
967,29	1,431
967,46	3,976
967,63	2,998
967,79	3,850
967,96	3,344
968,13	2,960
968,30	3,143
968,47	2,618
968,63	2,401
968,80	4,075
968,97	3,752
969,14	2,673
969,31	3,571
969,47	3,524
969,64	3,891
969,81	3,598
969,98	3,419
970,14	4,349
970,31	3,055
970,48	3,704
970,65	4,436
970,81	3,751
970,98	2,818
971,15	4,580
971,32	3,366
971,48	2,095
971,65	3,400
971,82	5,367
971,99	4,697
972,15	2,600
972,32	2,568
972,49	4,824
972,66	2,363
972,82	2,996
972,99	1,271
973,16	5,014
973,33	4,110
973,49	3,359
973,66	4,480
973,83	5,125
974,00	5,022
974,16	5,734
974,33	4,039
974,50	1,134
974,67	5,128
974,83	3,816
975,00	2,774
975,17	2,497
975,33	4,735
975,50	5,929
975,67	0,535
975,84	4,662
976,00	4,053
976,17	2,826
976,34	4,904
976,50	2,941
976,67	4,559
976,84	3,643
977,00	3,809
977,17	3,825
977,34	5,002
977,50	3,789
977,67	4,179
977,84	3,388
978,01	4,174
978,17	3,720
978,34	4,539
978,51	4,470
978,67	5,225
978,84	1,720
979,01	4,747
979,17	3,275
979,34	3,631
979,51	5,588
979,67	5,157
979,84	2,056
980,01	2,983
980,17	0,951
980,34	5,353
980,51	5,840
980,67	5,318
980,84	5,306
981,01	2,049
981,17	1,393
981,34	4,369
981,50	4,888
981,67	3,315
981,84	2,791
982,00	1,483
982,17	3,055
982,34	4,548
982,50	4,798
982,67	3,341
982,84	2,567
983,00	3,063
983,17	2,608
983,33	3,809
983,50	2,358
983,67	6,908
983,83	3,372
984,00	3,194
984,17	3,825
984,33	3,682
984,50	1,938
984,66	3,927
984,83	3,255
985,00	2,610
985,16	6,499
985,33	6,455
985,49	6,572
985,66	4,612
985,83	2,052
985,99	2,960
986,16	6,334
986,32	5,493
986,49	3,279
986,66	3,282
986,82	3,519
986,99	3,940
987,15	3,608
987,32	4,485
987,49	3,029
987,65	2,189
987,82	3,394
987,98	4,651
988,15	2,642
988,31	5,416
988,48	2,952
988,65	4,984
988,81	4,271
988,98	2,670
989,14	5,341
989,31	7,270
989,47	4,338
989,64	5,741
989,80	3,883
989,97	7,320
990,14	2,784
990,30	4,589
990,47	6,355
990,63	5,759
990,80	4,938
990,96	5,032
991,13	2,660
991,29	2,342
991,46	4,724
991,62	3,421
991,79	4,479
991,95	7,746
992,12	6,021
992,29	6,375
992,45	3,908
992,62	4,428
992,78	2,646
992,95	3,020
993,11	7,459
993,28	3,734
993,44	1,360
993,61	5,394
993,77	1,382
993,94	4,643
994,10	3,580
994,27	6,073
994,43	6,835
994,60	3,595
994,76	4,383
994,93	4,258
995,09	4,408
995,26	5,018
995,42	1,801
995,59	3,972
995,75	6,530
995,92	3,359
996,08	6,074
996,25	5,165
996,41	2,964
996,58	4,548
996,74	4,863
996,91	6,275
997,07	3,851
997,23	5,097
997,40	4,576
997,56	4,956
997,73	2,999
997,89	2,816
998,06	5,060
998,22	3,725
998,39	3,115
998,55	5,181
998,72	4,205
998,88	6,757
999,05	4,912
999,21	3,893
999,37	6,094
999,54	6,033
999,70	5,523
999,87	4,329
1000,03	3,051
1000,20	3,681
1000,36	2,705
1000,52	6,551
1000,69	6,980
1000,85	5,152
1001,02	4,828
1001,18	5,866
1001,35	2,541
1001,51	4,709
1001,67	4,003
1001,84	6,754
1002,00	1,040
1002,17	6,596
1002,33	6,049
1002,50	6,063
1002,66	4,222
1002,82	2,017
1002,99	3,783
1003,15	3,280
1003,32	4,969
1003,48	1,050
1003,64	2,907
1003,81	8,221
1003,97	3,516
1004,14	7,266
1004,30	1,148
1004,46	2,443
1004,63	3,652
1004,79	3,465
1004,95	4,381
1005,12	5,844
1005,28	6,068
1005,45	6,327
1005,61	4,359
1005,77	4,729
1005,94	6,148
1006,10	6,117
1006,26	4,322
1006,43	3,932
1006,59	3,012
1006,76	0,751
1006,92	10,759
1007,08	8,724
1007,25	2,080
1007,41	2,394
1007,57	4,483
1007,74	5,144
1007,90	3,116
1008,06	7,354
1008,23	4,363
1008,39	2,111
1008,55	6,516
1008,72	7,098
1008,88	-0,090
1009,04	3,794
1009,21	0,993
1009,37	4,645
1009,53	2,575
1009,70	2,030
1009,86	3,908
1010,02	3,183
1010,19	1,842
1010,35	6,396
1010,51	5,735
1010,68	5,014
1010,84	6,440
1011,00	6,293
1011,17	2,995
1011,33	2,708
1011,49	5,924
1011,66	8,741
1011,82	1,763
1011,98	0,090
1012,14	5,057
1012,31	4,116
1012,47	5,210
1012,63	3,839
1012,80	4,991
1012,96	3,274
1013,12	3,617
1013,29	1,970
1013,45	8,602
1013,61	6,417
1013,77	2,832
1013,94	4,527
1014,10	3,272
1014,26	2,473
1014,43	4,179
1014,59	3,402
1014,75	2,781
1014,91	7,629
1015,08	5,237
1015,24	6,301
1015,40	3,046
1015,56	6,321
1015,73	4,444
1015,89	5,603
1016,05	1,634
1016,21	3,383
1016,38	2,472
1016,54	6,452
1016,70	0,834
1016,86	5,235
1017,03	2,283
1017,19	4,505
1017,35	0,636
1017,51	6,828
1017,68	5,681
1017,84	2,570
1018,00	0,990
1018,16	4,195
1018,33	7,004
1018,49	1,589
1018,65	3,282
1018,81	3,664
1018,97	4,205
1019,14	2,578
1019,30	1,665
1019,46	4,442
1019,62	0,773
1019,79	3,356
1019,95	3,257
1020,11	3,673
1020,27	3,152
1020,43	5,903
1020,60	7,176
1020,76	6,234
1020,92	5,426
1021,08	5,861
1021,24	4,263
1021,41	5,378
1021,57	6,851
1021,73	5,148
1021,89	-2,008
1022,05	12,048
1022,21	1,639
1022,38	3,636
1022,54	5,926
1022,70	1,832
1022,86	4,005
1023,02	8,538
1023,19	5,570
1023,35	-2,452
1023,51	9,926
1023,67	2,231
1023,83	10,626
1023,99	10,797
1024,16	2,789
1024,32	1,762
1024,48	4,348
1024,64	4,119
1024,80	8,276
1024,96	-0,659
1025,12	10,759
1025,29	7,214
1025,45	5,298
1025,61	11,391
1025,77	1,159
1025,93	9,140
1026,09	3,830
1026,26	0,585
1026,42	-2,235
1026,58	1,852
1026,74	4,520
1026,90	3,490
1027,06	4,227
1027,22	-1,997
1027,38	6,980
1027,55	4,685
1027,71	2,296
1027,87	5,439
1028,03	6,340
1028,19	-3,372
1028,35	-2,812
1028,51	4,519
1028,67	1,355
1028,83	6,902
1029,00	4,539
1029,16	4,478
1029,32	4,328
1029,48	6,509
1029,64	4,354
1029,80	2,525
1029,96	0,809
1030,12	5,486
1030,28	-1,849
1030,44	9,130
1030,61	5,538
1030,77	2,922
1030,93	7,391
1031,09	5,672
1031,25	-2,185
1031,41	-0,312
1031,57	2,262
1031,73	2,114
1031,89	-2,815
1032,05	8,612
1032,21	-1,167
1032,37	-1,654
1032,53	10,863
1032,69	7,069
1032,86	-0,693
1033,02	9,275
1033,18	1,370
1033,34	5,429
1033,50	9,015
1033,66	-0,906
1033,82	5,470
1033,98	-4,685
1034,14	-1,051
1034,30	4,836
1034,46	8,587
1034,62	0,952
1034,78	6,014
1034,94	8,527
1035,10	7,934
1035,26	9,481
1035,42	2,834
1035,58	-1,128
1035,74	3,200
1035,90	2,524
1036,06	1,237
1036,22	9,107
1036,38	10,019
1036,54	-4,970
1036,70	-4,409
1036,86	5,172
1037,02	7,619
1037,18	9,057
1037,34	5,229
1037,50	3,099
1037,66	19,724
1037,82	-6,582
1037,98	-3,985
1038,14	7,676
1038,30	1,179
1038,46	11,663
1038,62	-6,092
1038,78	5,714
1038,94	1,480
1039,10	6,420
1039,26	0,000
1039,42	22,445
1039,58	1,109
1039,74	1,152
1039,90	10,081
1040,06	7,447
>>>>>End Processed Spectral Data<<<<<
