SpectraSuite Data File
++++++++++++++++++++++++++++++++++++
Date: Thu Feb 02 18:42:29 EET 2017
User: optolab
Dark Spectrum Present: Yes
Reference Spectrum Present: Yes
Number of Sampled Component Spectra: 1
Spectrometers: USB4C02475
Integration Time (usec): 151411 (USB4C02475)
Spectra Averaged: 1 (USB4C02475)
Boxcar Smoothing: 0 (USB4C02475)
Correct for Electrical Dark: No (USB4C02475)
Strobe/Lamp Enabled: No (USB4C02475)
Correct for Detector Non-linearity: No (USB4C02475)
Correct for Stray Light: No (USB4C02475)
Number of Pixels in Processed Spectrum: 3648
>>>>>Begin Processed Spectral Data<<<<<
344,91	137,037
345,13	137,037
345,35	137,037
345,57	-160,000
345,79	-69,231
346,00	-48,000
346,22	-24,324
346,44	-23,077
346,66	400,000
346,87	180,000
347,09	-500,000
347,31	-2600,000
347,53	87,179
347,74	137,500
347,96	-11,111
348,18	87,805
348,40	-6,667
348,61	-1,961
348,83	19,444
349,05	12,727
349,27	77,941
349,48	119,608
349,70	-1,818
349,92	-43,902
350,14	750,000
350,35	-23,077
350,57	52,941
350,79	85,106
351,01	51,613
351,22	700,000
351,44	60,000
351,66	-4,878
351,87	0,000
352,09	113,462
352,31	-26,087
352,53	54,839
352,74	-15,625
352,96	8,163
353,18	104,545
353,40	60,714
353,61	58,333
353,83	140,000
354,05	44,828
354,26	-38,636
354,48	50,000
354,70	3,750
354,92	33,333
355,13	75,510
355,35	-1550,000
355,57	29,870
355,78	90,000
356,00	20,930
356,22	25,373
356,44	0,000
356,65	-7,692
356,87	24,691
357,09	-44,928
357,30	78,378
357,52	-114,286
357,74	52,308
357,95	16,667
358,17	-63,889
358,39	700,000
358,60	44,211
358,82	-5,556
359,04	-77,778
359,26	24,444
359,47	-18,966
359,69	425,000
359,91	-15,625
360,12	-65,079
360,34	142,105
360,56	48,421
360,77	81,481
360,99	-25,000
361,21	33,333
361,42	2,500
361,64	16,667
361,86	73,626
362,07	48,515
362,29	-192,857
362,51	77,778
362,72	-5,000
362,94	-52,500
363,16	14,493
363,37	93,750
363,59	7,692
363,81	-3,390
364,02	-66,667
364,24	44,615
364,46	-60,000
364,67	55,556
364,89	17,568
365,11	200,000
365,32	3,509
365,54	-200,000
365,76	-11,250
365,97	48,571
366,19	-19,298
366,41	101,538
366,62	51,429
366,84	93,333
367,05	69,444
367,27	50,000
367,49	-1,515
367,70	25,000
367,92	60,759
368,14	43,011
368,35	29,630
368,57	18,889
368,79	8,108
369,00	46,429
369,22	53,125
369,43	27,551
369,65	-21,429
369,87	40,741
370,08	37,681
370,30	17,647
370,51	25,954
370,73	-1,587
370,95	-1,031
371,16	-7,576
371,38	13,699
371,60	3,488
371,81	50,526
372,03	18,182
372,24	86,842
372,46	-3,333
372,68	30,380
372,89	23,684
373,11	-72,222
373,32	58,730
373,54	-32,813
373,76	40,336
373,97	-9,756
374,19	97,778
374,40	51,304
374,62	21,591
374,84	-8,738
375,05	37,895
375,27	0,000
375,48	7,792
375,70	12,838
375,92	29,348
376,13	32,381
376,35	-4,878
376,56	17,949
376,78	30,000
376,99	1,299
377,21	39,683
377,43	-9,375
377,64	27,119
377,86	39,785
378,07	31,053
378,29	7,273
378,51	4,687
378,72	-7,407
378,94	24,476
379,15	26,761
379,37	36,496
379,58	24,786
379,80	27,624
380,01	2,000
380,23	6,716
380,45	-34,000
380,66	26,389
380,88	6,471
381,09	-63,636
381,31	11,176
381,52	4,054
381,74	23,270
381,95	-14,474
382,17	10,112
382,39	16,265
382,60	14,388
382,82	34,752
383,03	-14,167
383,25	7,801
383,46	-11,304
383,68	10,759
383,89	35,165
384,11	-7,143
384,32	16,429
384,54	-14,286
384,76	5,780
384,97	6,250
385,19	23,200
385,40	18,452
385,62	21,809
385,83	26,452
386,05	-6,294
386,26	28,571
386,48	-5,195
386,69	26,400
386,91	3,784
387,12	4,255
387,34	10,497
387,55	-13,725
387,77	11,230
387,98	20,833
388,20	4,762
388,41	20,080
388,63	29,524
388,84	6,711
389,06	10,383
389,27	35,484
389,49	8,252
389,70	10,106
389,92	17,734
390,13	-0,676
390,35	13,839
390,56	16,803
390,78	0,837
390,99	-5,699
391,21	28,431
391,42	10,121
391,64	15,094
391,85	7,179
392,07	4,945
392,28	25,794
392,50	12,308
392,71	5,528
392,93	-16,598
393,14	-19,126
393,36	12,613
393,57	19,742
393,79	-4,110
394,00	-22,941
394,22	-7,538
394,43	1,762
394,65	29,461
394,86	3,802
395,08	-24,277
395,29	-7,111
395,50	4,825
395,72	-1,277
395,93	15,702
396,15	26,182
396,36	11,881
396,58	1,345
396,79	23,973
397,01	8,861
397,22	10,487
397,44	3,797
397,65	3,887
397,87	17,375
398,08	14,887
398,29	14,815
398,51	7,965
398,72	8,824
398,94	-0,345
399,15	21,875
399,37	5,137
399,58	21,176
399,80	31,609
400,01	15,805
400,22	6,689
400,44	-8,787
400,65	5,667
400,87	14,379
401,08	12,121
401,30	-5,119
401,51	21,629
401,72	12,132
401,94	11,189
402,15	13,235
402,37	16,209
402,58	-5,686
402,80	16,076
403,01	6,053
403,22	6,534
403,44	14,966
403,65	-4,895
403,87	5,846
404,08	6,908
404,30	0,000
404,51	12,394
404,72	6,728
404,94	9,284
405,15	3,741
405,37	11,080
405,58	13,235
405,79	26,596
406,01	4,735
406,22	8,629
406,44	5,249
406,65	9,927
406,86	10,000
407,08	4,457
407,29	5,866
407,51	11,316
407,72	4,775
407,93	13,984
408,15	11,695
408,36	13,902
408,58	5,069
408,79	14,545
409,00	7,281
409,22	9,583
409,43	6,250
409,64	15,743
409,86	12,065
410,07	8,952
410,29	3,111
410,50	6,531
410,71	6,648
410,93	7,727
411,14	7,375
411,35	13,115
411,57	-3,881
411,78	8,869
412,00	8,855
412,21	3,650
412,42	1,628
412,64	4,497
412,85	-0,225
413,06	3,597
413,28	8,768
413,49	0,637
413,70	13,793
413,92	9,636
414,13	2,444
414,34	2,020
414,56	11,538
414,77	6,576
414,98	23,364
415,20	1,556
415,41	14,286
415,63	-0,193
415,84	5,596
416,05	8,911
416,27	14,599
416,48	3,867
416,69	6,981
416,91	-1,188
417,12	3,048
417,33	1,124
417,55	5,009
417,76	13,357
417,97	5,026
418,19	0,749
418,40	3,993
418,61	7,197
418,83	5,243
419,04	8,084
419,25	8,413
419,46	4,082
419,68	6,774
419,89	6,890
420,10	13,467
420,32	5,873
420,53	2,606
420,74	8,725
420,96	3,869
421,17	6,498
421,38	10,423
421,60	4,859
421,81	3,182
422,02	0,982
422,23	5,710
422,45	3,595
422,66	0,000
422,87	11,053
423,09	6,583
423,30	4,050
423,51	-2,484
423,73	6,466
423,94	3,306
424,15	7,444
424,36	2,545
424,58	4,079
424,79	8,598
425,00	-1,231
425,22	0,886
425,43	2,949
425,64	0,725
425,85	13,289
426,07	1,090
426,28	2,902
426,49	11,358
426,71	5,867
426,92	2,680
427,13	0,253
427,34	7,640
427,56	9,353
427,77	7,105
427,98	3,659
428,19	5,035
428,41	6,900
428,62	4,042
428,83	8,023
429,04	5,440
429,26	4,883
429,47	8,207
429,68	1,910
429,89	0,904
430,11	8,782
430,32	4,757
430,53	3,356
430,74	1,638
430,96	6,516
431,17	5,472
431,38	6,865
431,59	5,764
431,81	3,470
432,02	6,522
432,23	5,521
432,44	2,484
432,66	4,719
432,87	4,181
433,08	6,635
433,29	3,820
433,51	3,500
433,72	3,883
433,93	2,817
434,14	6,621
434,35	2,885
434,57	3,642
434,78	2,261
434,99	6,214
435,20	5,741
435,42	2,630
435,63	5,052
435,84	4,822
436,05	2,613
436,26	4,984
436,48	5,463
436,69	3,340
436,90	4,503
437,11	2,854
437,32	2,714
437,54	1,012
437,75	5,162
437,96	1,910
438,17	2,974
438,38	2,049
438,60	0,440
438,81	3,304
439,02	5,662
439,23	4,574
439,44	2,383
439,66	4,209
439,87	0,648
440,08	3,141
440,29	4,434
440,50	2,787
440,72	2,192
440,93	1,946
441,14	1,505
441,35	2,125
441,56	3,331
441,77	2,474
441,99	4,186
442,20	3,296
442,41	4,265
442,62	2,575
442,83	3,646
443,04	1,969
443,26	2,499
443,47	1,246
443,68	2,579
443,89	3,401
444,10	1,828
444,31	3,276
444,53	2,934
444,74	2,361
444,95	0,856
445,16	1,576
445,37	1,931
445,58	2,406
445,80	3,317
446,01	3,294
446,22	1,708
446,43	0,321
446,64	1,855
446,85	2,120
447,06	2,130
447,28	1,677
447,49	2,002
447,70	1,380
447,91	1,808
448,12	2,074
448,33	2,833
448,54	1,476
448,76	1,603
448,97	1,784
449,18	2,529
449,39	1,757
449,60	1,396
449,81	2,301
450,02	2,121
450,23	2,051
450,45	0,735
450,66	0,802
450,87	1,569
451,08	1,795
451,29	0,935
451,50	0,691
451,71	1,270
451,92	1,108
452,13	1,065
452,35	1,812
452,56	1,417
452,77	0,994
452,98	1,975
453,19	0,964
453,40	1,239
453,61	1,469
453,82	1,217
454,03	1,354
454,25	1,360
454,46	0,813
454,67	1,194
454,88	0,775
455,09	0,683
455,30	1,357
455,51	0,754
455,72	0,629
455,93	1,158
456,14	1,209
456,35	0,730
456,56	1,127
456,78	1,505
456,99	1,121
457,20	0,659
457,41	0,791
457,62	1,022
457,83	1,006
458,04	0,771
458,25	0,998
458,46	0,450
458,67	0,807
458,88	0,408
459,09	0,562
459,30	0,878
459,51	0,788
459,73	0,635
459,94	0,636
460,15	0,731
460,36	0,905
460,57	0,520
460,78	0,849
460,99	0,803
461,20	0,738
461,41	0,632
461,62	0,598
461,83	0,855
462,04	0,662
462,25	0,871
462,46	0,655
462,67	0,669
462,88	0,762
463,09	0,638
463,30	0,938
463,51	0,768
463,72	0,811
463,93	0,783
464,15	0,536
464,36	0,950
464,57	0,656
464,78	0,560
464,99	0,689
465,20	0,567
465,41	0,651
465,62	0,707
465,83	0,619
466,04	0,474
466,25	0,661
466,46	0,788
466,67	0,650
466,88	0,703
467,09	0,522
467,30	0,521
467,51	0,354
467,72	0,630
467,93	0,816
468,14	0,615
468,35	0,697
468,56	0,380
468,77	0,707
468,98	0,653
469,19	0,568
469,40	0,574
469,61	0,668
469,82	0,726
470,03	0,584
470,24	0,613
470,45	0,806
470,66	0,585
470,87	0,766
471,08	0,736
471,29	0,654
471,50	0,763
471,71	0,746
471,92	0,698
472,13	0,708
472,34	0,747
472,55	0,757
472,76	0,549
472,97	0,731
473,18	0,755
473,39	0,907
473,60	0,970
473,81	0,844
474,01	0,681
474,22	0,660
474,43	1,026
474,64	0,936
474,85	1,062
475,06	0,745
475,27	0,880
475,48	1,030
475,69	0,850
475,90	0,928
476,11	0,816
476,32	1,014
476,53	1,048
476,74	1,173
476,95	1,072
477,16	1,174
477,37	1,054
477,58	1,181
477,79	1,095
478,00	0,914
478,21	1,292
478,41	1,029
478,62	0,839
478,83	1,285
479,04	1,196
479,25	1,263
479,46	1,112
479,67	1,308
479,88	1,067
480,09	1,124
480,30	1,491
480,51	1,499
480,72	1,401
480,93	1,209
481,14	1,354
481,34	1,114
481,55	1,218
481,76	1,071
481,97	1,504
482,18	1,307
482,39	1,263
482,60	1,254
482,81	1,236
483,02	1,084
483,23	1,431
483,44	1,365
483,65	1,340
483,85	1,469
484,06	1,489
484,27	1,271
484,48	1,209
484,69	1,331
484,90	1,606
485,11	1,128
485,32	1,338
485,53	1,596
485,73	1,588
485,94	1,393
486,15	1,227
486,36	1,324
486,57	1,506
486,78	1,566
486,99	1,359
487,20	1,679
487,41	1,468
487,61	1,291
487,82	1,417
488,03	1,350
488,24	1,356
488,45	1,426
488,66	1,436
488,87	1,468
489,08	1,217
489,28	1,588
489,49	1,229
489,70	1,618
489,91	1,452
490,12	1,717
490,33	1,413
490,54	1,313
490,74	1,644
490,95	1,609
491,16	1,611
491,37	1,578
491,58	1,806
491,79	1,630
492,00	1,483
492,20	1,659
492,41	1,448
492,62	1,525
492,83	1,558
493,04	1,848
493,25	1,855
493,45	1,643
493,66	1,825
493,87	1,427
494,08	1,683
494,29	1,570
494,50	1,608
494,70	1,643
494,91	1,587
495,12	1,641
495,33	1,587
495,54	1,794
495,75	1,810
495,95	1,755
496,16	1,626
496,37	1,932
496,58	1,748
496,79	1,812
496,99	1,717
497,20	1,861
497,41	1,803
497,62	1,619
497,83	1,532
498,04	1,708
498,24	1,898
498,45	1,815
498,66	2,044
498,87	1,624
499,08	1,923
499,28	1,774
499,49	1,705
499,70	1,755
499,91	2,021
500,12	1,649
500,32	1,690
500,53	1,811
500,74	2,016
500,95	1,802
501,15	2,082
501,36	2,038
501,57	1,533
501,78	1,934
501,99	1,900
502,19	1,754
502,40	1,779
502,61	1,976
502,82	2,171
503,02	2,037
503,23	1,948
503,44	1,755
503,65	2,133
503,86	2,023
504,06	1,710
504,27	1,905
504,48	1,819
504,69	2,000
504,89	1,798
505,10	2,165
505,31	1,758
505,52	1,984
505,72	2,186
505,93	2,278
506,14	2,095
506,35	2,020
506,55	1,932
506,76	2,103
506,97	2,090
507,18	2,144
507,38	1,991
507,59	2,034
507,80	2,412
508,01	2,081
508,21	2,240
508,42	2,083
508,63	2,094
508,84	1,958
509,04	2,109
509,25	2,226
509,46	2,377
509,67	2,172
509,87	2,042
510,08	2,084
510,29	2,328
510,49	1,943
510,70	2,128
510,91	2,275
511,12	2,100
511,32	2,290
511,53	2,219
511,74	2,197
511,94	2,252
512,15	2,191
512,36	2,185
512,57	2,237
512,77	2,192
512,98	1,933
513,19	2,196
513,39	2,429
513,60	2,294
513,81	2,369
514,01	2,065
514,22	2,245
514,43	2,288
514,64	2,119
514,84	2,386
515,05	2,173
515,26	2,143
515,46	2,332
515,67	2,287
515,88	2,454
516,08	2,462
516,29	2,451
516,50	2,288
516,70	2,294
516,91	2,449
517,12	2,339
517,32	2,266
517,53	2,686
517,74	2,837
517,95	2,653
518,15	2,695
518,36	2,381
518,57	2,492
518,77	2,578
518,98	2,729
519,19	2,685
519,39	2,453
519,60	2,580
519,80	2,480
520,01	2,894
520,22	2,723
520,42	2,634
520,63	2,582
520,84	2,636
521,04	2,846
521,25	2,908
521,46	2,521
521,66	2,475
521,87	2,348
522,08	2,691
522,28	2,804
522,49	2,760
522,70	2,631
522,90	2,614
523,11	2,658
523,31	2,588
523,52	2,971
523,73	2,823
523,93	2,898
524,14	2,721
524,35	2,802
524,55	3,106
524,76	2,868
524,97	2,972
525,17	2,891
525,38	3,114
525,58	2,972
525,79	3,125
526,00	3,305
526,20	3,147
526,41	2,971
526,61	3,058
526,82	3,445
527,03	3,057
527,23	3,213
527,44	3,334
527,64	3,165
527,85	3,326
528,06	3,192
528,26	3,125
528,47	3,188
528,68	2,929
528,88	3,048
529,09	3,477
529,29	3,468
529,50	3,149
529,70	3,172
529,91	3,424
530,12	3,195
530,32	3,375
530,53	3,299
530,73	3,221
530,94	3,281
531,15	3,513
531,35	3,447
531,56	3,585
531,76	3,382
531,97	3,481
532,17	3,669
532,38	3,509
532,59	3,368
532,79	3,536
533,00	3,521
533,20	3,575
533,41	3,416
533,61	3,619
533,82	3,405
534,03	3,571
534,23	3,501
534,44	3,753
534,64	3,595
534,85	3,900
535,05	3,555
535,26	3,745
535,46	3,857
535,67	3,798
535,88	3,802
536,08	4,216
536,29	3,972
536,49	3,854
536,70	4,045
536,90	4,080
537,11	4,050
537,31	3,937
537,52	3,986
537,72	4,289
537,93	3,963
538,13	3,911
538,34	3,951
538,55	3,957
538,75	3,830
538,96	3,985
539,16	4,078
539,37	4,011
539,57	3,864
539,78	3,540
539,98	3,786
540,19	3,566
540,39	4,113
540,60	4,329
540,80	3,892
541,01	4,233
541,21	4,083
541,42	4,396
541,62	4,198
541,83	3,995
542,03	4,239
542,24	4,251
542,44	4,468
542,65	4,214
542,85	4,207
543,06	3,934
543,26	4,635
543,47	4,424
543,67	4,432
543,88	4,454
544,08	4,345
544,29	4,256
544,49	4,473
544,70	4,514
544,90	4,237
545,11	4,215
545,31	4,852
545,52	4,263
545,72	4,466
545,93	4,291
546,13	4,532
546,34	4,297
546,54	4,526
546,75	4,487
546,95	4,336
547,15	4,259
547,36	4,568
547,56	4,449
547,77	4,326
547,97	4,548
548,18	4,428
548,38	4,595
548,59	4,838
548,79	4,671
549,00	4,610
549,20	4,719
549,41	4,514
549,61	5,061
549,81	4,565
550,02	4,550
550,22	4,891
550,43	4,867
550,63	4,344
550,84	4,939
551,04	4,448
551,25	4,803
551,45	4,756
551,65	4,943
551,86	4,380
552,06	4,843
552,27	5,056
552,47	5,301
552,68	4,608
552,88	5,049
553,08	4,871
553,29	4,719
553,49	4,647
553,70	4,743
553,90	4,742
554,11	5,083
554,31	5,118
554,51	5,018
554,72	4,964
554,92	5,143
555,13	4,937
555,33	4,786
555,53	5,076
555,74	5,234
555,94	5,052
556,15	5,061
556,35	5,361
556,56	4,928
556,76	5,170
556,96	5,163
557,17	5,159
557,37	5,005
557,58	5,572
557,78	4,859
557,98	4,667
558,19	5,074
558,39	5,150
558,59	5,070
558,80	5,036
559,00	5,320
559,21	4,957
559,41	5,001
559,61	5,000
559,82	4,893
560,02	4,869
560,23	5,298
560,43	5,072
560,63	5,116
560,84	5,248
561,04	5,122
561,24	4,987
561,45	5,031
561,65	5,131
561,85	5,329
562,06	5,233
562,26	5,124
562,47	5,197
562,67	5,395
562,87	5,186
563,08	5,455
563,28	5,138
563,48	5,242
563,69	5,284
563,89	5,342
564,09	5,384
564,30	5,223
564,50	5,319
564,70	5,531
564,91	5,220
565,11	5,182
565,31	5,171
565,52	5,282
565,72	5,415
565,92	5,100
566,13	5,345
566,33	5,141
566,53	5,354
566,74	5,068
566,94	5,191
567,14	4,946
567,35	5,247
567,55	5,212
567,75	5,140
567,96	5,486
568,16	5,412
568,36	5,351
568,57	5,560
568,77	5,393
568,97	5,329
569,18	5,378
569,38	5,989
569,58	5,268
569,79	5,670
569,99	5,604
570,19	5,347
570,39	5,650
570,60	5,715
570,80	5,390
571,00	5,025
571,21	5,516
571,41	5,364
571,61	5,447
571,82	5,383
572,02	5,389
572,22	5,141
572,42	5,333
572,63	5,398
572,83	5,382
573,03	4,981
573,24	5,294
573,44	5,309
573,64	5,388
573,84	5,256
574,05	5,083
574,25	5,410
574,45	5,267
574,66	5,114
574,86	5,725
575,06	5,316
575,26	5,655
575,47	5,256
575,67	5,355
575,87	5,627
576,07	5,278
576,28	5,474
576,48	5,407
576,68	5,588
576,88	5,420
577,09	5,304
577,29	5,287
577,49	5,561
577,69	5,394
577,90	5,128
578,10	5,450
578,30	5,060
578,50	5,175
578,71	5,289
578,91	5,253
579,11	5,335
579,31	5,190
579,52	5,067
579,72	5,386
579,92	5,329
580,12	5,429
580,33	4,908
580,53	5,437
580,73	5,119
580,93	5,542
581,13	5,473
581,34	5,272
581,54	4,877
581,74	5,349
581,94	5,597
582,15	5,268
582,35	5,550
582,55	5,067
582,75	4,977
582,95	4,976
583,16	5,254
583,36	5,288
583,56	5,045
583,76	5,227
583,96	5,596
584,17	5,213
584,37	5,096
584,57	5,315
584,77	5,050
584,97	5,023
585,18	5,091
585,38	5,067
585,58	5,175
585,78	4,853
585,98	5,136
586,19	5,085
586,39	5,266
586,59	5,262
586,79	4,933
586,99	5,148
587,20	5,374
587,40	5,181
587,60	4,929
587,80	5,028
588,00	4,938
588,20	5,185
588,41	5,302
588,61	5,156
588,81	4,835
589,01	5,225
589,21	5,421
589,41	5,229
589,62	5,690
589,82	5,623
590,02	5,348
590,22	5,401
590,42	5,460
590,62	5,618
590,83	5,649
591,03	5,739
591,23	5,696
591,43	5,887
591,63	5,848
591,83	5,873
592,03	5,839
592,24	6,010
592,44	6,123
592,64	6,400
592,84	6,289
593,04	6,485
593,24	6,493
593,44	6,214
593,65	6,569
593,85	6,346
594,05	6,806
594,25	7,005
594,45	6,889
594,65	7,039
594,85	7,234
595,06	7,612
595,26	7,332
595,46	7,746
595,66	7,843
595,86	7,759
596,06	8,223
596,26	8,182
596,46	8,102
596,66	8,012
596,87	8,501
597,07	8,990
597,27	8,735
597,47	8,985
597,67	9,312
597,87	9,188
598,07	9,934
598,27	10,558
598,47	10,152
598,67	10,795
598,88	10,685
599,08	11,502
599,28	11,852
599,48	12,398
599,68	12,822
599,88	13,391
600,08	14,126
600,28	14,034
600,48	14,312
600,68	15,102
600,88	15,732
601,09	16,035
601,29	16,809
601,49	17,248
601,69	18,230
601,89	19,558
602,09	20,210
602,29	20,690
602,49	21,531
602,69	22,409
602,89	23,079
603,09	23,859
603,29	24,597
603,49	25,301
603,69	26,103
603,90	27,099
604,10	27,011
604,30	28,398
604,50	29,069
604,70	29,937
604,90	30,019
605,10	29,961
605,30	30,567
605,50	30,290
605,70	31,703
605,90	31,276
606,10	31,316
606,30	31,245
606,50	31,553
606,70	31,692
606,90	31,294
607,10	31,493
607,30	31,581
607,50	31,632
607,70	31,384
607,90	31,715
608,10	31,134
608,30	31,380
608,50	30,826
608,70	31,285
608,90	31,244
609,11	30,768
609,31	30,959
609,51	30,766
609,71	30,598
609,91	30,880
610,11	29,598
610,31	30,393
610,51	29,792
610,71	29,527
610,91	29,509
611,11	29,802
611,31	29,325
611,51	29,243
611,71	29,011
611,91	28,052
612,11	28,734
612,31	27,821
612,51	28,234
612,71	27,667
612,91	27,318
613,11	26,761
613,31	26,649
613,51	26,304
613,71	25,740
613,91	25,336
614,11	25,267
614,31	24,076
614,50	23,991
614,70	23,494
614,90	22,886
615,10	22,992
615,30	21,827
615,50	21,857
615,70	21,084
615,90	20,231
616,10	19,797
616,30	19,325
616,50	19,076
616,70	18,158
616,90	17,703
617,10	17,886
617,30	17,106
617,50	16,997
617,70	17,145
617,90	16,837
618,10	16,821
618,30	17,132
618,50	16,840
618,70	17,477
618,90	17,752
619,10	18,360
619,30	19,681
619,49	20,491
619,69	21,387
619,89	22,163
620,09	23,415
620,29	24,510
620,49	25,715
620,69	26,563
620,89	27,445
621,09	27,366
621,29	28,647
621,49	29,704
621,69	30,523
621,89	30,596
622,09	31,084
622,29	31,759
622,48	31,725
622,68	31,856
622,88	32,628
623,08	32,241
623,28	32,730
623,48	32,791
623,68	32,509
623,88	31,639
624,08	31,665
624,28	31,702
624,48	31,258
624,67	30,866
624,87	30,820
625,07	29,881
625,27	30,456
625,47	29,569
625,67	29,322
625,87	28,375
626,07	28,061
626,27	28,071
626,47	27,775
626,66	27,221
626,86	26,798
627,06	26,210
627,26	25,381
627,46	24,494
627,66	24,362
627,86	23,700
628,06	23,194
628,25	22,104
628,45	21,061
628,65	20,337
628,85	19,228
629,05	17,795
629,25	17,464
629,45	15,867
629,65	14,917
629,84	14,254
630,04	13,570
630,24	12,492
630,44	11,996
630,64	11,509
630,84	10,831
631,04	10,225
631,23	9,270
631,43	8,695
631,63	8,247
631,83	7,364
632,03	7,423
632,23	7,133
632,42	6,832
632,62	6,789
632,82	6,879
633,02	6,855
633,22	6,476
633,42	6,641
633,62	6,534
633,81	6,426
634,01	6,253
634,21	6,156
634,41	6,357
634,61	6,242
634,80	5,963
635,00	5,908
635,20	6,156
635,40	6,105
635,60	6,134
635,80	6,012
635,99	5,735
636,19	5,509
636,39	5,707
636,59	5,542
636,79	5,715
636,98	5,753
637,18	5,546
637,38	5,533
637,58	5,329
637,78	5,564
637,97	5,193
638,17	5,286
638,37	5,514
638,57	5,209
638,77	5,267
638,96	5,383
639,16	5,601
639,36	5,599
639,56	5,252
639,76	5,192
639,95	5,381
640,15	5,353
640,35	5,349
640,55	5,324
640,75	5,377
640,94	5,322
641,14	5,330
641,34	5,275
641,54	5,226
641,73	5,179
641,93	5,183
642,13	5,486
642,33	5,236
642,53	5,133
642,72	5,174
642,92	5,129
643,12	5,045
643,32	5,151
643,51	4,704
643,71	5,216
643,91	4,902
644,11	4,962
644,30	5,190
644,50	5,434
644,70	5,215
644,90	5,201
645,09	5,092
645,29	5,502
645,49	5,176
645,69	5,282
645,88	5,245
646,08	4,875
646,28	5,067
646,48	5,255
646,67	5,292
646,87	5,328
647,07	4,900
647,26	5,408
647,46	5,054
647,66	4,952
647,86	4,898
648,05	5,138
648,25	5,179
648,45	5,693
648,65	5,337
648,84	5,460
649,04	5,568
649,24	5,350
649,43	5,157
649,63	5,477
649,83	5,370
650,03	5,072
650,22	5,229
650,42	5,352
650,62	5,078
650,81	5,252
651,01	5,033
651,21	5,231
651,40	4,985
651,60	5,396
651,80	5,003
652,00	5,203
652,19	5,202
652,39	5,326
652,59	4,907
652,78	5,220
652,98	5,209
653,18	5,146
653,37	5,142
653,57	5,308
653,77	5,317
653,96	5,186
654,16	5,291
654,36	5,183
654,55	4,837
654,75	5,376
654,95	4,932
655,14	4,876
655,34	5,163
655,54	5,315
655,73	5,372
655,93	5,716
656,13	4,761
656,32	4,976
656,52	5,255
656,72	5,298
656,91	5,446
657,11	4,988
657,31	5,440
657,50	5,307
657,70	5,005
657,90	5,070
658,09	5,018
658,29	5,421
658,49	4,928
658,68	5,188
658,88	5,065
659,07	5,055
659,27	5,209
659,47	5,411
659,66	4,759
659,86	5,188
660,06	5,302
660,25	5,120
660,45	5,187
660,64	5,306
660,84	5,331
661,04	5,379
661,23	5,301
661,43	4,888
661,63	4,789
661,82	5,121
662,02	5,207
662,21	5,085
662,41	5,042
662,61	5,528
662,80	5,304
663,00	5,064
663,19	5,363
663,39	5,017
663,59	5,176
663,78	5,342
663,98	5,306
664,17	5,086
664,37	5,098
664,57	5,280
664,76	5,297
664,96	5,311
665,15	5,277
665,35	5,058
665,55	5,255
665,74	5,230
665,94	5,065
666,13	5,258
666,33	5,241
666,53	5,228
666,72	5,677
666,92	5,496
667,11	5,449
667,31	5,412
667,50	5,532
667,70	5,452
667,90	5,045
668,09	5,419
668,29	5,140
668,48	5,196
668,68	5,243
668,87	5,109
669,07	4,853
669,26	5,102
669,46	5,244
669,66	5,160
669,85	5,195
670,05	5,279
670,24	4,904
670,44	4,921
670,63	5,217
670,83	5,328
671,02	5,043
671,22	5,244
671,42	5,125
671,61	5,382
671,81	5,188
672,00	5,135
672,20	5,562
672,39	5,041
672,59	5,272
672,78	5,079
672,98	5,433
673,17	5,144
673,37	5,079
673,56	5,333
673,76	4,765
673,95	5,344
674,15	5,205
674,34	5,266
674,54	5,141
674,73	4,860
674,93	5,243
675,13	5,037
675,32	5,205
675,52	4,942
675,71	5,164
675,91	5,210
676,10	5,191
676,30	5,376
676,49	5,215
676,69	5,160
676,88	5,472
677,08	5,134
677,27	5,070
677,47	5,479
677,66	5,486
677,86	5,330
678,05	5,319
678,24	5,011
678,44	5,136
678,63	5,386
678,83	5,395
679,02	5,123
679,22	5,351
679,41	5,449
679,61	5,367
679,80	5,392
680,00	4,938
680,19	5,333
680,39	5,386
680,58	5,142
680,78	5,484
680,97	5,240
681,17	5,498
681,36	5,557
681,56	5,328
681,75	5,338
681,94	5,342
682,14	5,021
682,33	5,099
682,53	5,052
682,72	5,316
682,92	5,202
683,11	5,462
683,31	5,498
683,50	5,342
683,69	5,284
683,89	5,364
684,08	5,118
684,28	5,376
684,47	5,023
684,67	5,252
684,86	5,116
685,06	5,172
685,25	5,325
685,44	5,414
685,64	5,384
685,83	5,291
686,03	5,083
686,22	5,369
686,42	5,544
686,61	5,378
686,80	5,548
687,00	5,266
687,19	5,040
687,39	5,303
687,58	5,179
687,77	5,447
687,97	5,631
688,16	5,447
688,36	5,437
688,55	5,063
688,74	5,287
688,94	5,348
689,13	5,227
689,33	5,273
689,52	5,285
689,71	5,730
689,91	5,219
690,10	4,940
690,30	5,398
690,49	5,132
690,68	5,347
690,88	5,232
691,07	5,251
691,27	5,451
691,46	5,655
691,65	5,288
691,85	5,276
692,04	5,074
692,23	5,160
692,43	5,314
692,62	5,309
692,82	5,571
693,01	5,257
693,20	5,343
693,40	5,177
693,59	5,159
693,78	5,304
693,98	5,185
694,17	5,636
694,36	5,402
694,56	5,431
694,75	5,510
694,94	5,312
695,14	5,467
695,33	5,294
695,53	5,362
695,72	5,519
695,91	5,475
696,11	5,251
696,30	5,407
696,49	5,792
696,69	5,168
696,88	5,300
697,07	5,600
697,27	5,107
697,46	5,401
697,65	5,726
697,85	5,432
698,04	5,274
698,23	5,449
698,43	5,741
698,62	5,386
698,81	5,565
699,01	5,663
699,20	5,297
699,39	5,125
699,58	5,138
699,78	5,163
699,97	5,282
700,16	5,136
700,36	5,459
700,55	5,275
700,74	5,161
700,94	5,555
701,13	5,564
701,32	5,390
701,52	5,218
701,71	5,610
701,90	5,396
702,09	5,506
702,29	5,769
702,48	5,580
702,67	5,523
702,87	5,272
703,06	5,307
703,25	5,237
703,44	5,505
703,64	5,350
703,83	5,583
704,02	5,280
704,22	5,766
704,41	5,718
704,60	5,760
704,79	5,394
704,99	5,568
705,18	5,671
705,37	5,607
705,56	5,217
705,76	5,560
705,95	5,352
706,14	5,307
706,33	5,672
706,53	5,742
706,72	5,186
706,91	5,493
707,11	5,491
707,30	5,607
707,49	5,470
707,68	5,694
707,88	5,668
708,07	5,424
708,26	5,505
708,45	5,183
708,64	5,563
708,84	5,455
709,03	5,507
709,22	5,500
709,41	5,545
709,61	5,687
709,80	5,715
709,99	5,524
710,18	5,493
710,38	5,763
710,57	5,704
710,76	5,494
710,95	5,589
711,14	5,588
711,34	5,792
711,53	5,646
711,72	5,537
711,91	5,732
712,11	5,445
712,30	5,495
712,49	5,280
712,68	5,279
712,87	5,383
713,07	5,479
713,26	5,189
713,45	5,238
713,64	5,685
713,83	5,477
714,03	5,711
714,22	5,219
714,41	5,800
714,60	5,707
714,79	5,703
714,99	5,375
715,18	5,523
715,37	5,390
715,56	5,611
715,75	5,655
715,94	5,833
716,14	5,753
716,33	6,264
716,52	5,690
716,71	5,787
716,90	5,651
717,10	5,779
717,29	5,899
717,48	6,215
717,67	6,048
717,86	6,130
718,05	6,228
718,24	6,273
718,44	6,061
718,63	6,106
718,82	6,731
719,01	6,243
719,20	6,032
719,39	6,330
719,59	6,324
719,78	6,670
719,97	6,714
720,16	7,098
720,35	6,941
720,54	6,840
720,73	7,301
720,93	6,862
721,12	7,503
721,31	7,635
721,50	7,545
721,69	7,639
721,88	7,639
722,07	7,929
722,27	8,009
722,46	8,212
722,65	8,131
722,84	8,594
723,03	8,578
723,22	8,683
723,41	8,846
723,60	8,767
723,79	9,290
723,99	9,355
724,18	9,611
724,37	9,941
724,56	9,938
724,75	10,407
724,94	10,337
725,13	10,497
725,32	10,801
725,51	11,247
725,71	11,428
725,90	11,548
726,09	11,931
726,28	12,013
726,47	12,322
726,66	12,669
726,85	13,146
727,04	13,301
727,23	13,505
727,42	14,146
727,61	13,965
727,81	14,791
728,00	15,214
728,19	15,453
728,38	16,220
728,57	16,559
728,76	16,975
728,95	18,332
729,14	18,329
729,33	19,210
729,52	19,725
729,71	20,690
729,90	21,324
730,09	21,229
730,28	22,738
730,48	24,141
730,67	24,018
730,86	24,992
731,05	26,469
731,24	27,033
731,43	28,573
731,62	29,537
731,81	29,661
732,00	31,388
732,19	31,953
732,38	32,807
732,57	34,050
732,76	34,428
732,95	35,188
733,14	36,503
733,33	37,399
733,52	38,214
733,71	39,185
733,90	39,929
734,09	40,773
734,28	41,570
734,47	41,797
734,66	41,548
734,85	42,020
735,04	43,118
735,23	42,880
735,42	43,778
735,61	42,495
735,81	42,265
736,00	42,890
736,19	41,619
736,38	41,592
736,57	41,755
736,76	41,227
736,95	40,623
737,14	40,903
737,33	40,331
737,52	39,886
737,71	38,905
737,90	39,274
738,09	38,914
738,28	38,639
738,47	37,712
738,66	37,822
738,85	37,981
739,04	37,201
739,22	37,283
739,41	37,101
739,60	36,759
739,79	36,858
739,98	35,995
740,17	35,866
740,36	36,000
740,55	35,885
740,74	35,641
740,93	35,682
741,12	35,733
741,31	35,585
741,50	35,706
741,69	35,149
741,88	35,128
742,07	35,854
742,26	35,465
742,45	35,212
742,64	35,690
742,83	35,324
743,02	34,799
743,21	34,549
743,40	34,734
743,59	34,549
743,78	33,815
743,97	34,671
744,16	33,767
744,34	33,855
744,53	34,476
744,72	33,639
744,91	33,347
745,10	33,363
745,29	33,221
745,48	32,513
745,67	32,873
745,86	32,886
746,05	32,457
746,24	32,083
746,43	32,204
746,62	31,781
746,81	31,458
747,00	31,060
747,18	30,263
747,37	30,871
747,56	30,051
747,75	29,382
747,94	29,221
748,13	29,015
748,32	28,514
748,51	28,406
748,70	27,712
748,89	27,496
749,08	26,750
749,26	26,561
749,45	26,111
749,64	25,497
749,83	24,906
750,02	25,148
750,21	23,783
750,40	23,157
750,59	22,253
750,78	21,581
750,96	21,115
751,15	20,371
751,34	19,560
751,53	18,825
751,72	18,841
751,91	17,924
752,10	16,610
752,29	16,152
752,47	15,308
752,66	14,428
752,85	13,842
753,04	13,579
753,23	12,531
753,42	12,338
753,61	11,579
753,80	10,973
753,98	10,422
754,17	10,094
754,36	9,665
754,55	8,725
754,74	9,030
754,93	8,764
755,12	8,773
755,30	8,333
755,49	8,260
755,68	8,227
755,87	7,968
756,06	7,426
756,25	7,631
756,43	7,420
756,62	7,640
756,81	7,591
757,00	7,656
757,19	7,303
757,38	7,537
757,56	6,803
757,75	6,810
757,94	7,032
758,13	6,763
758,32	6,948
758,51	6,793
758,69	6,499
758,88	6,813
759,07	6,653
759,26	6,422
759,45	6,366
759,63	6,346
759,82	6,192
760,01	6,220
760,20	5,893
760,39	5,949
760,57	5,662
760,76	5,765
760,95	5,879
761,14	5,644
761,33	5,654
761,51	5,331
761,70	5,542
761,89	5,405
762,08	5,134
762,27	4,965
762,45	5,085
762,64	5,075
762,83	5,245
763,02	5,558
763,21	5,354
763,39	5,097
763,58	5,216
763,77	5,316
763,96	5,291
764,14	5,252
764,33	5,288
764,52	5,416
764,71	5,458
764,89	5,268
765,08	5,158
765,27	5,062
765,46	5,427
765,65	5,321
765,83	5,094
766,02	5,389
766,21	4,945
766,40	4,591
766,58	5,150
766,77	5,413
766,96	5,129
767,15	5,255
767,33	4,619
767,52	5,024
767,71	5,180
767,90	4,979
768,08	4,677
768,27	5,439
768,46	5,114
768,64	4,336
768,83	5,121
769,02	5,073
769,21	5,245
769,39	5,051
769,58	5,198
769,77	4,991
769,96	5,138
770,14	4,927
770,33	5,004
770,52	4,837
770,70	4,851
770,89	4,988
771,08	4,951
771,27	4,822
771,45	4,975
771,64	4,991
771,83	4,796
772,01	4,992
772,20	5,016
772,39	5,061
772,57	5,373
772,76	4,987
772,95	5,222
773,14	4,644
773,32	4,885
773,51	5,150
773,70	5,228
773,88	4,961
774,07	5,143
774,26	5,270
774,44	4,988
774,63	5,075
774,82	5,344
775,00	5,330
775,19	5,114
775,38	5,154
775,56	5,056
775,75	5,072
775,94	4,969
776,12	5,073
776,31	5,196
776,50	4,866
776,68	4,905
776,87	5,126
777,06	5,203
777,24	5,414
777,43	5,115
777,62	5,312
777,80	5,163
777,99	5,413
778,18	5,197
778,36	5,151
778,55	5,162
778,74	4,919
778,92	5,125
779,11	4,944
779,29	5,146
779,48	5,053
779,67	5,192
779,85	5,204
780,04	5,066
780,23	5,191
780,41	5,204
780,60	4,974
780,79	5,097
780,97	5,461
781,16	5,361
781,34	5,117
781,53	5,521
781,72	5,289
781,90	5,354
782,09	5,268
782,28	5,139
782,46	4,987
782,65	5,139
782,83	4,883
783,02	5,451
783,21	5,116
783,39	5,120
783,58	5,233
783,76	5,067
783,95	4,890
784,14	5,492
784,32	4,881
784,51	5,236
784,69	4,959
784,88	5,313
785,06	5,103
785,25	5,418
785,44	4,917
785,62	4,896
785,81	5,123
785,99	4,973
786,18	5,241
786,37	5,169
786,55	5,216
786,74	5,076
786,92	5,714
787,11	5,078
787,29	4,967
787,48	4,948
787,67	5,095
787,85	4,787
788,04	5,284
788,22	4,808
788,41	5,050
788,59	5,261
788,78	5,110
788,96	5,155
789,15	5,311
789,34	5,552
789,52	5,403
789,71	5,510
789,89	5,442
790,08	5,009
790,26	5,356
790,45	5,147
790,63	5,336
790,82	5,447
791,00	5,281
791,19	5,184
791,38	5,341
791,56	5,535
791,75	5,115
791,93	5,322
792,12	5,102
792,30	5,601
792,49	5,658
792,67	4,984
792,86	5,128
793,04	5,296
793,23	5,311
793,41	5,155
793,60	5,611
793,78	5,519
793,97	5,407
794,15	5,049
794,34	4,997
794,52	5,526
794,71	5,548
794,89	5,559
795,08	5,745
795,26	5,016
795,45	5,833
795,63	5,719
795,82	5,190
796,00	4,943
796,19	5,498
796,37	5,196
796,56	5,254
796,74	5,600
796,93	5,519
797,11	5,039
797,30	5,147
797,48	5,725
797,67	5,117
797,85	5,119
798,04	5,138
798,22	5,650
798,41	4,884
798,59	5,146
798,77	4,785
798,96	5,103
799,14	5,432
799,33	5,064
799,51	4,955
799,70	5,433
799,88	5,026
800,07	5,005
800,25	5,373
800,44	4,814
800,62	4,833
800,80	5,107
800,99	5,168
801,17	5,090
801,36	5,286
801,54	5,016
801,73	4,647
801,91	5,163
802,10	5,542
802,28	5,353
802,46	5,476
802,65	5,104
802,83	5,561
803,02	5,865
803,20	5,552
803,39	6,275
803,57	5,111
803,75	5,376
803,94	5,688
804,12	5,588
804,31	5,669
804,49	5,797
804,67	5,410
804,86	5,762
805,04	5,618
805,23	5,965
805,41	5,867
805,59	5,850
805,78	5,952
805,96	5,937
806,15	5,922
806,33	6,058
806,51	5,891
806,70	5,815
806,88	5,969
807,07	6,623
807,25	6,335
807,43	6,440
807,62	6,275
807,80	6,464
807,99	6,526
808,17	6,319
808,35	6,838
808,54	6,429
808,72	6,762
808,90	7,278
809,09	7,081
809,27	7,058
809,46	7,236
809,64	7,327
809,82	6,847
810,01	7,594
810,19	7,319
810,37	7,444
810,56	7,508
810,74	7,383
810,92	7,808
811,11	7,475
811,29	8,642
811,48	8,066
811,66	8,374
811,84	8,703
812,03	8,441
812,21	8,286
812,39	9,147
812,58	8,759
812,76	8,987
812,94	8,867
813,13	8,962
813,31	9,437
813,49	9,514
813,68	9,382
813,86	9,358
814,04	9,147
814,23	9,092
814,41	9,087
814,59	9,187
814,78	9,850
814,96	10,047
815,14	10,398
815,33	10,181
815,51	10,834
815,69	10,781
815,87	11,453
816,06	11,418
816,24	11,784
816,42	12,143
816,61	11,955
816,79	12,770
816,97	13,029
817,16	12,738
817,34	12,856
817,52	13,328
817,70	13,291
817,89	14,167
818,07	14,835
818,25	13,573
818,44	15,089
818,62	15,005
818,80	15,689
818,98	16,166
819,17	16,541
819,35	17,232
819,53	18,484
819,72	18,739
819,90	19,213
820,08	20,165
820,26	20,765
820,45	20,458
820,63	22,557
820,81	21,682
820,99	22,763
821,18	23,800
821,36	24,240
821,54	25,293
821,73	25,811
821,91	25,934
822,09	27,203
822,27	28,317
822,46	28,449
822,64	29,957
822,82	30,313
823,00	31,112
823,19	31,489
823,37	32,496
823,55	32,622
823,73	33,710
823,91	34,144
824,10	35,338
824,28	35,686
824,46	36,750
824,64	37,700
824,83	38,019
825,01	38,047
825,19	38,198
825,37	38,800
825,56	37,734
825,74	39,704
825,92	39,567
826,10	39,756
826,28	38,884
826,47	38,313
826,65	39,247
826,83	39,726
827,01	39,462
827,19	40,244
827,38	40,160
827,56	40,420
827,74	40,128
827,92	40,254
828,10	40,254
828,29	40,414
828,47	39,826
828,65	40,688
828,83	40,356
829,01	40,066
829,20	39,935
829,38	40,852
829,56	39,544
829,74	39,281
829,92	38,935
830,10	39,049
830,29	38,160
830,47	38,138
830,65	37,132
830,83	37,398
831,01	36,050
831,20	35,174
831,38	35,465
831,56	36,253
831,74	34,865
831,92	34,101
832,10	33,615
832,29	34,009
832,47	32,475
832,65	32,459
832,83	32,754
833,01	32,879
833,19	32,178
833,37	32,843
833,56	31,866
833,74	32,792
833,92	31,348
834,10	31,349
834,28	32,208
834,46	31,796
834,64	31,706
834,83	31,428
835,01	31,692
835,19	30,793
835,37	31,554
835,55	31,707
835,73	33,188
835,91	31,374
836,09	30,992
836,28	31,057
836,46	30,949
836,64	30,428
836,82	29,132
837,00	30,111
837,18	30,434
837,36	30,928
837,54	30,300
837,72	30,272
837,91	30,745
838,09	29,735
838,27	29,559
838,45	30,159
838,63	29,475
838,81	29,339
838,99	28,678
839,17	29,347
839,35	28,165
839,53	27,981
839,72	27,930
839,90	26,618
840,08	27,015
840,26	27,462
840,44	26,326
840,62	25,715
840,80	25,775
840,98	25,056
841,16	23,885
841,34	24,432
841,52	23,400
841,70	22,810
841,89	21,570
842,07	21,379
842,25	20,612
842,43	19,513
842,61	19,091
842,79	17,563
842,97	16,686
843,15	16,150
843,33	15,560
843,51	15,045
843,69	13,472
843,87	14,302
844,05	13,361
844,23	12,289
844,41	11,984
844,59	11,947
844,77	11,397
844,95	11,040
845,13	10,696
845,31	10,262
845,50	10,507
845,68	10,023
845,86	9,338
846,04	9,874
846,22	9,821
846,40	9,206
846,58	9,411
846,76	9,516
846,94	9,359
847,12	8,557
847,30	8,948
847,48	8,967
847,66	8,933
847,84	8,613
848,02	8,538
848,20	8,936
848,38	8,272
848,56	7,937
848,74	8,579
848,92	8,180
849,10	7,762
849,28	7,908
849,46	7,771
849,64	8,122
849,82	7,207
850,00	7,930
850,18	7,381
850,36	7,751
850,54	7,698
850,72	7,378
850,90	7,162
851,08	7,292
851,26	7,536
851,44	7,620
851,62	6,916
851,80	7,279
851,98	7,556
852,16	7,077
852,34	6,730
852,52	6,186
852,70	6,212
852,87	6,787
853,05	6,092
853,23	6,421
853,41	6,575
853,59	6,376
853,77	6,164
853,95	6,012
854,13	5,815
854,31	6,001
854,49	6,512
854,67	6,188
854,85	6,072
855,03	6,788
855,21	6,436
855,39	5,681
855,57	6,045
855,75	5,964
855,93	5,516
856,11	5,462
856,28	4,984
856,46	4,549
856,64	4,925
856,82	5,217
857,00	4,086
857,18	4,729
857,36	4,772
857,54	4,625
857,72	3,889
857,90	4,175
858,08	4,206
858,26	4,498
858,44	4,678
858,61	4,220
858,79	4,622
858,97	4,454
859,15	4,112
859,33	4,358
859,51	4,600
859,69	4,377
859,87	4,811
860,05	4,785
860,23	4,093
860,40	4,697
860,58	3,909
860,76	4,567
860,94	4,315
861,12	4,808
861,30	4,332
861,48	3,743
861,66	4,254
861,84	4,621
862,01	4,899
862,19	4,263
862,37	4,107
862,55	4,600
862,73	4,262
862,91	3,895
863,09	3,754
863,27	4,437
863,44	4,658
863,62	4,429
863,80	4,452
863,98	4,221
864,16	4,088
864,34	4,525
864,52	4,332
864,69	4,447
864,87	4,186
865,05	4,508
865,23	3,945
865,41	4,344
865,59	4,179
865,76	4,200
865,94	4,349
866,12	4,610
866,30	4,310
866,48	4,024
866,66	4,094
866,83	4,290
867,01	4,038
867,19	4,310
867,37	4,336
867,55	3,887
867,73	3,895
867,90	4,258
868,08	4,162
868,26	3,918
868,44	3,735
868,62	3,925
868,79	4,893
868,97	3,988
869,15	4,440
869,33	4,240
869,51	4,938
869,69	3,930
869,86	3,728
870,04	3,781
870,22	3,818
870,40	4,752
870,57	4,274
870,75	3,133
870,93	4,433
871,11	4,257
871,29	3,045
871,46	3,773
871,64	4,008
871,82	4,307
872,00	4,220
872,18	4,468
872,35	4,005
872,53	4,592
872,71	4,196
872,89	4,438
873,06	3,824
873,24	3,618
873,42	3,675
873,60	3,758
873,77	4,232
873,95	3,896
874,13	3,867
874,31	4,665
874,49	3,992
874,66	3,677
874,84	4,372
875,02	3,699
875,20	3,795
875,37	4,840
875,55	4,404
875,73	4,348
875,91	4,132
876,08	3,825
876,26	4,486
876,44	4,208
876,61	4,131
876,79	4,139
876,97	3,836
877,15	3,977
877,32	3,712
877,50	3,981
877,68	4,038
877,86	3,629
878,03	4,181
878,21	3,810
878,39	4,055
878,56	3,720
878,74	4,265
878,92	3,217
879,10	4,185
879,27	4,272
879,45	3,746
879,63	4,552
879,80	4,180
879,98	4,225
880,16	4,403
880,34	3,893
880,51	3,689
880,69	4,398
880,87	4,278
881,04	4,111
881,22	3,856
881,40	3,680
881,57	3,900
881,75	3,859
881,93	3,782
882,10	3,918
882,28	3,973
882,46	4,303
882,63	4,055
882,81	3,245
882,99	4,188
883,16	3,293
883,34	3,817
883,52	3,970
883,69	3,393
883,87	3,219
884,05	3,925
884,22	3,734
884,40	3,906
884,58	4,293
884,75	4,171
884,93	4,081
885,11	3,637
885,28	3,668
885,46	3,736
885,64	3,256
885,81	4,311
885,99	3,490
886,17	3,734
886,34	3,625
886,52	3,304
886,70	3,990
886,87	3,707
887,05	3,897
887,22	4,489
887,40	3,633
887,58	3,576
887,75	3,858
887,93	4,250
888,11	3,874
888,28	3,637
888,46	3,474
888,63	3,882
888,81	3,985
888,99	3,693
889,16	3,407
889,34	3,527
889,51	3,706
889,69	3,477
889,87	3,637
890,04	3,320
890,22	3,587
890,39	4,015
890,57	4,026
890,75	3,864
890,92	3,667
891,10	3,391
891,27	3,465
891,45	3,205
891,63	3,666
891,80	3,811
891,98	4,300
892,15	3,921
892,33	3,813
892,51	3,492
892,68	3,318
892,86	3,505
893,03	3,965
893,21	3,388
893,38	3,606
893,56	3,524
893,74	3,033
893,91	3,851
894,09	4,019
894,26	3,300
894,44	3,301
894,61	3,183
894,79	3,535
894,96	3,424
895,14	3,760
895,32	4,164
895,49	3,527
895,67	3,535
895,84	3,836
896,02	3,473
896,19	3,284
896,37	4,016
896,54	3,444
896,72	3,870
896,89	3,688
897,07	3,225
897,25	3,827
897,42	3,086
897,60	4,047
897,77	4,248
897,95	3,547
898,12	3,413
898,30	3,378
898,47	3,081
898,65	3,537
898,82	3,038
899,00	3,623
899,17	2,929
899,35	3,270
899,52	3,785
899,70	3,194
899,87	3,345
900,05	3,586
900,22	3,840
900,40	3,661
900,57	3,415
900,75	3,241
900,92	3,083
901,10	3,067
901,27	3,158
901,45	3,306
901,62	3,385
901,80	3,278
901,97	3,391
902,15	3,536
902,32	3,583
902,50	3,069
902,67	3,057
902,85	2,942
903,02	2,862
903,20	3,107
903,37	3,735
903,54	2,724
903,72	3,081
903,89	3,008
904,07	2,797
904,24	3,124
904,42	2,926
904,59	3,396
904,77	3,408
904,94	3,158
905,12	2,763
905,29	3,169
905,47	3,402
905,64	3,337
905,81	2,944
905,99	4,025
906,16	3,057
906,34	2,984
906,51	3,366
906,69	3,897
906,86	2,997
907,03	2,924
907,21	3,268
907,38	3,767
907,56	3,423
907,73	3,602
907,91	3,438
908,08	3,196
908,25	3,523
908,43	3,131
908,60	3,014
908,78	3,528
908,95	3,178
909,13	3,274
909,30	2,389
909,47	2,505
909,65	2,637
909,82	3,382
910,00	3,189
910,17	2,682
910,34	3,360
910,52	2,471
910,69	3,236
910,87	2,569
911,04	3,195
911,21	3,064
911,39	2,780
911,56	2,765
911,73	2,944
911,91	2,882
912,08	3,459
912,26	3,136
912,43	3,531
912,60	3,491
912,78	2,776
912,95	2,883
913,13	3,160
913,30	2,606
913,47	2,862
913,65	2,712
913,82	3,322
913,99	2,480
914,17	3,152
914,34	2,520
914,51	3,071
914,69	2,537
914,86	3,275
915,03	2,647
915,21	2,729
915,38	2,689
915,56	3,097
915,73	2,416
915,90	2,383
916,08	3,679
916,25	3,121
916,42	3,142
916,60	2,637
916,77	2,777
916,94	2,469
917,12	3,096
917,29	2,664
917,46	2,774
917,64	3,274
917,81	2,949
917,98	3,288
918,16	2,398
918,33	3,302
918,50	2,846
918,67	2,589
918,85	2,571
919,02	2,886
919,19	2,764
919,37	2,411
919,54	3,082
919,71	2,515
919,89	2,314
920,06	2,691
920,23	2,737
920,41	2,797
920,58	2,705
920,75	2,489
920,92	2,943
921,10	2,706
921,27	1,940
921,44	2,763
921,62	2,389
921,79	2,613
921,96	3,117
922,13	2,994
922,31	2,807
922,48	3,112
922,65	2,257
922,82	3,011
923,00	2,909
923,17	2,222
923,34	2,671
923,52	2,545
923,69	2,499
923,86	2,456
924,03	2,116
924,21	2,619
924,38	2,500
924,55	2,347
924,72	2,626
924,90	3,127
925,07	2,425
925,24	1,897
925,41	2,432
925,59	2,318
925,76	2,251
925,93	2,279
926,10	1,816
926,28	2,216
926,45	1,770
926,62	2,681
926,79	1,914
926,96	2,307
927,14	2,538
927,31	2,435
927,48	2,066
927,65	2,609
927,83	2,647
928,00	2,779
928,17	2,512
928,34	2,371
928,51	2,140
928,69	2,077
928,86	1,651
929,03	2,634
929,20	2,662
929,37	2,496
929,55	2,194
929,72	2,229
929,89	2,239
930,06	1,988
930,23	2,120
930,41	1,660
930,58	2,459
930,75	2,475
930,92	2,084
931,09	2,037
931,27	2,138
931,44	2,336
931,61	1,991
931,78	2,551
931,95	2,373
932,12	2,237
932,30	2,303
932,47	2,562
932,64	1,937
932,81	1,950
932,98	2,548
933,16	2,095
933,33	2,327
933,50	1,812
933,67	2,037
933,84	1,528
934,01	1,828
934,18	1,891
934,36	1,863
934,53	2,153
934,70	2,148
934,87	2,403
935,04	2,083
935,21	2,422
935,38	1,972
935,56	1,917
935,73	2,017
935,90	1,843
936,07	2,267
936,24	1,872
936,41	2,900
936,58	1,901
936,76	2,285
936,93	2,440
937,10	2,044
937,27	1,829
937,44	1,952
937,61	2,258
937,78	1,869
937,95	1,756
938,13	1,877
938,30	1,216
938,47	1,319
938,64	1,918
938,81	1,918
938,98	2,079
939,15	2,234
939,32	2,329
939,49	1,671
939,66	2,043
939,84	2,155
940,01	1,945
940,18	2,212
940,35	1,841
940,52	1,791
940,69	2,008
940,86	2,308
941,03	1,951
941,20	2,238
941,37	1,910
941,54	1,821
941,71	2,301
941,89	2,238
942,06	2,006
942,23	2,046
942,40	2,167
942,57	1,935
942,74	2,004
942,91	1,519
943,08	2,312
943,25	2,269
943,42	1,429
943,59	2,220
943,76	2,303
943,93	2,355
944,10	1,814
944,27	1,302
944,44	2,352
944,61	2,404
944,79	1,966
944,96	1,615
945,13	1,852
945,30	1,689
945,47	2,177
945,64	2,032
945,81	1,736
945,98	1,889
946,15	2,182
946,32	1,984
946,49	1,489
946,66	1,736
946,83	0,962
947,00	1,874
947,17	2,724
947,34	2,107
947,51	1,851
947,68	2,284
947,85	2,517
948,02	2,367
948,19	1,131
948,36	2,262
948,53	1,821
948,70	1,807
948,87	1,438
949,04	1,543
949,21	1,224
949,38	1,619
949,55	3,192
949,72	1,873
949,89	1,863
950,06	1,631
950,23	1,836
950,40	1,986
950,57	1,570
950,74	1,436
950,91	1,963
951,08	2,286
951,25	2,374
951,42	2,159
951,59	1,947
951,76	1,995
951,93	1,362
952,10	2,828
952,27	1,928
952,44	2,953
952,61	2,063
952,77	2,227
952,94	2,862
953,11	2,483
953,28	2,218
953,45	2,410
953,62	2,714
953,79	1,809
953,96	2,148
954,13	3,160
954,30	2,560
954,47	0,849
954,64	2,013
954,81	3,383
954,98	3,127
955,15	2,249
955,32	2,115
955,49	2,069
955,65	3,257
955,82	2,651
955,99	2,245
956,16	2,417
956,33	3,060
956,50	1,385
956,67	2,990
956,84	3,027
957,01	2,395
957,18	1,815
957,35	2,569
957,52	1,990
957,68	2,222
957,85	1,955
958,02	2,493
958,19	1,652
958,36	2,475
958,53	2,867
958,70	3,104
958,87	3,669
959,04	3,111
959,21	2,300
959,37	3,659
959,54	2,751
959,71	2,996
959,88	2,956
960,05	2,753
960,22	3,253
960,39	2,205
960,56	2,014
960,72	2,810
960,89	4,302
961,06	2,814
961,23	4,147
961,40	3,988
961,57	1,801
961,74	3,780
961,90	3,560
962,07	3,766
962,24	2,990
962,41	2,365
962,58	3,170
962,75	3,197
962,92	2,250
963,08	2,540
963,25	3,523
963,42	4,577
963,59	1,839
963,76	1,539
963,93	4,128
964,10	4,167
964,26	4,015
964,43	2,231
964,60	3,321
964,77	3,227
964,94	3,338
965,10	2,290
965,27	3,293
965,44	4,831
965,61	2,989
965,78	4,395
965,95	3,873
966,11	3,466
966,28	3,519
966,45	3,380
966,62	2,796
966,79	4,386
966,95	3,098
967,12	4,983
967,29	1,954
967,46	5,020
967,63	4,055
967,79	4,888
967,96	4,231
968,13	1,191
968,30	2,340
968,47	3,223
968,63	3,122
968,80	4,242
968,97	2,623
969,14	1,370
969,31	3,271
969,47	3,321
969,64	4,093
969,81	2,351
969,98	2,442
970,14	3,630
970,31	4,566
970,48	3,667
970,65	3,498
970,81	3,126
970,98	3,580
971,15	4,617
971,32	3,366
971,48	3,543
971,65	4,240
971,82	3,320
971,99	4,188
972,15	3,480
972,32	3,028
972,49	3,647
972,66	4,523
972,82	3,784
972,99	2,861
973,16	3,564
973,33	5,077
973,49	3,758
973,66	3,120
973,83	2,993
974,00	5,512
974,16	4,677
974,33	3,019
974,50	3,149
974,67	5,002
974,83	2,883
975,00	3,188
975,17	2,824
975,33	4,204
975,50	3,518
975,67	1,974
975,84	3,240
976,00	3,852
976,17	2,416
976,34	3,269
976,50	2,647
976,67	5,010
976,84	2,795
977,00	3,516
977,17	2,994
977,34	3,222
977,50	1,831
977,67	5,006
977,84	3,045
978,01	6,411
978,17	5,900
978,34	4,936
978,51	2,821
978,67	4,762
978,84	4,029
979,01	3,481
979,17	4,038
979,34	4,550
979,51	4,912
979,67	2,578
979,84	4,023
980,01	2,799
980,17	3,660
980,34	6,230
980,51	3,989
980,67	6,776
980,84	5,402
981,01	2,449
981,17	3,410
981,34	5,744
981,50	4,177
981,67	3,267
981,84	1,322
982,00	1,730
982,17	4,365
982,34	4,156
982,50	5,662
982,67	5,060
982,84	4,504
983,00	3,646
983,17	3,540
983,33	5,371
983,50	3,321
983,67	5,781
983,83	3,910
984,00	4,790
984,17	1,490
984,33	1,940
984,50	4,457
984,66	4,222
984,83	3,655
985,00	2,560
985,16	5,844
985,33	6,559
985,49	4,483
985,66	3,709
985,83	1,437
985,99	1,921
986,16	4,892
986,32	3,696
986,49	3,384
986,66	5,929
986,82	4,656
986,99	2,860
987,15	5,277
987,32	4,912
987,49	2,872
987,65	7,006
987,82	2,737
987,98	1,052
988,15	4,293
988,31	3,914
988,48	4,885
988,65	3,162
988,81	5,158
988,98	4,959
989,14	5,562
989,31	2,862
989,47	4,225
989,64	3,502
989,80	1,135
989,97	6,219
990,14	5,162
990,30	4,291
990,47	5,216
990,63	3,956
990,80	4,444
990,96	5,851
991,13	4,551
991,29	3,427
991,46	5,464
991,62	3,193
991,79	2,520
991,95	5,516
992,12	3,326
992,29	5,635
992,45	5,115
992,62	3,220
992,78	3,645
992,95	6,388
993,11	4,662
993,28	3,092
993,44	3,607
993,61	4,090
993,77	-0,361
993,94	3,299
994,10	4,850
994,27	6,527
994,43	5,875
994,60	2,194
994,76	5,370
994,93	4,197
995,09	7,548
995,26	2,361
995,42	2,236
995,59	5,485
995,75	5,890
995,92	3,232
996,08	6,199
996,25	3,228
996,41	4,768
996,58	2,989
996,74	6,462
996,91	4,184
997,07	3,851
997,23	4,292
997,40	3,567
997,56	2,444
997,73	4,431
997,89	5,343
998,06	2,064
998,22	2,108
998,39	3,844
998,55	4,840
998,72	2,383
998,88	4,662
999,05	4,715
999,21	3,552
999,37	3,524
999,54	7,878
999,70	5,523
999,87	3,903
1000,03	2,913
1000,20	3,958
1000,36	2,485
1000,52	3,672
1000,69	6,151
1000,85	5,081
1001,02	4,682
1001,18	5,436
1001,35	4,517
1001,51	5,082
1001,67	-0,148
1001,84	1,670
1002,00	1,709
1002,17	5,004
1002,33	2,297
1002,50	6,437
1002,66	0,704
1002,82	3,957
1002,99	1,182
1003,15	4,240
1003,32	3,746
1003,48	0,675
1003,64	3,849
1003,81	3,399
1003,97	6,953
1004,14	3,984
1004,30	3,770
1004,46	4,413
1004,63	4,507
1004,79	6,044
1004,95	4,549
1005,12	3,786
1005,28	4,126
1005,45	5,998
1005,61	6,826
1005,77	5,159
1005,94	7,541
1006,10	2,804
1006,26	7,119
1006,43	6,792
1006,59	1,893
1006,76	4,883
1006,92	3,503
1007,08	5,441
1007,25	5,459
1007,41	3,191
1007,57	5,581
1007,74	5,667
1007,90	0,550
1008,06	5,740
1008,23	7,592
1008,39	3,430
1008,55	6,429
1008,72	5,840
1008,88	3,597
1009,04	4,553
1009,21	3,791
1009,37	6,047
1009,53	5,684
1009,70	4,501
1009,86	8,156
1010,02	4,271
1010,19	0,965
1010,35	7,692
1010,51	0,806
1010,68	2,878
1010,84	1,878
1011,00	6,897
1011,17	3,267
1011,33	7,762
1011,49	3,625
1011,66	3,665
1011,82	6,215
1011,98	-1,622
1012,14	4,866
1012,31	5,051
1012,47	3,931
1012,63	5,850
1012,80	7,156
1012,96	5,519
1013,12	3,715
1013,29	8,079
1013,45	7,527
1013,61	5,824
1013,77	3,320
1013,94	5,734
1014,10	7,464
1014,26	1,505
1014,43	8,557
1014,59	4,536
1014,75	3,774
1014,91	4,021
1015,08	8,661
1015,24	3,557
1015,40	2,626
1015,56	1,140
1015,73	7,576
1015,89	4,440
1016,05	1,124
1016,21	6,660
1016,38	-0,824
1016,54	2,706
1016,70	4,380
1016,86	3,419
1017,03	-1,957
1017,19	5,191
1017,35	4,454
1017,51	1,681
1017,68	4,823
1017,84	-0,107
1018,00	3,410
1018,16	3,628
1018,33	9,267
1018,49	3,065
1018,65	2,516
1018,81	8,836
1018,97	3,182
1019,14	5,830
1019,30	7,134
1019,46	5,923
1019,62	-2,191
1019,79	3,356
1019,95	1,448
1020,11	3,081
1020,27	2,182
1020,43	3,542
1020,60	4,398
1020,76	4,286
1020,92	3,359
1021,08	-0,244
1021,24	3,045
1021,41	-1,259
1021,57	3,821
1021,73	-2,059
1021,89	9,034
1022,05	6,145
1022,21	0,000
1022,38	7,273
1022,54	8,395
1022,70	5,617
1022,86	2,879
1023,02	5,821
1023,19	5,836
1023,35	-3,951
1023,51	7,230
1023,67	9,318
1023,83	8,973
1023,99	9,254
1024,16	2,092
1024,32	-1,491
1024,48	5,665
1024,64	1,278
1024,80	8,690
1024,96	-3,689
1025,12	8,608
1025,29	6,365
1025,45	6,490
1025,61	6,490
1025,77	0,725
1025,93	4,167
1026,09	3,967
1026,26	1,901
1026,42	5,365
1026,58	4,131
1026,74	0,989
1026,90	6,443
1027,06	5,685
1027,22	-4,993
1027,38	0,855
1027,55	5,221
1027,71	7,891
1027,87	4,045
1028,03	8,357
1028,19	-1,466
1028,35	2,031
1028,51	3,061
1028,67	6,627
1028,83	2,914
1029,00	2,837
1029,16	5,141
1029,32	7,015
1029,48	2,959
1029,64	4,204
1029,80	5,724
1029,96	-1,133
1030,12	5,016
1030,28	-0,336
1030,44	6,990
1030,61	3,165
1030,77	6,331
1030,93	8,597
1031,09	7,313
1031,25	1,008
1031,41	5,763
1031,57	3,716
1031,73	3,740
1031,89	0,662
1032,05	7,815
1032,21	3,333
1032,37	-3,676
1032,53	6,390
1032,69	8,100
1032,86	1,213
1033,02	5,396
1033,18	5,308
1033,34	1,051
1033,50	9,015
1033,66	0,000
1033,82	4,615
1033,98	3,784
1034,14	-4,028
1034,30	5,609
1034,46	-0,716
1034,62	1,524
1034,78	4,124
1034,94	-3,682
1035,10	10,701
1035,26	6,082
1035,42	3,441
1035,58	7,143
1035,74	2,000
1035,90	-1,942
1036,06	-0,412
1036,22	4,464
1036,38	10,019
1036,54	1,193
1036,70	-0,601
1036,86	9,962
1037,02	0,952
1037,18	9,057
1037,34	3,704
1037,50	10,537
1037,66	14,793
1037,82	4,459
1037,98	2,846
1038,14	4,264
1038,30	0,982
1038,46	2,103
1038,62	-3,151
1038,78	-1,633
1038,94	-1,480
1039,10	-0,973
1039,26	1,392
1039,42	15,030
1039,58	6,208
1039,74	-0,922
1039,90	1,008
1040,06	-3,457
>>>>>End Processed Spectral Data<<<<<
