SpectraSuite Data File
++++++++++++++++++++++++++++++++++++
Date: Thu Feb 02 18:37:25 EET 2017
User: optolab
Dark Spectrum Present: Yes
Reference Spectrum Present: Yes
Number of Sampled Component Spectra: 1
Spectrometers: USB4C02475
Integration Time (usec): 151411 (USB4C02475)
Spectra Averaged: 1 (USB4C02475)
Boxcar Smoothing: 0 (USB4C02475)
Correct for Electrical Dark: No (USB4C02475)
Strobe/Lamp Enabled: No (USB4C02475)
Correct for Detector Non-linearity: No (USB4C02475)
Correct for Stray Light: No (USB4C02475)
Number of Pixels in Processed Spectrum: 3648
>>>>>Begin Processed Spectral Data<<<<<
344,91	118,519
345,13	118,519
345,35	118,519
345,57	50,000
345,79	-38,462
346,00	4,000
346,22	-48,649
346,44	-130,769
346,66	666,667
346,87	-30,000
347,09	-1950,000
347,31	3800,000
347,53	79,487
347,74	-225,000
347,96	55,556
348,18	112,195
348,40	-193,333
348,61	56,863
348,83	63,889
349,05	10,909
349,27	66,176
349,48	19,608
349,70	72,727
349,92	75,610
350,14	400,000
350,35	-103,846
350,57	51,471
350,79	51,064
351,01	200,000
351,22	385,714
351,44	-13,333
351,66	14,634
351,87	-47,727
352,09	40,385
352,31	-91,304
352,53	22,581
352,74	-28,125
352,96	31,633
353,18	45,455
353,40	78,571
353,61	15,000
353,83	16,000
354,05	20,690
354,26	-11,364
354,48	68,182
354,70	53,750
354,92	68,254
355,13	28,571
355,35	850,000
355,57	89,610
355,78	47,500
356,00	-37,209
356,22	20,896
356,44	0,000
356,65	-7,692
356,87	35,802
357,09	-17,391
357,30	94,595
357,52	-20,000
357,74	36,923
357,95	-77,778
358,17	-91,667
358,39	675,000
358,60	5,263
358,82	27,778
359,04	27,778
359,26	-15,556
359,47	56,897
359,69	925,000
359,91	-46,875
360,12	6,349
360,34	126,316
360,56	12,632
360,77	57,407
360,99	60,000
361,21	151,282
361,42	-117,500
361,64	84,848
361,86	21,978
362,07	39,604
362,29	-50,000
362,51	68,519
362,72	-10,000
362,94	40,000
363,16	108,696
363,37	17,188
363,59	76,923
363,81	-33,898
364,02	130,303
364,24	49,231
364,46	-28,000
364,67	30,556
364,89	-4,054
365,11	533,333
365,32	82,456
365,54	21,739
365,76	30,000
365,97	54,286
366,19	17,544
366,41	15,385
366,62	68,571
366,84	90,000
367,05	-2,778
367,27	-109,091
367,49	-7,576
367,70	28,261
367,92	24,051
368,14	41,935
368,35	79,012
368,57	6,667
368,79	5,405
369,00	53,571
369,22	41,667
369,43	24,490
369,65	48,810
369,87	37,037
370,08	-21,739
370,30	27,059
370,51	40,458
370,73	52,381
370,95	20,619
371,16	63,636
371,38	26,027
371,60	-11,628
371,81	35,789
372,03	72,727
372,24	-73,684
372,46	13,333
372,68	-11,392
372,89	21,930
373,11	-33,333
373,32	-14,286
373,54	35,938
373,76	-0,840
373,97	34,959
374,19	50,000
374,40	36,522
374,62	38,636
374,84	-8,738
375,05	14,737
375,27	20,238
375,48	70,130
375,70	21,622
375,92	5,435
376,13	35,238
376,35	24,390
376,56	15,385
376,78	20,000
376,99	22,078
377,21	-2,381
377,43	-8,333
377,64	47,458
377,86	29,032
378,07	46,842
378,29	5,455
378,51	41,406
378,72	-24,074
378,94	6,294
379,15	27,465
379,37	44,526
379,58	22,222
379,80	43,094
380,01	6,000
380,23	15,672
380,45	-18,000
380,66	6,944
380,88	8,824
381,09	26,136
381,31	18,824
381,52	35,811
381,74	-2,516
381,95	-46,053
382,17	19,663
382,39	37,952
382,60	-13,669
382,82	14,894
383,03	0,833
383,25	-7,801
383,46	8,696
383,68	-6,962
383,89	51,099
384,11	-8,333
384,32	30,714
384,54	-35,238
384,76	21,387
384,97	13,636
385,19	5,600
385,40	14,286
385,62	21,277
385,83	14,839
386,05	30,070
386,26	29,630
386,48	24,675
386,69	7,200
386,91	2,162
387,12	26,064
387,34	-0,552
387,55	34,314
387,77	12,299
387,98	18,519
388,20	6,548
388,41	36,948
388,63	28,571
388,84	29,530
389,06	11,475
389,27	15,668
389,49	15,049
389,70	28,723
389,92	12,808
390,13	29,054
390,35	41,518
390,56	25,410
390,78	20,502
390,99	-6,736
391,21	10,784
391,42	12,551
391,64	13,208
391,85	14,872
392,07	11,538
392,28	43,254
392,50	14,615
392,71	8,543
392,93	-0,830
393,14	4,918
393,36	0,901
393,57	28,326
393,79	4,566
394,00	0,000
394,22	7,538
394,43	8,370
394,65	19,087
394,86	12,167
395,08	13,873
395,29	-1,333
395,50	21,491
395,72	6,383
395,93	13,223
396,15	26,909
396,36	35,644
396,58	-4,484
396,79	19,521
397,01	18,565
397,22	26,592
397,44	15,190
397,65	19,788
397,87	17,761
398,08	13,916
398,29	13,468
398,51	19,469
398,72	3,309
398,94	2,759
399,15	18,750
399,37	11,644
399,58	-4,706
399,80	41,379
400,01	10,334
400,22	22,408
400,44	-10,879
400,65	11,000
400,87	10,458
401,08	27,609
401,30	7,167
401,51	16,854
401,72	13,603
401,94	10,839
402,15	10,294
402,37	20,879
402,58	3,679
402,80	18,256
403,01	7,895
403,22	19,886
403,44	28,912
403,65	4,895
403,87	-4,308
404,08	11,842
404,30	6,461
404,51	13,521
404,72	14,985
404,94	5,836
405,15	21,429
405,37	20,776
405,58	16,667
405,79	17,021
406,01	2,228
406,22	15,736
406,44	9,449
406,65	5,811
406,86	12,326
407,08	19,220
407,29	18,436
407,51	5,000
407,72	6,897
407,93	12,665
408,15	21,002
408,36	16,585
408,58	13,364
408,79	11,688
409,00	5,996
409,22	4,792
409,43	13,750
409,64	12,860
409,86	17,633
410,07	12,227
410,29	12,889
410,50	10,408
410,71	14,681
410,93	10,682
411,14	14,751
411,35	4,684
411,57	3,881
411,78	13,304
412,00	13,607
412,21	3,406
412,42	6,744
412,64	7,495
412,85	8,090
413,06	2,398
413,28	16,493
413,49	2,335
413,70	15,134
413,92	3,455
414,13	4,888
414,34	13,939
414,56	2,500
414,77	6,383
414,98	11,402
415,20	4,280
415,41	16,456
415,63	6,963
415,84	17,148
416,05	20,990
416,27	11,679
416,48	4,236
416,69	7,504
416,91	1,782
417,12	4,571
417,33	4,307
417,55	10,197
417,76	13,357
417,97	17,158
418,19	6,180
418,40	-1,215
418,61	7,576
418,83	8,052
419,04	12,654
419,25	6,984
419,46	10,761
419,68	7,419
419,89	3,887
420,10	13,777
420,32	11,437
420,53	4,723
420,74	7,215
420,96	8,482
421,17	16,006
421,38	16,056
421,60	9,875
421,81	10,152
422,02	9,002
422,23	8,638
422,45	1,961
422,66	8,414
422,87	7,282
423,09	5,486
423,30	7,632
423,51	4,503
423,73	9,052
423,94	14,050
424,15	10,393
424,36	8,383
424,58	9,142
424,79	10,317
425,00	9,302
425,22	13,924
425,43	8,311
425,64	8,841
425,85	13,816
426,07	1,226
426,28	4,232
426,49	9,922
426,71	8,605
426,92	9,135
427,13	3,802
427,34	11,288
427,56	7,044
427,77	6,893
427,98	4,435
428,19	11,827
428,41	13,914
428,62	7,390
428,83	12,768
429,04	8,333
429,26	10,766
429,47	11,015
429,68	5,729
429,89	5,321
430,11	8,971
430,32	8,774
430,53	9,477
430,74	5,015
430,96	12,748
431,17	7,925
431,38	6,772
431,59	7,502
431,81	9,342
432,02	8,696
432,23	8,852
432,44	6,566
432,66	7,119
432,87	7,666
433,08	8,847
433,29	7,640
433,51	7,583
433,72	3,249
433,93	7,539
434,14	7,686
434,35	6,758
434,57	4,097
434,78	2,115
434,99	5,997
435,20	9,426
435,42	6,228
435,63	9,262
435,84	7,133
436,05	6,534
436,26	7,760
436,48	5,730
436,69	6,112
436,90	7,279
437,11	7,075
437,32	6,726
437,54	2,143
437,75	6,497
437,96	4,803
438,17	7,295
438,38	6,375
438,60	4,505
438,81	5,850
439,02	7,169
439,23	7,328
439,44	5,578
439,66	7,262
439,87	4,190
440,08	4,782
440,29	6,928
440,50	6,802
440,72	4,658
440,93	3,759
441,14	4,084
441,35	4,500
441,56	4,384
441,77	3,670
441,99	6,122
442,20	4,421
442,41	6,630
442,62	6,455
442,83	5,355
443,04	3,501
443,26	2,861
443,47	5,306
443,68	3,148
443,89	5,769
444,10	2,552
444,31	5,060
444,53	3,858
444,74	3,075
444,95	4,089
445,16	3,668
445,37	2,881
445,58	4,639
445,80	4,289
446,01	4,048
446,22	3,196
446,43	2,220
446,64	3,180
446,85	3,257
447,06	2,688
447,28	2,515
447,49	3,554
447,70	2,267
447,91	2,844
448,12	2,586
448,33	3,485
448,54	3,510
448,76	3,206
448,97	3,652
449,18	3,601
449,39	2,906
449,60	2,326
449,81	3,481
450,02	2,689
450,23	2,316
450,45	1,947
450,66	2,078
450,87	2,621
451,08	2,535
451,29	2,754
451,50	1,973
451,71	1,968
451,92	2,866
452,13	2,431
452,35	2,089
452,56	1,402
452,77	1,167
452,98	2,479
453,19	2,291
453,40	1,905
453,61	1,577
453,82	1,851
454,03	1,776
454,25	2,307
454,46	1,481
454,67	1,683
454,88	1,876
455,09	1,422
455,30	2,258
455,51	1,770
455,72	1,362
455,93	1,596
456,14	2,319
456,35	0,973
456,56	1,613
456,78	1,961
456,99	2,168
457,20	1,227
457,41	1,469
457,62	1,576
457,83	1,785
458,04	0,804
458,25	1,540
458,46	1,145
458,67	1,613
458,88	1,149
459,09	1,369
459,30	1,391
459,51	1,313
459,73	0,939
459,94	1,232
460,15	1,229
460,36	1,328
460,57	1,445
460,78	1,171
460,99	1,139
461,20	1,222
461,41	0,957
461,62	0,889
461,83	1,373
462,04	1,146
462,25	1,158
462,46	1,099
462,67	1,036
462,88	1,121
463,09	1,059
463,30	1,159
463,51	1,291
463,72	1,254
463,93	1,142
464,15	1,021
464,36	1,163
464,57	1,016
464,78	1,263
464,99	1,184
465,20	0,866
465,41	1,163
465,62	1,269
465,83	1,238
466,04	0,752
466,25	0,968
466,46	1,153
466,67	1,074
466,88	1,278
467,09	1,040
467,30	1,143
467,51	0,813
467,72	1,060
467,93	1,168
468,14	1,221
468,35	0,976
468,56	1,052
468,77	1,162
468,98	1,159
469,19	1,179
469,40	1,045
469,61	1,212
469,82	1,241
470,03	1,220
470,24	1,217
470,45	1,117
470,66	1,034
470,87	1,354
471,08	1,219
471,29	1,123
471,50	1,213
471,71	1,420
471,92	1,212
472,13	1,231
472,34	1,437
472,55	1,440
472,76	1,077
472,97	1,249
473,18	1,261
473,39	1,402
473,60	1,520
473,81	1,409
474,01	1,210
474,22	1,221
474,43	1,487
474,64	1,587
474,85	1,395
475,06	1,310
475,27	1,225
475,48	1,796
475,69	1,569
475,90	1,489
476,11	1,718
476,32	1,581
476,53	1,558
476,74	1,798
476,95	1,672
477,16	1,917
477,37	1,820
477,58	1,844
477,79	2,029
478,00	1,669
478,21	2,067
478,41	1,959
478,62	1,864
478,83	1,682
479,04	1,834
479,25	1,926
479,46	1,944
479,67	2,202
479,88	1,934
480,09	1,953
480,30	2,022
480,51	2,078
480,72	2,338
480,93	2,314
481,14	1,924
481,34	2,242
481,55	2,017
481,76	1,793
481,97	2,353
482,18	2,205
482,39	2,261
482,60	2,022
482,81	2,098
483,02	1,976
483,23	2,436
483,44	2,261
483,65	2,343
483,85	2,355
484,06	2,535
484,27	2,291
484,48	2,306
484,69	2,493
484,90	2,279
485,11	2,299
485,32	2,165
485,53	2,596
485,73	2,292
485,94	2,471
486,15	2,345
486,36	2,488
486,57	2,432
486,78	2,397
486,99	2,549
487,20	2,462
487,41	2,597
487,61	2,295
487,82	2,645
488,03	2,618
488,24	2,315
488,45	2,530
488,66	2,640
488,87	2,557
489,08	2,356
489,28	2,844
489,49	2,466
489,70	2,724
489,91	2,557
490,12	2,703
490,33	2,425
490,54	2,448
490,74	2,630
490,95	2,541
491,16	2,658
491,37	2,856
491,58	2,683
491,79	2,770
492,00	2,444
492,20	2,721
492,41	2,426
492,62	2,691
492,83	2,793
493,04	2,957
493,25	2,886
493,45	2,718
493,66	2,839
493,87	2,681
494,08	2,774
494,29	2,839
494,50	2,876
494,70	2,740
494,91	2,863
495,12	2,829
495,33	2,984
495,54	2,996
495,75	2,883
495,95	2,972
496,16	2,986
496,37	3,264
496,58	2,869
496,79	2,839
496,99	2,724
497,20	2,863
497,41	2,811
497,62	2,755
497,83	2,941
498,04	3,034
498,24	2,723
498,45	2,994
498,66	3,067
498,87	3,030
499,08	3,121
499,28	3,090
499,49	3,233
499,70	3,143
499,91	2,792
500,12	3,207
500,32	3,050
500,53	2,995
500,74	3,239
500,95	3,155
501,15	3,244
501,36	3,144
501,57	2,782
501,78	3,092
501,99	3,063
502,19	3,048
502,40	3,046
502,61	3,493
502,82	3,260
503,02	3,274
503,23	3,269
503,44	3,137
503,65	3,301
503,86	3,411
504,06	3,234
504,27	3,572
504,48	3,232
504,69	3,226
504,89	3,367
505,10	3,296
505,31	3,336
505,52	3,320
505,72	3,353
505,93	3,488
506,14	3,442
506,35	3,444
506,55	3,209
506,76	3,384
506,97	3,347
507,18	3,433
507,38	3,535
507,59	3,414
507,80	3,661
508,01	3,657
508,21	3,406
508,42	3,774
508,63	3,459
508,84	3,385
509,04	3,839
509,25	3,772
509,46	3,729
509,67	3,695
509,87	3,352
510,08	3,555
510,29	3,432
510,49	3,559
510,70	3,808
510,91	3,793
511,12	3,626
511,32	4,073
511,53	3,644
511,74	3,727
511,94	3,653
512,15	3,834
512,36	3,827
512,57	3,961
512,77	3,795
512,98	3,900
513,19	3,620
513,39	3,814
513,60	3,646
513,81	3,705
514,01	3,660
514,22	3,526
514,43	3,874
514,64	3,915
514,84	3,864
515,05	4,020
515,26	3,940
515,46	4,277
515,67	4,004
515,88	4,155
516,08	3,639
516,29	4,126
516,50	3,951
516,70	4,218
516,91	4,005
517,12	4,039
517,32	4,086
517,53	4,072
517,74	4,291
517,95	4,517
518,15	4,197
518,36	4,295
518,57	4,270
518,77	4,445
518,98	4,397
519,19	4,646
519,39	4,400
519,60	4,361
519,80	4,330
520,01	4,491
520,22	4,287
520,42	4,324
520,63	4,112
520,84	4,267
521,04	4,497
521,25	4,493
521,46	4,506
521,66	4,406
521,87	4,397
522,08	4,315
522,28	4,412
522,49	4,923
522,70	4,619
522,90	4,489
523,11	4,639
523,31	4,938
523,52	4,835
523,73	4,511
523,93	4,774
524,14	4,778
524,35	5,141
524,55	5,044
524,76	4,680
524,97	4,990
525,17	5,072
525,38	5,160
525,58	4,970
525,79	5,180
526,00	5,314
526,20	5,407
526,41	5,167
526,61	5,123
526,82	5,181
527,03	5,502
527,23	5,518
527,44	5,187
527,64	5,307
527,85	5,397
528,06	5,437
528,26	5,491
528,47	5,495
528,68	5,135
528,88	5,134
529,09	5,456
529,29	5,422
529,50	5,675
529,70	5,119
529,91	5,128
530,12	5,672
530,32	5,640
530,53	5,645
530,73	5,895
530,94	5,645
531,15	5,659
531,35	5,515
531,56	5,699
531,76	5,827
531,97	5,580
532,17	5,768
532,38	6,267
532,59	5,983
532,79	6,043
533,00	5,968
533,20	6,021
533,41	5,735
533,61	6,177
533,82	6,213
534,03	6,310
534,23	5,965
534,44	6,218
534,64	5,792
534,85	6,511
535,05	6,199
535,26	5,998
535,46	6,298
535,67	6,199
535,88	6,489
536,08	6,474
536,29	5,884
536,49	6,575
536,70	6,511
536,90	6,619
537,11	6,440
537,31	6,516
537,52	6,675
537,72	6,788
537,93	6,495
538,13	6,685
538,34	6,684
538,55	6,723
538,75	6,531
538,96	6,657
539,16	6,542
539,37	6,631
539,57	6,196
539,78	6,206
539,98	6,525
540,19	6,663
540,39	6,754
540,60	6,660
540,80	6,379
541,01	6,867
541,21	6,971
541,42	7,047
541,62	6,705
541,83	6,703
542,03	6,702
542,24	6,775
542,44	6,698
542,65	6,954
542,85	6,934
543,06	7,049
543,26	7,139
543,47	7,251
543,67	6,997
543,88	7,439
544,08	7,228
544,29	6,712
544,49	7,699
544,70	7,339
544,90	7,209
545,11	7,320
545,31	7,484
545,52	7,249
545,72	7,336
545,93	7,313
546,13	7,507
546,34	7,291
546,54	7,477
546,75	7,371
546,95	7,164
547,15	7,349
547,36	7,323
547,56	7,785
547,77	7,349
547,97	7,392
548,18	7,160
548,38	7,621
548,59	7,466
548,79	7,591
549,00	7,777
549,20	7,574
549,41	7,725
549,61	7,838
549,81	7,603
550,02	7,692
550,22	8,015
550,43	7,801
550,63	7,852
550,84	8,171
551,04	7,530
551,25	7,817
551,45	7,789
551,65	7,560
551,86	7,315
552,06	7,878
552,27	8,380
552,47	7,939
552,68	8,174
552,88	7,922
553,08	7,357
553,29	7,827
553,49	7,792
553,70	7,737
553,90	7,425
554,11	7,932
554,31	8,093
554,51	8,132
554,72	8,029
554,92	8,122
555,13	8,248
555,33	8,107
555,53	7,923
555,74	7,926
555,94	7,976
556,15	8,528
556,35	7,888
556,56	8,450
556,76	7,923
556,96	8,323
557,17	8,099
557,37	7,850
557,58	8,075
557,78	7,995
557,98	8,064
558,19	7,863
558,39	8,367
558,59	8,185
558,80	8,123
559,00	8,040
559,21	7,814
559,41	8,168
559,61	8,014
559,82	8,229
560,02	7,823
560,23	8,221
560,43	8,393
560,63	8,128
560,84	7,846
561,04	8,106
561,24	7,913
561,45	8,403
561,65	7,816
561,85	8,430
562,06	8,116
562,26	8,224
562,47	7,898
562,67	8,133
562,87	8,272
563,08	8,059
563,28	8,305
563,48	8,378
563,69	8,404
563,89	8,314
564,09	8,814
564,30	8,062
564,50	8,446
564,70	8,368
564,91	8,283
565,11	8,260
565,31	8,490
565,52	8,193
565,72	8,297
565,92	8,556
566,13	7,810
566,33	8,330
566,53	8,286
566,74	7,938
566,94	8,113
567,14	8,206
567,35	8,090
567,55	8,056
567,75	8,009
567,96	8,300
568,16	8,286
568,36	8,357
568,57	7,988
568,77	8,349
568,97	8,392
569,18	8,467
569,38	8,730
569,58	8,159
569,79	8,545
569,99	8,637
570,19	8,346
570,39	8,538
570,60	8,680
570,80	8,783
571,00	8,481
571,21	8,600
571,41	8,612
571,61	8,308
571,82	8,653
572,02	8,981
572,22	8,247
572,42	8,218
572,63	8,294
572,83	8,328
573,03	8,379
573,24	7,825
573,44	8,220
573,64	8,470
573,84	8,709
574,05	8,172
574,25	8,432
574,45	8,484
574,66	8,133
574,86	8,254
575,06	8,156
575,26	8,118
575,47	8,307
575,67	8,669
575,87	8,747
576,07	8,340
576,28	8,213
576,48	8,669
576,68	8,197
576,88	8,279
577,09	8,005
577,29	8,314
577,49	8,196
577,69	8,699
577,90	8,522
578,10	8,065
578,30	8,100
578,50	8,379
578,71	8,231
578,91	8,366
579,11	8,163
579,31	8,266
579,52	8,079
579,72	8,237
579,92	7,922
580,12	8,399
580,33	7,589
580,53	8,215
580,73	7,891
580,93	8,186
581,13	8,087
581,34	7,840
581,54	8,038
581,74	8,197
581,94	7,987
582,15	8,170
582,35	8,270
582,55	8,025
582,75	7,954
582,95	7,912
583,16	7,963
583,36	7,816
583,56	8,112
583,76	8,201
583,96	8,229
584,17	8,099
584,37	8,044
584,57	8,380
584,77	7,869
584,97	7,942
585,18	7,959
585,38	7,756
585,58	7,812
585,78	7,878
585,98	7,638
586,19	7,809
586,39	8,121
586,59	8,110
586,79	7,536
586,99	8,075
587,20	8,045
587,40	7,781
587,60	7,379
587,80	7,690
588,00	7,443
588,20	7,500
588,41	7,534
588,61	7,349
588,81	7,372
589,01	7,606
589,21	7,812
589,41	7,568
589,62	7,700
589,82	7,733
590,02	7,493
590,22	7,636
590,42	7,531
590,62	7,543
590,83	7,646
591,03	7,448
591,23	7,516
591,43	7,439
591,63	7,393
591,83	7,376
592,03	7,166
592,24	7,231
592,44	7,134
592,64	7,435
592,84	7,159
593,04	7,415
593,24	7,153
593,44	6,724
593,65	7,281
593,85	7,176
594,05	7,131
594,25	6,975
594,45	6,971
594,65	6,913
594,85	6,962
595,06	7,036
595,26	7,095
595,46	7,163
595,66	6,829
595,86	7,296
596,06	7,002
596,26	6,978
596,46	7,313
596,66	6,857
596,87	7,004
597,07	7,267
597,27	6,939
597,47	6,958
597,67	7,007
597,87	7,239
598,07	7,389
598,27	7,246
598,47	7,036
598,67	7,106
598,88	7,345
599,08	7,224
599,28	7,772
599,48	7,636
599,68	7,300
599,88	7,590
600,08	7,674
600,28	7,931
600,48	7,508
600,68	7,990
600,88	7,868
601,09	7,987
601,29	7,516
601,49	7,609
601,69	8,027
601,89	8,090
602,09	8,274
602,29	7,993
602,49	7,921
602,69	8,264
602,89	8,149
603,09	8,237
603,29	8,125
603,49	8,061
603,69	7,965
603,90	8,257
604,10	7,937
604,30	7,807
604,50	8,256
604,70	7,883
604,90	7,836
605,10	8,394
605,30	8,271
605,50	8,326
605,70	8,605
605,90	8,708
606,10	8,439
606,30	8,532
606,50	8,459
606,70	8,299
606,90	8,555
607,10	8,561
607,30	8,562
607,50	8,472
607,70	8,717
607,90	8,652
608,10	8,463
608,30	8,333
608,50	7,883
608,70	8,269
608,90	8,481
609,11	8,269
609,31	8,687
609,51	8,334
609,71	8,458
609,91	8,545
610,11	8,515
610,31	8,431
610,51	8,154
610,71	8,243
610,91	8,222
611,11	8,507
611,31	8,402
611,51	8,659
611,71	8,353
611,91	8,199
612,11	8,418
612,31	8,542
612,51	8,487
612,71	8,770
612,91	8,942
613,11	8,427
613,31	8,656
613,51	8,732
613,71	8,665
613,91	8,815
614,11	8,684
614,31	8,514
614,50	8,866
614,70	8,408
614,90	8,358
615,10	8,481
615,30	8,576
615,50	8,330
615,70	8,754
615,90	8,909
616,10	8,855
616,30	8,476
616,50	8,786
616,70	8,438
616,90	9,072
617,10	8,743
617,30	8,851
617,50	8,854
617,70	8,825
617,90	9,030
618,10	8,517
618,30	8,737
618,50	8,189
618,70	8,556
618,90	8,964
619,10	8,805
619,30	8,934
619,49	8,778
619,69	8,904
619,89	8,736
620,09	8,981
620,29	8,720
620,49	8,624
620,69	8,528
620,89	9,121
621,09	8,743
621,29	8,918
621,49	8,521
621,69	8,890
621,89	8,899
622,09	8,678
622,29	8,898
622,48	8,612
622,68	8,570
622,88	8,905
623,08	8,910
623,28	9,047
623,48	8,747
623,68	9,064
623,88	8,869
624,08	9,375
624,28	9,085
624,48	9,057
624,67	8,750
624,87	8,838
625,07	8,875
625,27	9,039
625,47	9,029
625,67	8,958
625,87	8,902
626,07	8,940
626,27	8,875
626,47	9,065
626,66	9,253
626,86	9,361
627,06	8,998
627,26	8,744
627,46	9,331
627,66	9,123
627,86	9,464
628,06	9,363
628,25	8,700
628,45	8,606
628,65	9,028
628,85	8,920
629,05	9,153
629,25	9,104
629,45	8,873
629,65	9,216
629,84	9,016
630,04	9,815
630,24	9,459
630,44	9,589
630,64	9,437
630,84	9,677
631,04	9,398
631,23	9,574
631,43	9,339
631,63	9,248
631,83	9,022
632,03	9,257
632,23	9,106
632,42	9,448
632,62	9,396
632,82	9,333
633,02	9,367
633,22	9,537
633,42	9,642
633,62	9,592
633,81	9,429
634,01	9,845
634,21	9,512
634,41	9,762
634,61	9,563
634,80	9,794
635,00	9,651
635,20	9,731
635,40	9,887
635,60	9,845
635,80	9,935
635,99	9,628
636,19	9,783
636,39	9,938
636,59	9,975
636,79	10,206
636,98	9,717
637,18	9,675
637,38	9,875
637,58	9,726
637,78	10,305
637,97	10,046
638,17	10,295
638,37	10,477
638,57	10,215
638,77	10,224
638,96	10,626
639,16	10,491
639,36	10,227
639,56	10,653
639,76	10,686
639,95	11,071
640,15	10,894
640,35	11,231
640,55	11,220
640,75	11,114
640,94	11,198
641,14	11,547
641,34	11,914
641,54	11,820
641,73	12,082
641,93	12,533
642,13	13,179
642,33	13,423
642,53	13,924
642,72	14,449
642,92	15,062
643,12	15,919
643,32	16,946
643,51	17,865
643,71	19,239
643,91	21,051
644,11	23,293
644,30	25,526
644,50	28,603
644,70	32,290
644,90	36,555
645,09	40,943
645,29	45,924
645,49	50,994
645,69	55,441
645,88	59,507
646,08	62,678
646,28	66,488
646,48	68,612
646,67	70,738
646,87	72,750
647,07	74,184
647,26	77,153
647,46	79,361
647,66	80,513
647,86	82,120
648,05	83,062
648,25	84,142
648,45	84,325
648,65	84,276
648,84	83,701
649,04	85,561
649,24	85,262
649,43	84,867
649,63	84,633
649,83	85,267
650,03	85,823
650,22	85,043
650,42	85,022
650,62	86,133
650,81	85,258
651,01	86,141
651,21	85,498
651,40	86,422
651,60	85,816
651,80	85,730
652,00	85,625
652,19	85,475
652,39	85,232
652,59	84,620
652,78	86,371
652,98	85,243
653,18	86,100
653,37	85,330
653,57	84,926
653,77	85,260
653,96	84,310
654,16	84,654
654,36	83,566
654,55	83,217
654,75	82,466
654,95	81,907
655,14	81,069
655,34	80,194
655,54	79,685
655,73	77,693
655,93	75,484
656,13	73,803
656,32	70,401
656,52	67,513
656,72	63,763
656,91	59,286
657,11	55,577
657,31	51,299
657,50	46,935
657,70	42,313
657,90	38,438
658,09	35,320
658,29	32,944
658,49	29,820
658,68	26,920
658,88	23,890
659,07	21,749
659,27	19,894
659,47	18,140
659,66	15,785
659,86	14,781
660,06	14,091
660,25	12,867
660,45	12,240
660,64	11,236
660,84	11,296
661,04	10,884
661,23	10,302
661,43	9,934
661,63	10,094
661,82	9,492
662,02	9,813
662,21	9,848
662,41	9,783
662,61	9,692
662,80	9,230
663,00	9,241
663,19	9,383
663,39	9,349
663,59	9,292
663,78	9,530
663,98	9,258
664,17	9,079
664,37	9,228
664,57	9,123
664,76	9,244
664,96	9,489
665,15	9,093
665,35	9,179
665,55	9,161
665,74	9,087
665,94	8,946
666,13	9,448
666,33	9,082
666,53	9,131
666,72	9,259
666,92	9,381
667,11	9,288
667,31	9,417
667,50	9,136
667,70	9,000
667,90	8,820
668,09	8,979
668,29	8,929
668,48	9,373
668,68	8,929
668,87	8,728
669,07	8,571
669,26	8,906
669,46	8,600
669,66	8,637
669,85	8,845
670,05	8,685
670,24	8,728
670,44	8,888
670,63	9,101
670,83	8,732
671,02	8,628
671,22	9,103
671,42	8,751
671,61	8,819
671,81	9,064
672,00	8,964
672,20	8,944
672,39	8,941
672,59	8,661
672,78	8,898
672,98	8,961
673,17	8,580
673,37	8,907
673,56	8,672
673,76	8,678
673,95	8,833
674,15	8,794
674,34	8,748
674,54	9,179
674,73	8,461
674,93	8,841
675,13	8,670
675,32	8,750
675,52	8,765
675,71	8,949
675,91	8,671
676,10	8,731
676,30	8,973
676,49	9,241
676,69	9,077
676,88	8,956
677,08	9,018
677,27	8,680
677,47	9,178
677,66	9,076
677,86	8,784
678,05	8,863
678,24	8,615
678,44	8,856
678,63	8,981
678,83	8,782
679,02	9,172
679,22	9,222
679,41	8,965
679,61	8,800
679,80	8,881
680,00	8,877
680,19	8,946
680,39	8,746
680,58	8,660
680,78	8,659
680,97	9,103
681,17	8,658
681,36	8,813
681,56	9,081
681,75	8,852
681,94	9,027
682,14	8,759
682,33	8,663
682,53	8,691
682,72	9,302
682,92	8,610
683,11	8,832
683,31	9,012
683,50	9,179
683,69	8,689
683,89	8,620
684,08	8,903
684,28	8,558
684,47	8,830
684,67	8,643
684,86	8,684
685,06	8,839
685,25	8,846
685,44	8,788
685,64	8,951
685,83	8,879
686,03	8,895
686,22	8,968
686,42	9,006
686,61	8,812
686,80	9,102
687,00	8,701
687,19	8,681
687,39	8,608
687,58	8,824
687,77	8,920
687,97	9,250
688,16	9,081
688,36	9,327
688,55	8,794
688,74	8,952
688,94	8,996
689,13	8,770
689,33	8,826
689,52	8,880
689,71	9,470
689,91	8,747
690,10	8,893
690,30	8,749
690,49	8,762
690,68	9,466
690,88	9,026
691,07	9,249
691,27	8,989
691,46	8,892
691,65	8,803
691,85	8,902
692,04	8,611
692,23	9,149
692,43	8,770
692,62	9,210
692,82	8,696
693,01	8,737
693,20	8,729
693,40	8,900
693,59	8,860
693,78	8,956
693,98	8,704
694,17	8,979
694,36	9,048
694,56	9,202
694,75	8,975
694,94	9,349
695,14	8,965
695,33	8,685
695,53	9,033
695,72	8,956
695,91	9,041
696,11	9,144
696,30	8,705
696,49	9,138
696,69	8,740
696,88	8,991
697,07	8,798
697,27	9,266
697,46	8,811
697,65	9,144
697,85	8,893
698,04	9,237
698,23	9,309
698,43	9,301
698,62	8,831
698,81	9,085
699,01	9,403
699,20	8,735
699,39	8,631
699,58	8,655
699,78	8,626
699,97	8,906
700,16	9,005
700,36	8,725
700,55	8,762
700,74	8,812
700,94	8,900
701,13	8,901
701,32	9,101
701,52	9,319
701,71	9,226
701,90	8,965
702,09	9,382
702,29	9,109
702,48	9,048
702,67	9,218
702,87	9,048
703,06	9,434
703,25	8,712
703,44	9,064
703,64	9,115
703,83	9,202
704,02	8,852
704,22	9,176
704,41	9,107
704,60	9,340
704,79	9,284
704,99	9,100
705,18	9,141
705,37	9,118
705,56	8,962
705,76	8,847
705,95	8,904
706,14	9,208
706,33	9,245
706,53	9,272
706,72	9,155
706,91	8,914
707,11	8,926
707,30	9,148
707,49	9,410
707,68	8,996
707,88	9,293
708,07	8,835
708,26	9,179
708,45	8,821
708,64	9,272
708,84	8,973
709,03	9,154
709,22	8,943
709,41	8,892
709,61	9,094
709,80	9,582
709,99	9,357
710,18	9,630
710,38	9,091
710,57	9,959
710,76	9,150
710,95	9,526
711,14	9,363
711,34	9,285
711,53	9,326
711,72	9,220
711,91	9,204
712,11	9,466
712,30	9,651
712,49	9,046
712,68	9,075
712,87	9,136
713,07	9,056
713,26	8,792
713,45	9,126
713,64	9,234
713,83	9,727
714,03	9,414
714,22	9,655
714,41	9,546
714,60	9,315
714,79	9,180
714,99	9,076
715,18	9,412
715,37	9,387
715,56	9,102
715,75	9,395
715,94	9,480
716,14	9,172
716,33	9,710
716,52	8,989
716,71	9,116
716,90	9,112
717,10	8,908
717,29	9,070
717,48	9,202
717,67	8,975
717,86	9,424
718,05	9,139
718,24	9,398
718,44	9,116
718,63	9,299
718,82	9,656
719,01	9,232
719,20	9,086
719,39	8,913
719,59	9,153
719,78	9,245
719,97	9,533
720,16	9,239
720,35	9,337
720,54	9,371
720,73	9,157
720,93	8,925
721,12	9,455
721,31	9,339
721,50	9,656
721,69	9,487
721,88	9,111
722,07	9,532
722,27	9,537
722,46	9,317
722,65	9,555
722,84	9,171
723,03	8,907
723,22	9,165
723,41	9,221
723,60	9,257
723,79	9,199
723,99	9,692
724,18	9,696
724,37	9,153
724,56	9,696
724,75	9,227
724,94	9,278
725,13	9,635
725,32	9,656
725,51	9,397
725,71	10,008
725,90	9,302
726,09	9,283
726,28	9,622
726,47	9,681
726,66	9,401
726,85	9,157
727,04	9,745
727,23	9,407
727,42	9,230
727,61	9,115
727,81	9,264
728,00	9,476
728,19	9,339
728,38	9,290
728,57	9,439
728,76	9,271
728,95	9,206
729,14	9,641
729,33	9,648
729,52	9,314
729,71	9,248
729,90	9,435
730,09	9,303
730,28	9,408
730,48	8,873
730,67	9,415
730,86	9,410
731,05	9,644
731,24	9,612
731,43	9,465
731,62	9,543
731,81	9,752
732,00	9,716
732,19	9,212
732,38	9,366
732,57	9,551
732,76	9,049
732,95	9,533
733,14	9,279
733,33	8,999
733,52	9,380
733,71	9,391
733,90	9,630
734,09	9,503
734,28	9,711
734,47	9,223
734,66	9,257
734,85	9,158
735,04	9,501
735,23	9,494
735,42	9,464
735,61	9,342
735,81	9,854
736,00	9,386
736,19	9,412
736,38	9,578
736,57	8,966
736,76	9,248
736,95	9,060
737,14	9,183
737,33	8,952
737,52	9,287
737,71	9,488
737,90	9,098
738,09	9,474
738,28	9,484
738,47	9,348
738,66	9,617
738,85	9,153
739,04	9,483
739,22	9,911
739,41	9,295
739,60	9,608
739,79	9,414
739,98	9,321
740,17	9,368
740,36	9,385
740,55	9,354
740,74	9,443
740,93	9,664
741,12	9,721
741,31	9,356
741,50	9,127
741,69	9,481
741,88	9,494
742,07	9,362
742,26	9,725
742,45	9,386
742,64	9,897
742,83	10,139
743,02	9,811
743,21	9,245
743,40	9,199
743,59	9,595
743,78	9,760
743,97	9,870
744,16	9,556
744,34	9,438
744,53	9,546
744,72	9,565
744,91	9,293
745,10	9,429
745,29	9,753
745,48	9,161
745,67	9,560
745,86	9,369
746,05	9,612
746,24	9,573
746,43	9,550
746,62	9,815
746,81	10,174
747,00	9,922
747,18	9,358
747,37	9,813
747,56	9,815
747,75	10,391
747,94	9,887
748,13	9,950
748,32	9,698
748,51	10,027
748,70	9,896
748,89	9,726
749,08	9,806
749,26	9,846
749,45	9,506
749,64	9,435
749,83	9,362
750,02	9,704
750,21	9,757
750,40	9,675
750,59	9,626
750,78	9,790
750,96	9,821
751,15	9,967
751,34	9,928
751,53	9,750
751,72	9,757
751,91	9,344
752,10	9,863
752,29	10,046
752,47	9,956
752,66	9,901
752,85	10,247
753,04	10,284
753,23	10,341
753,42	10,282
753,61	10,122
753,80	10,077
753,98	10,018
754,17	10,633
754,36	9,903
754,55	10,169
754,74	9,979
754,93	10,254
755,12	10,154
755,30	9,984
755,49	10,399
755,68	10,418
755,87	10,114
756,06	10,110
756,25	10,193
756,43	10,670
756,62	10,539
756,81	10,547
757,00	10,257
757,19	10,018
757,38	10,044
757,56	9,868
757,75	9,960
757,94	10,021
758,13	9,884
758,32	10,046
758,51	9,999
758,69	10,352
758,88	10,457
759,07	10,671
759,26	10,513
759,45	10,283
759,63	10,097
759,82	10,555
760,01	10,530
760,20	10,378
760,39	10,430
760,57	10,472
760,76	10,191
760,95	10,671
761,14	10,295
761,33	10,678
761,51	10,948
761,70	10,955
761,89	10,581
762,08	10,511
762,27	10,439
762,45	10,864
762,64	11,067
762,83	11,043
763,02	11,521
763,21	11,210
763,39	11,425
763,58	11,755
763,77	11,429
763,96	11,687
764,14	11,475
764,33	11,633
764,52	11,853
764,71	11,839
764,89	12,052
765,08	11,879
765,27	11,702
765,46	11,917
765,65	12,572
765,83	12,124
766,02	12,480
766,21	12,392
766,40	12,417
766,58	12,614
766,77	12,597
766,96	12,542
767,15	13,127
767,33	13,183
767,52	13,497
767,71	13,316
767,90	13,248
768,08	14,106
768,27	13,922
768,46	13,960
768,64	14,088
768,83	14,627
769,02	14,788
769,21	14,779
769,39	15,602
769,58	15,827
769,77	16,765
769,96	17,002
770,14	17,424
770,33	17,892
770,52	18,519
770,70	19,081
770,89	19,761
771,08	21,629
771,27	22,366
771,45	22,923
771,64	24,271
771,83	25,792
772,01	26,987
772,20	28,172
772,39	30,785
772,57	33,327
772,76	34,954
772,95	37,078
773,14	39,776
773,32	44,277
773,51	46,896
773,70	50,039
773,88	53,636
774,07	57,779
774,26	60,243
774,44	63,829
774,63	66,535
774,82	70,240
775,00	72,186
775,19	74,740
775,38	77,309
775,56	79,179
775,75	80,210
775,94	82,060
776,12	83,168
776,31	84,601
776,50	85,100
776,68	86,498
776,87	84,750
777,06	86,697
777,24	86,365
777,43	87,126
777,62	86,344
777,80	88,760
777,99	88,316
778,18	88,143
778,36	88,105
778,55	88,227
778,74	88,370
778,92	87,648
779,11	89,250
779,29	88,250
779,48	87,520
779,67	87,616
779,85	88,302
780,04	88,352
780,23	89,248
780,41	86,958
780,60	89,077
780,79	87,117
780,97	88,881
781,16	88,302
781,34	87,214
781,53	88,501
781,72	90,009
781,90	89,407
782,09	89,698
782,28	90,028
782,46	89,886
782,65	89,123
782,83	88,383
783,02	89,162
783,21	89,160
783,39	89,793
783,58	89,187
783,76	88,467
783,95	88,621
784,14	88,653
784,32	88,104
784,51	87,900
784,69	87,807
784,88	87,811
785,06	88,479
785,25	86,597
785,44	85,401
785,62	86,127
785,81	83,954
785,99	82,400
786,18	80,294
786,37	78,869
786,55	77,012
786,74	74,464
786,92	72,881
787,11	69,635
787,29	68,253
787,48	63,919
787,67	64,260
787,85	59,869
788,04	56,567
788,22	54,219
788,41	51,513
788,59	48,936
788,78	45,401
788,96	43,368
789,15	40,336
789,34	37,929
789,52	36,739
789,71	33,327
789,89	31,730
790,08	29,387
790,26	28,413
790,45	26,356
790,63	25,258
790,82	23,169
791,00	21,977
791,19	20,365
791,38	19,016
791,56	18,378
791,75	16,786
791,93	16,033
792,12	15,502
792,30	14,883
792,49	14,584
792,67	13,369
792,86	12,257
793,04	12,743
793,23	11,973
793,41	11,317
793,60	11,871
793,78	11,357
793,97	11,491
794,15	10,937
794,34	10,777
794,52	11,370
794,71	11,269
794,89	10,232
795,08	11,282
795,26	10,508
795,45	10,519
795,63	10,944
795,82	10,144
796,00	10,205
796,19	10,719
796,37	9,635
796,56	9,528
796,74	9,462
796,93	9,785
797,11	9,728
797,30	10,056
797,48	10,535
797,67	9,894
797,85	10,078
798,04	9,849
798,22	10,203
798,41	10,152
798,59	9,819
798,77	9,976
798,96	10,058
799,14	10,097
799,33	10,094
799,51	9,586
799,70	9,439
799,88	9,200
800,07	9,671
800,25	10,143
800,44	9,340
800,62	9,043
800,80	9,694
800,99	9,800
801,17	9,637
801,36	10,144
801,54	9,658
801,73	9,535
801,91	10,036
802,10	9,791
802,28	10,005
802,46	10,016
802,65	9,936
802,83	9,597
803,02	9,712
803,20	9,719
803,39	10,526
803,57	9,703
803,75	9,858
803,94	10,135
804,12	9,947
804,31	10,328
804,49	10,079
804,67	9,672
804,86	10,257
805,04	9,477
805,23	9,791
805,41	9,724
805,59	9,617
805,78	10,080
805,96	9,472
806,15	9,866
806,33	9,904
806,51	9,354
806,70	9,493
806,88	9,626
807,07	9,672
807,25	10,012
807,43	9,208
807,62	9,349
807,80	9,960
807,99	9,664
808,17	9,079
808,35	9,619
808,54	9,885
808,72	9,788
808,90	9,988
809,09	9,854
809,27	10,048
809,46	10,050
809,64	9,912
809,82	9,026
810,01	10,164
810,19	9,511
810,37	9,351
810,56	9,595
810,74	9,266
810,92	9,520
811,11	9,457
811,29	10,219
811,48	9,558
811,66	9,894
811,84	10,461
812,03	9,657
812,21	9,523
812,39	10,167
812,58	9,656
812,76	10,023
812,94	9,450
813,13	9,149
813,31	9,550
813,49	9,762
813,68	9,815
813,86	9,566
814,04	9,316
814,23	9,294
814,41	9,421
814,59	9,521
814,78	9,196
814,96	9,271
815,14	9,160
815,33	8,997
815,51	9,473
815,69	9,201
815,87	9,603
816,06	9,725
816,24	10,158
816,42	9,508
816,61	9,742
816,79	9,763
816,97	9,850
817,16	9,759
817,34	10,085
817,52	9,019
817,70	9,778
817,89	9,574
818,07	9,300
818,25	8,862
818,44	9,496
818,62	9,493
818,80	9,440
818,98	9,715
819,17	9,233
819,35	8,964
819,53	10,273
819,72	9,504
819,90	9,450
820,08	9,497
820,26	9,625
820,45	9,712
820,63	9,819
820,81	9,360
820,99	9,669
821,18	9,285
821,36	9,132
821,54	10,149
821,73	9,395
821,91	9,602
822,09	9,892
822,27	9,566
822,46	9,588
822,64	9,724
822,82	9,615
823,00	9,438
823,19	9,286
823,37	9,571
823,55	8,811
823,73	9,990
823,91	9,667
824,10	9,536
824,28	9,376
824,46	9,769
824,64	9,057
824,83	9,357
825,01	10,388
825,19	9,399
825,37	10,345
825,56	9,330
825,74	9,027
825,92	9,862
826,10	9,730
826,28	9,765
826,47	9,368
826,65	10,086
826,83	10,274
827,01	9,262
827,19	10,118
827,38	9,580
827,56	9,933
827,74	9,812
827,92	9,862
828,10	9,841
828,29	9,546
828,47	9,331
828,65	9,236
828,83	9,470
829,01	9,472
829,20	9,450
829,38	10,106
829,56	9,414
829,74	9,372
829,92	8,973
830,10	9,264
830,29	9,596
830,47	9,319
830,65	9,205
830,83	10,014
831,01	9,602
831,20	9,331
831,38	9,471
831,56	9,914
831,74	9,780
831,92	9,881
832,10	9,476
832,29	9,922
832,47	9,361
832,65	9,841
832,83	10,348
833,01	10,277
833,19	9,960
833,37	9,895
833,56	9,912
833,74	10,007
833,92	9,439
834,10	10,056
834,28	9,385
834,46	9,703
834,64	9,766
834,83	8,851
835,01	9,094
835,19	9,242
835,37	9,971
835,55	9,688
835,73	9,907
835,91	9,454
836,09	9,750
836,28	9,896
836,46	9,445
836,64	9,251
836,82	9,139
837,00	10,031
837,18	9,751
837,36	9,534
837,54	9,726
837,72	9,258
837,91	9,052
838,09	9,812
838,27	9,227
838,45	9,247
838,63	9,564
838,81	9,565
838,99	9,238
839,17	10,160
839,35	9,914
839,53	9,636
839,72	10,097
839,90	9,970
840,08	10,120
840,26	9,927
840,44	9,864
840,62	10,349
840,80	10,555
840,98	10,026
841,16	9,698
841,34	10,337
841,52	9,826
841,70	10,079
841,89	9,657
842,07	9,932
842,25	9,224
842,43	9,667
842,61	10,002
842,79	9,317
842,97	9,736
843,15	10,174
843,33	10,567
843,51	9,979
843,69	9,685
843,87	9,499
844,05	10,296
844,23	10,366
844,41	10,211
844,59	10,281
844,77	10,045
844,95	9,114
845,13	10,019
845,31	9,738
845,50	9,725
845,68	10,081
845,86	9,646
846,04	9,702
846,22	9,687
846,40	9,563
846,58	9,623
846,76	10,069
846,94	9,891
847,12	9,780
847,30	10,071
847,48	10,531
847,66	9,740
847,84	9,516
848,02	9,054
848,20	9,926
848,38	9,587
848,56	9,940
848,74	10,372
848,92	9,904
849,10	10,078
849,28	9,354
849,46	9,386
849,64	9,929
849,82	9,616
850,00	9,636
850,18	9,432
850,36	10,224
850,54	9,658
850,72	9,364
850,90	10,431
851,08	10,497
851,26	10,008
851,44	9,988
851,62	9,979
851,80	9,463
851,98	9,572
852,16	9,563
852,34	9,523
852,52	9,508
852,70	9,857
852,87	9,796
853,05	9,784
853,23	9,371
853,41	10,006
853,59	9,639
853,77	9,926
853,95	8,994
854,13	8,888
854,31	9,522
854,49	10,355
854,67	9,780
854,85	10,006
855,03	10,122
855,21	10,486
855,39	9,717
855,57	10,775
855,75	10,298
855,93	9,710
856,11	9,473
856,28	9,496
856,46	9,636
856,64	9,272
856,82	10,318
857,00	9,717
857,18	10,016
857,36	10,032
857,54	10,184
857,72	8,945
857,90	10,142
858,08	10,062
858,26	10,557
858,44	10,568
858,61	10,156
858,79	10,124
858,97	10,096
859,15	10,494
859,33	10,411
859,51	10,489
859,69	10,105
859,87	10,363
860,05	10,332
860,23	10,112
860,40	11,406
860,58	9,973
860,76	10,060
860,94	10,883
861,12	10,540
861,30	10,074
861,48	10,576
861,66	11,277
861,84	11,416
862,01	11,010
862,19	10,575
862,37	11,095
862,55	10,753
862,73	11,033
862,91	10,623
863,09	10,323
863,27	10,609
863,44	11,134
863,62	11,372
863,80	11,115
863,98	11,355
864,16	11,556
864,34	11,306
864,52	11,284
864,69	11,713
864,87	11,309
865,05	11,511
865,23	11,673
865,41	12,150
865,59	11,826
865,76	11,580
865,94	12,167
866,12	11,972
866,30	11,959
866,48	12,102
866,66	12,168
866,83	12,464
867,01	12,739
867,19	12,803
867,37	13,842
867,55	12,893
867,73	12,701
867,90	13,355
868,08	13,343
868,26	13,572
868,44	13,425
868,62	13,773
868,79	13,842
868,97	14,109
869,15	14,745
869,33	15,644
869,51	15,553
869,69	15,562
869,86	15,440
870,04	16,087
870,22	16,679
870,40	17,922
870,57	16,938
870,75	17,632
870,93	18,818
871,11	19,981
871,29	21,339
871,46	21,430
871,64	23,152
871,82	23,995
872,00	25,043
872,18	26,232
872,35	28,025
872,53	30,381
872,71	32,526
872,89	33,868
873,06	35,850
873,24	38,585
873,42	40,421
873,60	42,946
873,77	46,361
873,95	48,905
874,13	50,306
874,31	54,247
874,49	56,684
874,66	60,218
874,84	63,239
875,02	66,711
875,20	68,550
875,37	71,703
875,55	74,672
875,73	76,485
875,91	76,723
876,08	77,668
876,26	81,383
876,44	81,268
876,61	82,765
876,79	83,969
876,97	81,048
877,15	81,932
877,32	83,963
877,50	83,672
877,68	85,664
877,86	84,365
878,03	83,887
878,21	85,258
878,39	85,664
878,56	84,018
878,74	82,777
878,92	84,547
879,10	83,795
879,27	84,578
879,45	84,509
879,63	83,393
879,80	85,061
879,98	85,474
880,16	86,209
880,34	85,399
880,51	85,832
880,69	85,036
880,87	85,124
881,04	84,513
881,22	84,574
881,40	85,719
881,57	84,153
881,75	85,194
881,93	84,142
882,10	84,871
882,28	85,052
882,46	83,819
882,63	84,172
882,81	81,650
882,99	81,060
883,16	80,200
883,34	79,190
883,52	77,387
883,69	76,317
883,87	74,368
884,05	71,772
884,22	70,382
884,40	65,968
884,58	65,101
884,75	62,974
884,93	60,345
885,11	57,495
885,28	54,166
885,46	50,514
885,64	47,770
885,81	44,325
885,99	40,578
886,17	37,628
886,34	33,987
886,52	30,497
886,70	27,492
886,87	24,655
887,05	21,633
887,22	19,630
887,40	17,500
887,58	16,163
887,75	14,340
887,93	13,211
888,11	12,570
888,28	11,215
888,46	9,889
888,63	10,414
888,81	10,525
888,99	9,640
889,16	9,197
889,34	9,491
889,51	9,690
889,69	9,081
889,87	9,109
890,04	9,007
890,22	8,886
890,39	9,112
890,57	9,213
890,75	9,413
890,92	9,889
891,10	8,365
891,27	8,260
891,45	8,362
891,63	8,255
891,80	8,322
891,98	9,027
892,15	7,950
892,33	8,123
892,51	8,252
892,68	8,311
892,86	8,689
893,03	8,721
893,21	8,304
893,38	8,224
893,56	8,266
893,74	7,815
893,91	8,652
894,09	8,333
894,26	7,776
894,44	8,042
894,61	7,618
894,79	8,888
894,96	8,387
895,14	8,024
895,32	7,897
895,49	7,662
895,67	7,939
895,84	7,683
896,02	7,656
896,19	8,188
896,37	8,468
896,54	8,157
896,72	8,288
896,89	7,593
897,07	7,916
897,25	8,058
897,42	7,372
897,60	8,430
897,77	7,866
897,95	7,547
898,12	8,256
898,30	7,285
898,47	7,141
898,65	7,343
898,82	7,271
899,00	7,448
899,17	7,085
899,35	7,438
899,52	7,961
899,70	7,658
899,87	8,093
900,05	8,335
900,22	7,379
900,40	7,701
900,57	8,136
900,75	7,875
900,92	7,001
901,10	7,457
901,27	7,885
901,45	7,525
901,62	7,806
901,80	7,304
901,97	7,753
902,15	8,159
902,32	7,356
902,50	7,689
902,67	7,022
902,85	7,264
903,02	7,020
903,20	7,264
903,37	7,844
903,54	7,271
903,72	7,449
903,89	7,372
904,07	7,552
904,24	7,640
904,42	7,149
904,59	7,524
904,77	7,696
904,94	7,530
905,12	7,026
905,29	7,225
905,47	7,657
905,64	7,845
905,81	7,746
905,99	7,384
906,16	6,854
906,34	6,806
906,51	7,438
906,69	7,696
906,86	6,752
907,03	6,846
907,21	7,268
907,38	7,125
907,56	6,813
907,73	7,562
907,91	7,548
908,08	6,923
908,25	7,581
908,43	6,897
908,60	6,789
908,78	6,733
908,95	7,132
909,13	6,765
909,30	5,951
909,47	6,467
909,65	6,711
909,82	6,989
910,00	7,080
910,17	6,585
910,34	6,656
910,52	6,596
910,69	7,187
910,87	6,707
911,04	6,943
911,21	7,063
911,39	6,283
911,56	6,766
911,73	6,919
911,91	6,810
912,08	6,864
912,26	6,479
912,43	7,626
912,60	7,100
912,78	6,777
912,95	7,103
913,13	6,310
913,30	6,712
913,47	6,348
913,65	6,700
913,82	6,861
913,99	6,309
914,17	7,278
914,34	6,389
914,51	6,777
914,69	6,353
914,86	7,709
915,03	6,452
915,21	6,349
915,38	6,184
915,56	6,924
915,73	5,439
915,90	6,652
916,08	6,476
916,25	6,166
916,42	6,647
916,60	6,279
916,77	6,032
916,94	6,436
917,12	6,680
917,29	6,345
917,46	6,683
917,64	6,166
917,81	5,977
917,98	6,620
918,16	5,673
918,33	6,449
918,50	5,871
918,67	6,130
918,85	5,859
919,02	5,727
919,19	6,465
919,37	5,856
919,54	6,174
919,71	6,227
919,89	6,526
920,06	6,706
920,23	5,896
920,41	6,124
920,58	6,140
920,75	5,956
920,92	5,587
921,10	6,114
921,27	5,831
921,44	5,912
921,62	6,136
921,79	6,171
921,96	6,321
922,13	6,660
922,31	6,247
922,48	6,057
922,65	5,923
922,82	6,417
923,00	5,720
923,17	5,371
923,34	5,694
923,52	5,897
923,69	5,942
923,86	6,307
924,03	5,070
924,21	5,378
924,38	5,500
924,55	5,359
924,72	5,263
924,90	6,148
925,07	5,410
925,24	5,341
925,41	5,379
925,59	5,587
925,76	5,378
925,93	5,514
926,10	4,803
926,28	5,271
926,45	5,459
926,62	5,188
926,79	4,876
926,96	4,994
927,14	5,680
927,31	5,600
927,48	5,385
927,65	6,080
927,83	5,414
928,00	5,306
928,17	5,447
928,34	5,343
928,51	5,279
928,69	5,242
928,86	5,440
929,03	5,278
929,20	4,789
929,37	5,070
929,55	5,496
929,72	5,351
929,89	4,976
930,06	4,714
930,23	5,228
930,41	4,723
930,58	5,190
930,75	5,177
930,92	5,267
931,09	5,059
931,27	4,907
931,44	5,556
931,61	4,759
931,78	4,791
931,95	5,276
932,12	5,526
932,30	5,347
932,47	5,361
932,64	4,593
932,81	4,538
932,98	5,005
933,16	4,992
933,33	5,566
933,50	4,665
933,67	5,109
933,84	4,527
934,01	4,819
934,18	4,436
934,36	4,560
934,53	4,662
934,70	4,949
934,87	5,256
935,04	5,476
935,21	5,039
935,38	4,455
935,56	4,949
935,73	4,603
935,90	4,764
936,07	5,437
936,24	4,815
936,41	5,512
936,58	4,474
936,76	5,264
936,93	4,974
937,10	4,158
937,27	4,566
937,44	5,087
937,61	5,657
937,78	3,918
937,95	5,210
938,13	4,916
938,30	4,531
938,47	4,813
938,64	4,914
938,81	4,504
938,98	4,648
939,15	4,336
939,32	4,296
939,49	4,587
939,66	4,748
939,84	5,236
940,01	4,698
940,18	4,142
940,35	4,280
940,52	4,107
940,69	3,919
940,86	5,272
941,03	4,252
941,20	4,632
941,37	4,660
941,54	4,345
941,71	4,602
941,89	5,457
942,06	4,581
942,23	4,292
942,40	4,634
942,57	5,030
942,74	4,635
942,91	4,786
943,08	4,191
943,25	4,511
943,42	3,681
943,59	5,205
943,76	4,568
943,93	3,955
944,10	4,652
944,27	4,178
944,44	5,286
944,61	5,079
944,79	5,161
944,96	5,214
945,13	4,051
945,30	4,223
945,47	3,856
945,64	4,411
945,81	4,440
945,98	4,248
946,15	4,677
946,32	4,505
946,49	4,427
946,66	4,403
946,83	4,492
947,00	5,092
947,17	5,183
947,34	4,755
947,51	4,508
947,68	4,960
947,85	4,528
948,02	5,048
948,19	4,217
948,36	4,597
948,53	3,890
948,70	4,996
948,87	4,819
949,04	3,500
949,21	4,368
949,38	4,543
949,55	4,953
949,72	4,753
949,89	4,458
950,06	4,653
950,23	4,597
950,40	5,269
950,57	4,648
950,74	4,655
950,91	4,165
951,08	5,457
951,25	5,192
951,42	4,736
951,59	4,876
951,76	5,004
951,93	4,556
952,10	5,491
952,27	4,894
952,44	5,673
952,61	5,427
952,77	5,967
952,94	5,297
953,11	5,293
953,28	4,632
953,45	4,802
953,62	5,747
953,79	4,967
953,96	4,475
954,13	6,084
954,30	6,111
954,47	5,519
954,64	5,500
954,81	5,311
954,98	6,330
955,15	5,352
955,32	4,903
955,49	5,074
955,65	5,489
955,82	5,767
955,99	6,224
956,16	5,983
956,33	6,307
956,50	5,745
956,67	5,227
956,84	6,240
957,01	5,588
957,18	5,786
957,35	5,704
957,52	5,682
957,68	5,713
957,85	6,160
958,02	6,686
958,19	6,263
958,36	6,505
958,53	7,119
958,70	7,008
958,87	5,773
959,04	6,030
959,21	5,850
959,37	6,189
959,54	6,964
959,71	5,211
959,88	7,029
960,05	5,982
960,22	6,557
960,39	5,337
960,56	6,792
960,72	7,561
960,89	8,499
961,06	6,796
961,23	6,834
961,40	8,493
961,57	6,065
961,74	6,663
961,90	8,103
962,07	8,066
962,24	7,742
962,41	5,939
962,58	5,816
962,75	6,533
962,92	6,917
963,08	6,878
963,25	8,611
963,42	7,105
963,59	6,336
963,76	7,132
963,93	7,752
964,10	7,013
964,26	7,168
964,43	5,960
964,60	5,556
964,77	7,268
964,94	8,249
965,10	5,973
965,27	6,969
965,44	8,150
965,61	7,797
965,78	8,363
965,95	7,394
966,11	8,697
966,28	7,550
966,45	8,008
966,62	7,241
966,79	6,343
966,95	6,912
967,12	8,485
967,29	6,699
967,46	8,120
967,63	6,508
967,79	7,968
967,96	7,677
968,13	5,954
968,30	7,623
968,47	6,479
968,63	7,993
968,80	8,818
968,97	7,736
969,14	6,415
969,31	6,709
969,47	8,370
969,64	6,105
969,81	7,268
969,98	6,036
970,14	7,260
970,31	8,479
970,48	8,556
970,65	7,501
970,81	7,503
970,98	8,302
971,15	7,920
971,32	7,536
971,48	7,314
971,65	7,792
971,82	8,610
971,99	7,710
972,15	7,680
972,32	8,547
972,49	8,471
972,66	6,927
972,82	7,726
972,99	8,423
973,16	8,970
973,33	6,164
973,49	8,317
973,66	6,760
973,83	7,011
974,00	7,554
974,16	9,557
974,33	7,915
974,50	7,851
974,67	8,113
974,83	7,065
975,00	7,453
975,17	8,596
975,33	8,449
975,50	9,012
975,67	4,237
975,84	7,388
976,00	9,350
976,17	6,880
976,34	6,375
976,50	8,319
976,67	6,612
976,84	7,454
977,00	7,116
977,17	9,480
977,34	7,546
977,50	8,089
977,67	7,116
977,84	7,247
978,01	8,649
978,17	8,636
978,34	8,550
978,51	6,424
978,67	7,122
978,84	7,786
979,01	6,465
979,17	9,152
979,34	11,581
979,51	9,058
979,67	8,241
979,84	6,527
980,01	8,352
980,17	8,983
980,34	8,676
980,51	7,407
980,67	9,882
980,84	7,648
981,01	7,646
981,17	7,012
981,34	8,100
981,50	6,550
981,67	9,849
981,84	6,758
982,00	5,586
982,17	9,942
982,34	8,117
982,50	8,685
982,67	7,255
982,84	6,489
983,00	8,070
983,17	8,291
983,33	9,180
983,50	8,133
983,67	8,672
983,83	9,238
984,00	8,134
984,17	9,240
984,33	6,965
984,50	7,558
984,66	8,100
984,83	9,414
985,00	7,078
985,16	8,917
985,33	8,798
985,49	10,545
985,66	10,576
985,83	5,285
985,99	8,307
986,16	9,063
986,32	10,729
986,49	8,408
986,66	9,317
986,82	8,446
986,99	7,339
987,15	7,162
987,32	8,489
987,49	6,632
987,65	7,991
987,82	5,692
987,98	6,534
988,15	7,320
988,31	7,078
988,48	7,783
988,65	6,002
988,81	7,598
988,98	7,738
989,14	6,828
989,31	9,845
989,47	7,831
989,64	8,726
989,80	8,483
989,97	12,383
990,14	9,223
990,30	9,178
990,47	10,851
990,63	9,657
990,80	8,580
990,96	9,421
991,13	8,215
991,29	6,682
991,46	8,310
991,62	10,775
991,79	6,439
991,95	9,742
992,12	6,995
992,29	8,708
992,45	5,805
992,62	7,878
992,78	7,172
992,95	10,046
993,11	9,674
993,28	7,935
993,44	6,268
993,61	8,477
993,77	6,310
993,94	9,713
994,10	6,640
994,27	7,208
994,43	10,132
994,60	6,886
994,76	7,778
994,93	5,474
995,09	10,749
995,26	8,442
995,42	5,839
995,59	6,810
995,75	9,667
995,92	6,971
996,08	11,897
996,25	8,328
996,41	7,925
996,58	8,187
996,74	9,860
996,91	7,962
997,07	6,671
997,23	9,591
997,40	8,345
997,56	5,974
997,73	8,384
997,89	5,993
998,06	8,056
998,22	5,903
998,39	6,826
998,55	9,543
998,72	5,116
998,88	7,635
999,05	9,299
999,21	6,489
999,37	7,636
999,54	8,517
999,70	9,867
999,87	8,659
1000,03	8,669
1000,20	9,792
1000,36	9,064
1000,52	8,063
1000,69	9,261
1000,85	9,315
1001,02	7,608
1001,18	9,871
1001,35	10,939
1001,51	6,876
1001,67	8,377
1001,84	8,787
1002,00	2,972
1002,17	10,235
1002,33	6,891
1002,50	7,410
1002,66	7,662
1002,82	5,431
1002,99	6,225
1003,15	8,400
1003,32	10,474
1003,48	8,177
1003,64	6,441
1003,81	10,830
1003,97	9,688
1004,14	9,219
1004,30	8,115
1004,46	9,377
1004,63	11,655
1004,79	9,911
1004,95	7,666
1005,12	7,243
1005,28	7,929
1005,45	10,764
1005,61	8,306
1005,77	7,309
1005,94	8,770
1006,10	9,601
1006,26	8,814
1006,43	11,439
1006,59	3,787
1006,76	9,202
1006,92	10,092
1007,08	8,630
1007,25	7,192
1007,41	9,752
1007,57	8,692
1007,74	9,590
1007,90	9,899
1008,06	8,969
1008,23	12,478
1008,39	6,860
1008,55	5,213
1008,72	6,739
1008,88	4,856
1009,04	9,022
1009,21	5,144
1009,37	7,187
1009,53	10,213
1009,70	6,090
1009,86	9,346
1010,02	8,040
1010,19	8,596
1010,35	6,137
1010,51	5,197
1010,68	12,628
1010,84	4,472
1011,00	10,517
1011,17	11,978
1011,33	7,491
1011,49	6,012
1011,66	8,929
1011,82	8,442
1011,98	3,063
1012,14	9,065
1012,31	10,477
1012,47	11,060
1012,63	8,044
1012,80	6,968
1012,96	8,606
1013,12	6,549
1013,29	12,808
1013,45	7,234
1013,61	7,799
1013,77	8,105
1013,94	9,155
1014,10	10,429
1014,26	3,763
1014,43	6,468
1014,59	5,464
1014,75	6,356
1014,91	10,000
1015,08	8,560
1015,24	9,451
1015,40	11,134
1015,56	6,632
1015,73	6,768
1015,89	3,594
1016,05	3,371
1016,21	7,717
1016,38	9,475
1016,54	9,365
1016,70	11,262
1016,86	7,906
1017,03	1,304
1017,19	5,779
1017,35	8,484
1017,51	1,996
1017,68	9,432
1017,84	7,388
1018,00	11,551
1018,16	9,297
1018,33	8,944
1018,49	3,859
1018,65	5,689
1018,81	10,345
1018,97	6,818
1019,14	9,193
1019,30	9,156
1019,46	11,276
1019,62	1,933
1019,79	7,292
1019,95	6,152
1020,11	8,057
1020,27	4,485
1020,43	14,286
1020,60	7,639
1020,76	9,610
1020,92	0,129
1021,08	5,006
1021,24	11,693
1021,41	3,089
1021,57	6,192
1021,73	3,990
1021,89	8,657
1022,05	13,012
1022,21	5,044
1022,38	7,515
1022,54	7,284
1022,70	8,547
1022,86	4,255
1023,02	11,125
1023,19	3,714
1023,35	5,041
1023,51	15,441
1023,67	9,580
1023,83	12,515
1023,99	16,838
1024,16	6,834
1024,32	-1,220
1024,48	9,091
1024,64	4,119
1024,80	2,483
1024,96	5,007
1025,12	10,506
1025,29	11,881
1025,45	11,921
1025,61	8,609
1025,77	5,217
1025,93	6,855
1026,09	10,670
1026,26	6,287
1026,42	8,197
1026,58	9,402
1026,74	-0,706
1026,90	10,470
1027,06	4,956
1027,22	11,983
1027,38	2,279
1027,55	14,056
1027,71	7,174
1027,87	10,460
1028,03	10,231
1028,19	2,346
1028,35	7,344
1028,51	6,706
1028,67	10,241
1028,83	5,368
1029,00	10,922
1029,16	10,448
1029,32	4,776
1029,48	3,402
1029,64	5,405
1029,80	13,300
1029,96	-1,942
1030,12	3,292
1030,28	1,176
1030,44	7,989
1030,61	2,532
1030,77	9,578
1030,93	9,502
1031,09	13,731
1031,25	4,034
1031,41	10,748
1031,57	3,877
1031,73	-1,951
1031,89	2,483
1032,05	9,569
1032,21	3,333
1032,37	-0,368
1032,53	14,217
1032,69	9,131
1032,86	-3,640
1033,02	8,094
1033,18	-3,767
1033,34	4,028
1033,50	13,689
1033,66	7,790
1033,82	6,667
1033,98	8,468
1034,14	4,904
1034,30	-2,901
1034,46	6,082
1034,62	10,095
1034,78	9,794
1034,94	8,333
1035,10	7,749
1035,26	4,472
1035,42	2,429
1035,58	9,774
1035,74	7,400
1035,90	5,049
1036,06	-7,835
1036,22	19,464
1036,38	11,753
1036,54	1,789
1036,70	5,210
1036,86	14,176
1037,02	3,048
1037,18	5,660
1037,34	6,754
1037,50	4,339
1037,66	13,807
1037,82	4,246
1037,98	8,539
1038,14	11,727
1038,30	3,143
1038,46	-3,059
1038,62	3,782
1038,78	6,735
1038,94	3,594
1039,10	7,588
1039,26	-3,016
1039,42	21,844
1039,58	1,109
1039,74	-1,152
1039,90	4,637
1040,06	10,638
>>>>>End Processed Spectral Data<<<<<
