SpectraSuite Data File
++++++++++++++++++++++++++++++++++++
Date: Thu Feb 02 18:07:31 EET 2017
User: optolab
Dark Spectrum Present: Yes
Reference Spectrum Present: Yes
Number of Sampled Component Spectra: 1
Spectrometers: USB4C02475
Integration Time (usec): 100000 (USB4C02475)
Spectra Averaged: 1 (USB4C02475)
Boxcar Smoothing: 0 (USB4C02475)
Correct for Electrical Dark: No (USB4C02475)
Strobe/Lamp Enabled: No (USB4C02475)
Correct for Detector Non-linearity: No (USB4C02475)
Correct for Stray Light: No (USB4C02475)
Number of Pixels in Processed Spectrum: 3648
>>>>>Begin Processed Spectral Data<<<<<
344,91	-1250,000
345,13	-1250,000
345,35	-1250,000
345,57	-176,471
345,79	-26,087
346,00	-138,235
346,22	-1200,000
346,44	-166,667
346,66	295,745
346,87	247,826
347,09	507,692
347,31	6400,000
347,53	-1325,000
347,74	-141,860
347,96	-1471,429
348,18	388,235
348,40	529,412
348,61	-241,026
348,83	8300,000
349,05	297,436
349,27	411,765
349,48	-5150,000
349,70	685,714
349,92	333,333
350,14	200,000
350,35	-523,077
350,57	-616,667
350,79	-130,769
351,01	-340,000
351,22	460,000
351,44	808,333
351,66	361,111
351,87	1150,000
352,09	155,263
352,31	258,929
352,53	222,857
352,74	-971,429
352,96	315,789
353,18	50,000
353,40	-1137,500
353,61	593,333
353,83	187,500
354,05	362,500
354,26	300,000
354,48	-1360,000
354,70	380,952
354,92	255,556
355,13	-132,558
355,35	181,481
355,57	240,625
355,78	278,571
356,00	240,426
356,22	131,818
356,44	248,837
356,65	228,571
356,87	247,222
357,09	265,714
357,30	127,273
357,52	-1433,333
357,74	309,677
357,95	311,429
358,17	118,841
358,39	296,000
358,60	188,889
358,82	200,000
359,04	320,513
359,26	140,909
359,47	-346,154
359,69	232,143
359,91	452,000
360,12	485,000
360,34	100,000
360,56	-2650,000
360,77	1188,889
360,99	479,167
361,21	178,261
361,42	-2200,000
361,64	-137,037
361,86	132,836
362,07	673,333
362,29	320,000
362,51	383,784
362,72	-1600,000
362,94	355,556
363,16	162,857
363,37	1063,636
363,59	-8800,000
363,81	837,500
364,02	128,000
364,24	163,636
364,46	357,143
364,67	195,238
364,89	676,471
365,11	186,486
365,32	481,481
365,54	431,250
365,76	175,000
365,97	156,098
366,19	143,860
366,41	870,000
366,62	144,000
366,84	400,000
367,05	114,706
367,27	1160,000
367,49	271,795
367,70	588,889
367,92	183,333
368,14	-130,769
368,35	142,647
368,57	90,909
368,79	373,077
369,00	106,410
369,22	733,333
369,43	394,737
369,65	-106,897
369,87	-464,706
370,08	600,000
370,30	614,286
370,51	227,273
370,73	188,889
370,95	445,000
371,16	150,877
371,38	190,566
371,60	323,333
371,81	141,304
372,03	-2200,000
372,24	-150,000
372,46	1700,000
372,68	105,882
372,89	96,330
373,11	151,163
373,32	114,286
373,54	636,364
373,76	366,667
373,97	236,364
374,19	-389,474
374,40	135,714
374,62	582,353
374,84	420,833
375,05	200,000
375,27	254,054
375,48	76,543
375,70	382,353
375,92	150,000
376,13	389,474
376,35	479,167
376,56	180,000
376,78	140,816
376,99	227,273
377,21	200,000
377,43	236,364
377,64	204,000
377,86	525,000
378,07	77,273
378,29	225,000
378,51	83,333
378,72	-300,000
378,94	241,304
379,15	102,273
379,37	600,000
379,58	180,000
379,80	186,364
380,01	152,000
380,23	356,522
380,45	172,917
380,66	130,556
380,88	183,784
381,09	282,609
381,31	205,128
381,52	360,870
381,74	144,643
381,95	425,000
382,17	312,000
382,39	120,968
382,60	676,471
382,82	275,862
383,03	2900,000
383,25	116,049
383,46	691,667
383,68	261,702
383,89	281,818
384,11	97,260
384,32	168,421
384,54	-742,857
384,76	258,824
384,97	105,000
385,19	142,105
385,40	300,000
385,62	329,032
385,83	197,872
386,05	1057,143
386,26	273,077
386,48	500,000
386,69	205,556
386,91	260,000
387,12	305,128
387,34	150,847
387,55	185,714
387,77	388,000
387,98	208,163
388,20	145,070
388,41	130,159
388,63	170,000
388,84	282,500
389,06	158,140
389,27	209,375
389,49	101,205
389,70	228,814
389,92	190,909
390,13	210,256
390,35	105,208
390,56	178,125
390,78	422,727
390,99	73,333
391,21	123,864
391,42	202,174
391,64	-180,000
391,85	137,931
392,07	-271,429
392,28	130,769
392,50	1540,000
392,71	7200,000
392,93	146,774
393,14	221,739
393,36	137,179
393,57	170,833
393,79	144,444
394,00	61,644
394,22	126,000
394,43	207,143
394,65	303,571
394,86	253,125
395,08	-637,500
395,29	142,553
395,50	-7300,000
395,72	457,143
395,93	444,000
396,15	-471,429
396,36	233,333
396,58	-252,381
396,79	165,116
397,01	297,619
397,22	115,942
397,44	280,851
397,65	110,811
397,87	124,286
398,08	315,385
398,29	233,333
398,51	226,829
398,72	143,478
398,94	244,186
399,15	141,667
399,37	152,174
399,58	136,508
399,80	313,333
400,01	279,412
400,22	321,429
400,44	385,714
400,65	153,425
400,87	4000,000
401,08	120,225
401,30	102,667
401,51	60,000
401,72	120,968
401,94	158,537
402,15	100,000
402,37	140,909
402,58	148,837
402,80	275,000
403,01	19,444
403,22	84,337
403,44	200,000
403,65	106,122
403,87	145,333
404,08	180,769
404,30	118,750
404,51	102,857
404,72	581,818
404,94	119,277
405,15	107,463
405,37	118,681
405,58	235,484
405,79	757,143
406,01	73,333
406,22	80,952
406,44	87,719
406,65	71,429
406,86	93,000
407,08	39,506
407,29	92,000
407,51	28,846
407,72	80,198
407,93	92,405
408,15	29,545
408,36	162,857
408,58	71,667
408,79	34,109
409,00	53,191
409,22	57,843
409,43	36,937
409,64	35,897
409,86	60,227
410,07	0,000
410,29	45,333
410,50	47,619
410,71	45,161
410,93	24,752
411,14	52,336
411,35	34,722
411,57	24,306
411,78	61,765
412,00	32,000
412,21	43,805
412,42	36,098
412,64	59,444
412,85	36,269
413,06	48,661
413,28	52,941
413,49	40,000
413,70	41,631
413,92	55,714
414,13	31,225
414,34	21,561
414,56	45,957
414,77	48,339
414,98	46,290
415,20	51,971
415,41	44,156
415,63	42,165
415,84	53,740
416,05	43,675
416,27	48,468
416,48	46,445
416,69	35,756
416,91	41,333
417,12	29,638
417,33	41,761
417,55	40,200
417,76	49,683
417,97	42,322
418,19	33,891
418,40	43,497
418,61	36,707
418,83	42,606
419,04	37,829
419,25	42,424
419,46	42,536
419,68	40,708
419,89	40,580
420,10	38,038
420,32	40,795
420,53	42,482
420,74	40,860
420,96	41,114
421,17	42,645
421,38	35,849
421,60	44,159
421,81	36,837
422,02	37,193
422,23	39,201
422,45	37,129
422,66	32,943
422,87	36,896
423,09	34,592
423,30	34,327
423,51	36,134
423,73	35,888
423,94	32,635
424,15	32,168
424,36	33,515
424,58	35,262
424,79	32,856
425,00	33,002
425,22	35,588
425,43	33,527
425,64	32,063
425,85	33,991
426,07	31,194
426,28	33,849
426,49	32,452
426,71	30,102
426,92	31,588
427,13	32,308
427,34	32,309
427,56	35,224
427,77	31,511
427,98	33,042
428,19	34,393
428,41	37,926
428,62	36,543
428,83	36,426
429,04	38,664
429,26	36,088
429,47	38,708
429,68	37,201
429,89	36,013
430,11	36,892
430,32	36,965
430,53	34,435
430,74	35,908
430,96	35,671
431,17	35,437
431,38	34,680
431,59	33,203
431,81	32,719
432,02	33,065
432,23	33,929
432,44	34,135
432,66	33,755
432,87	33,735
433,08	34,700
433,29	33,655
433,51	34,020
433,72	33,165
433,93	32,345
434,14	29,655
434,35	29,428
434,57	27,198
434,78	26,832
434,99	23,297
435,20	22,883
435,42	19,442
435,63	16,272
435,84	15,438
436,05	12,323
436,26	10,035
436,48	9,724
436,69	6,847
436,90	5,487
437,11	4,804
437,32	3,674
437,54	3,847
437,75	3,723
437,96	3,009
438,17	2,358
438,38	2,203
438,60	2,442
438,81	1,731
439,02	2,066
439,23	2,402
439,44	1,587
439,66	1,306
439,87	1,358
440,08	1,106
440,29	1,287
440,50	1,206
440,72	0,890
440,93	1,171
441,14	1,090
441,35	0,504
441,56	0,750
441,77	0,758
441,99	0,932
442,20	0,895
442,41	0,557
442,62	0,296
442,83	0,314
443,04	0,653
443,26	0,523
443,47	0,581
443,68	0,483
443,89	0,451
444,10	0,445
444,31	0,727
444,53	0,432
444,74	0,414
444,95	-0,031
445,16	0,272
445,37	0,138
445,58	0,216
445,80	0,281
446,01	0,625
446,22	0,685
446,43	0,620
446,64	0,177
446,85	0,473
447,06	0,289
447,28	0,515
447,49	0,286
447,70	0,591
447,91	0,504
448,12	0,324
448,33	0,228
448,54	0,396
448,76	0,382
448,97	0,215
449,18	0,513
449,39	0,558
449,60	0,366
449,81	0,500
450,02	0,498
450,23	0,708
450,45	0,475
450,66	0,410
450,87	0,652
451,08	0,361
451,29	0,709
451,50	0,470
451,71	0,213
451,92	0,310
452,13	0,405
452,35	0,523
452,56	0,388
452,77	0,565
452,98	0,710
453,19	0,743
453,40	0,746
453,61	0,937
453,82	0,666
454,03	0,433
454,25	0,545
454,46	0,476
454,67	0,510
454,88	0,335
455,09	0,367
455,30	0,317
455,51	0,362
455,72	0,433
455,93	0,582
456,14	0,588
456,35	0,488
456,56	0,256
456,78	0,541
456,99	0,594
457,20	0,394
457,41	0,401
457,62	0,327
457,83	0,763
458,04	0,469
458,25	0,510
458,46	0,698
458,67	0,505
458,88	0,558
459,09	0,502
459,30	0,392
459,51	0,433
459,73	0,285
459,94	0,582
460,15	0,324
460,36	0,373
460,57	0,647
460,78	0,242
460,99	0,223
461,20	0,332
461,41	0,562
461,62	0,182
461,83	0,293
462,04	0,404
462,25	0,528
462,46	0,277
462,67	0,262
462,88	0,360
463,09	0,154
463,30	0,351
463,51	0,369
463,72	0,372
463,93	0,256
464,15	0,452
464,36	0,187
464,57	0,239
464,78	0,426
464,99	0,405
465,20	0,179
465,41	0,282
465,62	0,197
465,83	0,353
466,04	0,344
466,25	0,338
466,46	0,439
466,67	0,303
466,88	0,331
467,09	0,306
467,30	0,171
467,51	0,433
467,72	0,274
467,93	0,131
468,14	0,381
468,35	0,440
468,56	0,321
468,77	0,172
468,98	0,545
469,19	0,501
469,40	0,408
469,61	0,202
469,82	0,397
470,03	0,290
470,24	0,321
470,45	0,442
470,66	0,580
470,87	0,357
471,08	0,401
471,29	0,225
471,50	0,335
471,71	0,400
471,92	0,319
472,13	0,546
472,34	0,118
472,55	0,372
472,76	0,642
472,97	0,297
473,18	0,319
473,39	0,350
473,60	0,478
473,81	0,406
474,01	0,470
474,22	0,478
474,43	0,415
474,64	0,394
474,85	0,374
475,06	0,607
475,27	0,541
475,48	0,469
475,69	0,649
475,90	0,548
476,11	0,495
476,32	0,454
476,53	0,540
476,74	0,405
476,95	0,596
477,16	0,381
477,37	0,672
477,58	0,503
477,79	0,520
478,00	0,358
478,21	0,813
478,41	0,442
478,62	0,616
478,83	0,579
479,04	0,665
479,25	0,487
479,46	0,573
479,67	0,590
479,88	0,801
480,09	0,554
480,30	0,634
480,51	0,860
480,72	0,894
480,93	1,181
481,14	1,307
481,34	1,559
481,55	1,782
481,76	2,312
481,97	2,494
482,18	3,029
482,39	4,147
482,60	4,414
482,81	5,059
483,02	6,077
483,23	6,918
483,44	7,963
483,65	8,824
483,85	9,740
484,06	11,387
484,27	12,354
484,48	13,390
484,69	14,351
484,90	15,443
485,11	17,015
485,32	18,309
485,53	19,101
485,73	20,694
485,94	21,462
486,15	23,091
486,36	23,947
486,57	24,935
486,78	25,397
486,99	26,830
487,20	27,426
487,41	28,213
487,61	28,828
487,82	28,968
488,03	29,832
488,24	29,967
488,45	30,415
488,66	30,822
488,87	32,019
489,08	32,529
489,28	33,108
489,49	34,253
489,70	34,078
489,91	34,773
490,12	35,209
490,33	36,278
490,54	36,851
490,74	37,075
490,95	37,428
491,16	38,234
491,37	38,932
491,58	39,604
491,79	40,404
492,00	40,198
492,20	41,053
492,41	41,002
492,62	41,160
492,83	41,717
493,04	41,786
493,25	41,891
493,45	41,017
493,66	40,910
493,87	40,417
494,08	39,593
494,29	39,452
494,50	38,645
494,70	38,078
494,91	37,234
495,12	36,433
495,33	35,671
495,54	34,537
495,75	33,557
495,95	32,900
496,16	31,793
496,37	31,190
496,58	30,283
496,79	29,579
496,99	28,350
497,20	28,605
497,41	27,932
497,62	28,160
497,83	27,513
498,04	27,457
498,24	27,633
498,45	27,206
498,66	26,922
498,87	26,668
499,08	26,537
499,28	25,520
499,49	25,464
499,70	24,705
499,91	23,855
500,12	23,198
500,32	22,844
500,53	22,644
500,74	22,029
500,95	21,539
501,15	20,862
501,36	20,539
501,57	20,297
501,78	19,346
501,99	18,536
502,19	18,040
502,40	17,001
502,61	15,915
502,82	15,276
503,02	14,250
503,23	13,012
503,44	11,949
503,65	11,195
503,86	10,532
504,06	9,701
504,27	9,034
504,48	8,166
504,69	7,464
504,89	6,783
505,10	6,015
505,31	5,845
505,52	4,833
505,72	4,452
505,93	3,537
506,14	2,977
506,35	2,616
506,55	2,041
506,76	1,651
506,97	1,469
507,18	1,150
507,38	0,834
507,59	0,842
507,80	0,730
508,01	0,515
508,21	0,510
508,42	0,429
508,63	0,302
508,84	0,493
509,04	0,423
509,25	0,357
509,46	0,325
509,67	0,649
509,87	0,361
510,08	0,293
510,29	0,326
510,49	0,462
510,70	0,478
510,91	0,383
511,12	0,404
511,32	0,435
511,53	0,415
511,74	0,220
511,94	0,289
512,15	0,397
512,36	0,238
512,57	0,388
512,77	0,343
512,98	0,251
513,19	0,556
513,39	0,388
513,60	0,086
513,81	0,357
514,01	0,431
514,22	0,381
514,43	0,233
514,64	0,391
514,84	0,525
515,05	0,447
515,26	0,264
515,46	0,316
515,67	0,260
515,88	0,375
516,08	0,449
516,29	0,277
516,50	0,168
516,70	0,271
516,91	0,393
517,12	0,352
517,32	0,304
517,53	0,212
517,74	0,297
517,95	0,382
518,15	0,420
518,36	0,418
518,57	0,434
518,77	0,357
518,98	0,475
519,19	0,234
519,39	0,503
519,60	0,257
519,80	0,231
520,01	0,360
520,22	0,329
520,42	0,344
520,63	0,530
520,84	0,360
521,04	0,191
521,25	0,396
521,46	0,202
521,66	0,299
521,87	0,277
522,08	0,372
522,28	0,323
522,49	0,276
522,70	0,266
522,90	0,125
523,11	0,233
523,31	0,242
523,52	0,386
523,73	0,264
523,93	0,482
524,14	0,467
524,35	0,438
524,55	0,284
524,76	0,210
524,97	0,419
525,17	0,304
525,38	0,407
525,58	0,168
525,79	0,209
526,00	0,464
526,20	0,218
526,41	0,156
526,61	0,307
526,82	0,140
527,03	0,332
527,23	0,301
527,44	0,347
527,64	0,492
527,85	0,288
528,06	0,442
528,26	0,521
528,47	0,317
528,68	0,518
528,88	0,136
529,09	0,281
529,29	0,498
529,50	0,255
529,70	0,340
529,91	0,165
530,12	0,348
530,32	0,205
530,53	0,422
530,73	0,487
530,94	0,223
531,15	0,202
531,35	0,521
531,56	0,536
531,76	0,450
531,97	0,349
532,17	0,323
532,38	0,457
532,59	0,436
532,79	0,485
533,00	0,365
533,20	0,428
533,41	0,353
533,61	0,321
533,82	0,098
534,03	0,326
534,23	0,337
534,44	0,338
534,64	0,461
534,85	0,309
535,05	0,260
535,26	0,111
535,46	0,388
535,67	0,322
535,88	0,136
536,08	0,378
536,29	0,297
536,49	0,351
536,70	0,475
536,90	0,330
537,11	0,505
537,31	0,314
537,52	0,341
537,72	0,408
537,93	0,421
538,13	0,434
538,34	0,359
538,55	0,337
538,75	0,186
538,96	0,410
539,16	0,408
539,37	0,540
539,57	0,544
539,78	0,556
539,98	0,534
540,19	0,820
540,39	0,802
540,60	0,750
540,80	0,748
541,01	1,056
541,21	1,240
541,42	1,311
541,62	1,592
541,83	1,750
542,03	2,121
542,24	2,409
542,44	2,974
542,65	3,122
542,85	4,175
543,06	4,567
543,26	5,101
543,47	6,048
543,67	6,729
543,88	7,559
544,08	8,218
544,29	9,685
544,49	10,085
544,70	11,347
544,90	12,434
545,11	13,718
545,31	15,058
545,52	16,137
545,72	16,980
545,93	17,984
546,13	19,118
546,34	19,989
546,54	20,771
546,75	21,311
546,95	21,671
547,15	21,834
547,36	22,274
547,56	22,350
547,77	22,079
547,97	22,917
548,18	22,721
548,38	23,046
548,59	23,548
548,79	23,559
549,00	23,985
549,20	24,623
549,41	25,079
549,61	25,887
549,81	26,484
550,02	27,398
550,22	28,519
550,43	29,940
550,63	30,945
550,84	32,166
551,04	33,619
551,25	34,753
551,45	35,211
551,65	36,143
551,86	36,763
552,06	37,934
552,27	38,901
552,47	38,654
552,68	39,709
552,88	39,623
553,08	40,291
553,29	40,900
553,49	40,885
553,70	41,082
553,90	41,889
554,11	42,184
554,31	41,798
554,51	41,684
554,72	41,676
554,92	42,019
555,13	41,967
555,33	42,248
555,53	42,673
555,74	43,101
555,94	42,722
556,15	42,789
556,35	42,351
556,56	43,416
556,76	42,963
556,96	43,288
557,17	43,076
557,37	43,231
557,58	42,386
557,78	42,575
557,98	42,123
558,19	42,246
558,39	41,776
558,59	41,345
558,80	41,273
559,00	40,364
559,21	40,795
559,41	39,851
559,61	40,513
559,82	39,967
560,02	40,447
560,23	40,693
560,43	40,420
560,63	40,886
560,84	40,987
561,04	41,857
561,24	42,098
561,45	41,949
561,65	42,455
561,85	43,103
562,06	43,056
562,26	43,121
562,47	43,093
562,67	42,965
562,87	42,985
563,08	42,459
563,28	42,259
563,48	41,503
563,69	40,648
563,89	40,747
564,09	39,945
564,30	39,295
564,50	38,558
564,70	37,979
564,91	37,234
565,11	36,396
565,31	36,150
565,52	35,602
565,72	34,986
565,92	34,787
566,13	34,220
566,33	33,638
566,53	33,066
566,74	32,262
566,94	31,888
567,14	32,191
567,35	30,872
567,55	30,074
567,75	29,220
567,96	28,605
568,16	28,003
568,36	26,227
568,57	25,320
568,77	24,568
568,97	23,454
569,18	21,847
569,38	20,980
569,58	19,692
569,79	18,022
569,99	16,946
570,19	16,125
570,39	14,549
570,60	13,350
570,80	12,299
571,00	10,977
571,21	10,543
571,41	9,435
571,61	8,360
571,82	7,666
572,02	6,591
572,22	5,679
572,42	5,229
572,63	4,503
572,83	3,924
573,03	3,364
573,24	2,883
573,44	2,565
573,64	2,207
573,84	1,622
574,05	1,501
574,25	1,250
574,45	1,200
574,66	1,112
574,86	0,985
575,06	0,849
575,26	0,729
575,47	0,905
575,67	0,533
575,87	0,551
576,07	0,527
576,28	0,439
576,48	0,515
576,68	0,591
576,88	0,542
577,09	0,368
577,29	0,559
577,49	0,331
577,69	0,214
577,90	0,325
578,10	0,251
578,30	0,305
578,50	0,263
578,71	0,277
578,91	0,229
579,11	0,309
579,31	0,387
579,52	0,208
579,72	0,184
579,92	0,343
580,12	0,265
580,33	0,159
580,53	0,226
580,73	0,323
580,93	0,380
581,13	0,327
581,34	0,231
581,54	0,362
581,74	0,281
581,94	0,294
582,15	0,417
582,35	0,064
582,55	0,204
582,75	0,311
582,95	0,313
583,16	0,221
583,36	0,270
583,56	0,340
583,76	0,247
583,96	0,232
584,17	0,196
584,37	0,228
584,57	0,268
584,77	0,262
584,97	0,073
585,18	0,229
585,38	0,114
585,58	0,268
585,78	0,252
585,98	0,266
586,19	0,336
586,39	0,386
586,59	0,317
586,79	0,370
586,99	0,095
587,20	0,084
587,40	0,227
587,60	0,173
587,80	0,190
588,00	0,260
588,20	0,244
588,41	0,201
588,61	0,337
588,81	0,182
589,01	0,207
589,21	0,293
589,41	0,156
589,62	0,234
589,82	0,194
590,02	0,307
590,22	0,259
590,42	0,245
590,62	0,253
590,83	0,179
591,03	0,033
591,23	0,138
591,43	0,430
591,63	0,270
591,83	0,311
592,03	0,245
592,24	0,268
592,44	0,160
592,64	0,191
592,84	0,295
593,04	0,213
593,24	0,174
593,44	0,265
593,65	0,148
593,85	0,285
594,05	0,194
594,25	0,185
594,45	0,227
594,65	0,097
594,85	0,123
595,06	0,095
595,26	0,296
595,46	-0,007
595,66	0,176
595,86	0,201
596,06	0,155
596,26	0,265
596,46	0,288
596,66	0,254
596,87	0,224
597,07	0,116
597,27	0,112
597,47	0,248
597,67	0,282
597,87	0,105
598,07	0,238
598,27	0,194
598,47	0,330
598,67	0,022
598,88	0,194
599,08	0,199
599,28	0,339
599,48	0,230
599,68	0,343
599,88	0,223
600,08	0,326
600,28	0,236
600,48	0,248
600,68	0,131
600,88	0,377
601,09	0,165
601,29	0,359
601,49	0,158
601,69	0,211
601,89	0,260
602,09	0,279
602,29	0,166
602,49	0,227
602,69	0,262
602,89	0,217
603,09	0,208
603,29	0,376
603,49	0,261
603,69	0,328
603,90	0,096
604,10	0,368
604,30	0,097
604,50	0,296
604,70	0,231
604,90	0,194
605,10	0,240
605,30	0,146
605,50	0,111
605,70	0,286
605,90	-0,046
606,10	0,115
606,30	0,183
606,50	0,220
606,70	0,204
606,90	0,012
607,10	0,274
607,30	0,380
607,50	0,170
607,70	0,365
607,90	0,230
608,10	0,269
608,30	0,224
608,50	0,308
608,70	0,325
608,90	0,221
609,11	0,164
609,31	0,291
609,51	0,270
609,71	0,117
609,91	0,148
610,11	0,483
610,31	0,351
610,51	0,319
610,71	0,227
610,91	0,129
611,11	0,235
611,31	0,157
611,51	0,235
611,71	0,127
611,91	0,363
612,11	0,200
612,31	0,301
612,51	0,298
612,71	0,120
612,91	0,087
613,11	0,195
613,31	0,261
613,51	0,195
613,71	0,064
613,91	0,194
614,11	0,064
614,31	0,260
614,50	0,363
614,70	0,323
614,90	0,251
615,10	0,051
615,30	0,346
615,50	0,083
615,70	0,301
615,90	0,308
616,10	0,144
616,30	0,278
616,50	0,016
616,70	0,180
616,90	0,154
617,10	0,131
617,30	0,235
617,50	0,352
617,70	0,164
617,90	0,222
618,10	0,285
618,30	0,044
618,50	0,230
618,70	0,299
618,90	0,223
619,10	0,226
619,30	0,036
619,49	0,186
619,69	0,317
619,89	0,285
620,09	0,107
620,29	0,312
620,49	0,369
620,69	0,114
620,89	0,159
621,09	0,218
621,29	0,209
621,49	0,223
621,69	0,137
621,89	0,376
622,09	0,305
622,29	0,183
622,48	0,301
622,68	0,199
622,88	0,144
623,08	0,132
623,28	0,112
623,48	0,172
623,68	0,153
623,88	0,089
624,08	0,238
624,28	0,321
624,48	0,243
624,67	0,174
624,87	0,176
625,07	0,234
625,27	0,131
625,47	0,158
625,67	0,265
625,87	0,122
626,07	0,156
626,27	0,141
626,47	0,378
626,66	0,177
626,86	0,238
627,06	0,318
627,26	0,274
627,46	0,127
627,66	0,151
627,86	0,224
628,06	0,259
628,25	0,203
628,45	0,286
628,65	0,359
628,85	0,052
629,05	0,310
629,25	0,011
629,45	0,146
629,65	0,257
629,84	0,173
630,04	0,195
630,24	0,252
630,44	0,109
630,64	0,292
630,84	0,153
631,04	0,293
631,23	0,042
631,43	0,150
631,63	0,158
631,83	0,200
632,03	0,302
632,23	0,289
632,42	0,126
632,62	0,307
632,82	0,220
633,02	0,160
633,22	0,220
633,42	0,364
633,62	0,143
633,81	-0,009
634,01	0,344
634,21	0,246
634,41	0,382
634,61	0,197
634,80	0,409
635,00	0,289
635,20	0,332
635,40	0,053
635,60	0,250
635,80	0,182
635,99	0,453
636,19	0,090
636,39	0,222
636,59	0,098
636,79	0,257
636,98	0,204
637,18	0,238
637,38	0,170
637,58	0,199
637,78	0,232
637,97	0,281
638,17	0,266
638,37	0,199
638,57	0,236
638,77	0,517
638,96	0,172
639,16	0,219
639,36	0,235
639,56	0,308
639,76	0,171
639,95	0,295
640,15	0,197
640,35	0,024
640,55	0,163
640,75	0,591
640,94	0,164
641,14	0,302
641,34	0,414
641,54	0,189
641,73	0,513
641,93	0,475
642,13	0,355
642,33	0,046
642,53	0,227
642,72	0,286
642,92	0,403
643,12	0,173
643,32	0,435
643,51	0,514
643,71	0,187
643,91	0,230
644,11	0,438
644,30	0,233
644,50	0,586
644,70	0,362
644,90	0,542
645,09	0,432
645,29	0,510
645,49	0,413
645,69	0,086
645,88	0,288
646,08	0,413
646,28	0,511
646,48	0,405
646,67	0,255
646,87	0,251
647,07	0,447
647,26	0,902
647,46	0,355
647,66	0,516
647,86	0,665
648,05	0,645
648,25	1,076
648,45	0,379
648,65	0,359
648,84	0,276
649,04	0,657
649,24	0,678
649,43	0,465
649,63	0,381
649,83	0,462
650,03	0,691
650,22	0,573
650,42	0,405
650,62	0,720
650,81	0,532
651,01	0,152
651,21	-0,016
651,40	0,638
651,60	0,146
651,80	0,449
652,00	0,675
652,19	0,361
652,39	0,569
652,59	0,782
652,78	0,468
652,98	0,356
653,18	0,519
653,37	0,685
653,57	1,051
653,77	0,886
653,96	0,534
654,16	0,883
654,36	0,729
654,55	0,396
654,75	0,656
654,95	0,775
655,14	0,345
655,34	1,119
655,54	0,947
655,73	-0,009
655,93	0,454
656,13	0,426
656,32	0,088
656,52	0,794
656,72	0,539
656,91	0,432
657,11	0,707
657,31	0,505
657,50	0,492
657,70	0,521
657,90	0,643
658,09	0,842
658,29	0,571
658,49	0,602
658,68	0,756
658,88	0,785
659,07	0,671
659,27	0,890
659,47	0,775
659,66	0,336
659,86	0,611
660,06	0,597
660,25	0,646
660,45	0,885
660,64	0,509
660,84	0,863
661,04	0,884
661,23	0,799
661,43	0,896
661,63	0,826
661,82	0,572
662,02	1,112
662,21	0,898
662,41	1,145
662,61	1,239
662,80	0,659
663,00	0,087
663,19	1,170
663,39	0,673
663,59	1,137
663,78	0,997
663,98	0,522
664,17	0,622
664,37	0,948
664,57	0,600
664,76	0,841
664,96	0,366
665,15	0,153
665,35	0,559
665,55	0,239
665,74	0,700
665,94	0,549
666,13	0,283
666,33	0,734
666,53	0,819
666,72	0,506
666,92	0,684
667,11	0,690
667,31	0,256
667,50	0,397
667,70	0,945
667,90	0,172
668,09	0,418
668,29	0,425
668,48	0,618
668,68	0,666
668,87	0,766
669,07	0,264
669,26	0,457
669,46	0,553
669,66	0,570
669,85	0,631
670,05	0,568
670,24	0,408
670,44	0,480
670,63	0,413
670,83	0,312
671,02	0,164
671,22	0,736
671,42	0,309
671,61	0,408
671,81	0,462
672,00	0,575
672,20	0,289
672,39	0,480
672,59	0,300
672,78	0,566
672,98	0,452
673,17	0,356
673,37	0,247
673,56	0,290
673,76	0,146
673,95	0,554
674,15	0,448
674,34	0,250
674,54	0,428
674,73	0,491
674,93	0,454
675,13	0,453
675,32	0,645
675,52	0,329
675,71	0,508
675,91	0,272
676,10	0,330
676,30	0,377
676,49	0,095
676,69	0,395
676,88	0,152
677,08	0,262
677,27	0,502
677,47	0,267
677,66	0,504
677,86	0,499
678,05	0,358
678,24	0,172
678,44	0,488
678,63	0,373
678,83	0,440
679,02	0,498
679,22	0,389
679,41	0,619
679,61	0,303
679,80	0,231
680,00	0,166
680,19	0,298
680,39	0,331
680,58	0,122
680,78	0,235
680,97	0,256
681,17	0,611
681,36	0,294
681,56	0,342
681,75	0,084
681,94	0,209
682,14	0,668
682,33	0,569
682,53	0,189
682,72	0,333
682,92	0,507
683,11	0,226
683,31	0,446
683,50	0,178
683,69	0,242
683,89	0,468
684,08	0,380
684,28	0,077
684,47	0,296
684,67	0,109
684,86	0,252
685,06	0,316
685,25	0,236
685,44	0,411
685,64	0,199
685,83	0,275
686,03	0,202
686,22	0,186
686,42	0,365
686,61	0,264
686,80	0,050
687,00	0,099
687,19	0,129
687,39	0,209
687,58	0,106
687,77	0,204
687,97	0,304
688,16	0,248
688,36	0,048
688,55	0,134
688,74	0,149
688,94	0,243
689,13	0,231
689,33	0,158
689,52	0,293
689,71	0,248
689,91	0,141
690,10	0,301
690,30	0,157
690,49	0,215
690,68	0,405
690,88	0,000
691,07	0,083
691,27	0,239
691,46	0,284
691,65	0,245
691,85	0,334
692,04	0,332
692,23	0,139
692,43	0,364
692,62	0,347
692,82	0,393
693,01	0,191
693,20	0,210
693,40	0,196
693,59	0,341
693,78	0,324
693,98	0,073
694,17	0,249
694,36	0,398
694,56	0,383
694,75	0,235
694,94	0,444
695,14	0,149
695,33	0,312
695,53	0,406
695,72	0,453
695,91	0,130
696,11	0,409
696,30	0,413
696,49	0,298
696,69	0,213
696,88	0,315
697,07	0,405
697,27	0,356
697,46	0,544
697,65	0,290
697,85	0,199
698,04	0,584
698,23	0,286
698,43	0,462
698,62	0,084
698,81	0,467
699,01	0,581
699,20	0,407
699,39	0,404
699,58	0,466
699,78	0,077
699,97	0,424
700,16	-0,057
700,36	0,367
700,55	0,233
700,74	0,429
700,94	0,269
701,13	0,313
701,32	0,000
701,52	0,269
701,71	0,717
701,90	0,427
702,09	0,694
702,29	0,459
702,48	0,262
702,67	0,297
702,87	0,825
703,06	0,288
703,25	0,688
703,44	0,430
703,64	0,498
703,83	0,530
704,02	0,865
704,22	0,531
704,41	0,495
704,60	1,121
704,79	1,074
704,99	1,307
705,18	0,949
705,37	1,707
705,56	0,742
705,76	1,969
705,95	0,954
706,14	1,780
706,33	0,809
706,53	1,926
706,72	0,774
706,91	1,535
707,11	0,451
707,30	1,100
707,49	0,935
707,68	1,637
707,88	0,728
708,07	1,146
708,26	1,467
708,45	1,064
708,64	2,155
708,84	0,782
709,03	2,379
709,22	0,557
709,41	2,404
709,61	1,189
709,80	2,611
709,99	2,674
710,18	1,973
710,38	0,598
710,57	0,445
710,76	1,114
710,95	2,772
711,14	2,549
711,34	1,411
711,53	3,150
711,72	2,855
711,91	1,513
712,11	1,986
712,30	-0,308
712,49	0,995
712,68	1,029
712,87	0,857
713,07	2,890
713,26	4,040
713,45	1,623
713,64	1,746
713,83	1,891
714,03	1,656
714,22	3,258
714,41	1,723
714,60	3,322
714,79	0,720
714,99	0,758
715,18	4,880
715,37	2,484
715,56	2,097
715,75	2,301
715,94	4,528
716,14	3,840
716,33	2,758
716,52	4,927
716,71	3,507
716,90	4,162
717,10	1,114
717,29	3,658
717,48	4,283
717,67	3,948
717,86	2,480
718,05	3,630
718,24	4,578
718,44	5,047
718,63	3,041
718,82	3,998
719,01	3,923
719,20	1,778
719,39	4,967
719,59	2,279
719,78	4,008
719,97	5,154
720,16	3,495
720,35	2,822
720,54	2,236
720,73	6,143
720,93	3,326
721,12	1,006
721,31	4,082
721,50	5,891
721,69	2,082
721,88	6,528
722,07	3,301
722,27	7,650
722,46	2,999
722,65	1,986
722,84	1,935
723,03	4,549
723,22	4,432
723,41	1,744
723,60	0,654
723,79	8,746
723,99	1,928
724,18	6,255
724,37	3,270
724,56	5,792
724,75	5,565
724,94	8,361
725,13	6,953
725,32	10,351
725,51	4,744
725,71	4,525
725,90	6,144
726,09	4,658
726,28	3,146
726,47	1,381
726,66	7,130
726,85	7,962
727,04	3,874
727,23	8,405
727,42	8,754
727,61	3,498
727,81	-2,378
728,00	3,222
728,19	4,009
728,38	3,493
728,57	6,563
728,76	6,330
728,95	8,750
729,14	6,061
729,33	7,097
729,52	7,762
729,71	5,423
729,90	6,593
730,09	5,972
730,28	8,626
730,48	10,271
730,67	9,375
730,86	8,392
731,05	4,667
731,24	-0,366
731,43	10,453
731,62	4,926
731,81	3,178
732,00	10,778
732,19	2,885
732,38	9,615
732,57	8,435
732,76	3,283
732,95	-0,772
733,14	-1,291
733,33	1,587
733,52	10,393
733,71	4,304
733,90	5,508
734,09	7,162
734,28	5,118
734,47	8,472
734,66	11,631
734,85	3,857
735,04	4,993
735,23	5,182
735,42	8,880
735,61	6,997
735,81	9,467
736,00	4,701
736,19	10,942
736,38	7,335
736,57	12,757
736,76	12,847
736,95	10,510
737,14	14,195
737,33	7,214
737,52	10,308
737,71	9,016
737,90	16,229
738,09	9,437
738,28	8,969
738,47	1,825
738,66	6,731
738,85	6,907
739,04	5,660
739,22	3,344
739,41	3,860
739,60	4,778
739,79	7,374
739,98	6,452
740,17	11,092
740,36	11,212
740,55	11,943
740,74	13,208
740,93	11,663
741,12	8,214
741,31	5,634
741,50	1,134
741,69	18,053
741,88	-1,976
742,07	18,478
742,26	8,381
742,45	9,631
742,64	3,839
742,83	16,460
743,02	6,526
743,21	19,314
743,40	2,692
743,59	10,294
743,78	11,937
743,97	12,885
744,16	7,087
744,34	5,128
744,53	10,928
744,72	5,637
744,91	7,143
745,10	19,078
745,29	14,113
745,48	11,818
745,67	10,478
745,86	12,804
746,05	8,294
746,24	9,072
746,43	7,495
746,62	12,284
746,81	20,000
747,00	13,348
747,18	10,458
747,37	18,105
747,56	24,706
747,75	3,695
747,94	14,806
748,13	25,727
748,32	18,333
748,51	17,513
748,70	16,079
748,89	12,178
749,08	3,488
749,26	17,841
749,45	11,796
749,64	7,557
749,83	18,202
750,02	14,130
750,21	7,379
750,40	19,433
750,59	10,188
750,78	9,975
750,96	8,011
751,15	19,393
751,34	9,091
751,53	11,749
751,72	19,155
751,91	11,399
752,10	15,183
752,29	12,533
752,47	16,619
752,66	24,127
752,85	20,492
753,04	9,218
753,23	16,099
753,42	19,407
753,61	14,420
753,80	10,997
753,98	12,121
754,17	10,638
754,36	13,226
754,55	11,747
754,74	16,558
754,93	22,865
755,12	23,739
755,30	13,961
755,49	15,988
755,68	27,301
755,87	13,905
756,06	5,903
756,25	23,708
756,43	9,732
756,62	21,429
756,81	31,457
757,00	13,816
757,19	19,792
757,38	5,405
757,56	9,600
757,75	17,406
757,94	10,646
758,13	8,904
758,32	19,288
758,51	25,589
758,69	16,216
758,88	16,162
759,07	28,443
759,26	25,088
759,45	5,263
759,63	14,286
759,82	16,491
760,01	8,791
760,20	36,792
760,39	19,874
760,57	2,091
760,76	13,589
760,95	24,306
761,14	20,073
761,33	25,484
761,51	33,214
761,70	26,766
761,89	27,556
762,08	32,342
762,27	16,606
762,45	15,580
762,64	15,578
762,83	35,857
763,02	10,870
763,21	7,500
763,39	14,336
763,58	15,985
763,77	28,270
763,96	26,693
764,14	13,750
764,33	18,571
764,52	24,554
764,71	28,197
764,89	12,054
765,08	36,946
765,27	37,021
765,46	26,009
765,65	20,000
765,83	33,032
766,02	-1,905
766,21	19,126
766,40	34,630
766,58	6,349
766,77	16,972
766,96	20,325
767,15	32,353
767,33	26,570
767,52	25,328
767,71	16,667
767,90	25,126
768,08	24,551
768,27	26,829
768,46	38,596
768,64	28,241
768,83	20,588
769,02	8,374
769,21	25,000
769,39	-0,714
769,58	29,004
769,77	41,489
769,96	37,387
770,14	21,858
770,33	24,766
770,52	29,496
770,70	43,243
770,89	37,838
771,08	11,446
771,27	34,737
771,45	12,353
771,64	52,121
771,83	37,255
772,01	40,722
772,20	34,826
772,39	13,291
772,57	22,388
772,76	23,649
772,95	32,759
773,14	31,293
773,32	26,554
773,51	45,833
773,70	60,432
773,88	57,419
774,07	29,949
774,26	14,516
774,44	63,158
774,63	51,497
774,82	24,026
775,00	37,383
775,19	20,833
775,38	40,426
775,56	63,354
775,75	34,615
775,94	26,667
776,12	26,144
776,31	69,173
776,50	16,438
776,68	41,935
776,87	37,799
777,06	56,604
777,24	44,538
777,43	51,872
777,62	56,742
777,80	40,881
777,99	64,167
778,18	49,425
778,36	46,610
778,55	47,458
778,74	51,562
778,92	58,642
779,11	97,273
779,29	-0,709
779,48	58,865
779,67	44,144
779,85	46,491
780,04	81,884
780,23	41,071
780,41	81,356
780,60	61,074
780,79	60,484
780,97	47,712
781,16	32,979
781,34	55,405
781,53	50,893
781,72	65,766
781,90	44,311
782,09	36,047
782,28	40,136
782,46	56,429
782,65	66,197
782,83	22,013
783,02	74,561
783,21	40,602
783,39	52,101
783,58	48,696
783,76	78,231
783,95	76,056
784,14	59,211
784,32	35,294
784,51	80,405
784,69	32,813
784,88	71,028
785,06	39,073
785,25	49,645
785,44	-3,226
785,62	57,143
785,81	41,667
785,99	54,887
786,18	68,468
786,37	74,725
786,55	36,111
786,74	47,273
786,92	26,573
787,11	37,500
787,29	67,857
787,48	74,194
787,67	61,321
787,85	79,747
788,04	63,063
788,22	35,644
788,41	48,031
788,59	42,763
788,78	76,923
788,96	40,496
789,15	53,333
789,34	55,769
789,52	41,935
789,71	79,137
789,89	80,519
790,08	46,250
790,26	61,146
790,45	111,111
790,63	55,172
790,82	63,077
791,00	61,947
791,19	59,200
791,38	16,190
791,56	51,818
791,75	41,667
791,93	80,000
792,12	68,696
792,30	70,803
792,49	13,131
792,67	24,265
792,86	38,400
793,04	114,815
793,23	56,842
793,41	50,000
793,60	47,222
793,78	73,333
793,97	52,778
794,15	68,421
794,34	21,333
794,52	-5,376
794,71	68,217
794,89	30,303
795,08	89,600
795,26	81,333
795,45	45,833
795,63	73,387
795,82	51,648
796,00	68,000
796,19	77,236
796,37	66,412
796,56	38,835
796,74	63,158
796,93	112,121
797,11	91,566
797,30	66,111
797,48	32,031
797,67	78,049
797,85	60,769
798,04	44,915
798,22	141,026
798,41	75,962
798,59	62,857
798,77	33,735
798,96	58,642
799,14	68,548
799,33	99,083
799,51	77,778
799,70	110,769
799,88	117,431
800,07	69,466
800,25	50,602
800,44	103,704
800,62	81,944
800,80	47,183
800,99	124,658
801,17	65,517
801,36	85,714
801,54	82,000
801,73	54,737
801,91	86,777
802,10	83,529
802,28	68,000
802,46	44,737
802,65	58,993
802,83	40,000
803,02	75,000
803,20	68,675
803,39	50,575
803,57	55,118
803,75	52,033
803,94	43,651
804,12	73,793
804,31	-14,493
804,49	59,200
804,67	26,471
804,86	86,726
805,04	14,458
805,23	72,566
805,41	45,000
805,59	77,397
805,78	84,000
805,96	101,205
806,15	64,356
806,33	82,895
806,51	56,000
806,70	57,895
806,88	74,419
807,07	103,604
807,25	78,022
807,43	52,679
807,62	33,628
807,80	32,381
807,99	55,385
808,17	40,157
808,35	64,000
808,54	62,319
808,72	58,559
808,90	62,329
809,09	80,435
809,27	112,000
809,46	98,901
809,64	42,683
809,82	28,477
810,01	58,594
810,19	70,707
810,37	76,562
810,56	130,000
810,74	83,117
810,92	14,667
811,11	5,263
811,29	113,208
811,48	26,154
811,66	71,910
811,84	20,879
812,03	62,295
812,21	61,404
812,39	53,043
812,58	50,526
812,76	51,079
812,94	77,108
813,13	97,872
813,31	74,000
813,49	64,815
813,68	27,273
813,86	55,056
814,04	57,025
814,23	36,145
814,41	40,449
814,59	66,990
814,78	41,912
814,96	50,314
815,14	80,374
815,33	61,240
815,51	64,567
815,69	71,429
815,87	38,614
816,06	81,739
816,24	54,658
816,42	75,735
816,61	67,296
816,79	80,172
816,97	50,000
817,16	27,811
817,34	63,492
817,52	56,198
817,70	75,248
817,89	74,074
818,07	58,219
818,25	59,184
818,44	52,564
818,62	39,535
818,80	60,150
818,98	72,611
819,17	67,227
819,35	34,043
819,53	62,687
819,72	72,152
819,90	58,140
820,08	13,675
820,26	85,345
820,45	17,450
820,63	58,929
820,81	62,400
820,99	31,206
821,18	36,054
821,36	38,608
821,54	61,379
821,73	48,333
821,91	29,825
822,09	52,419
822,27	65,161
822,46	33,088
822,64	46,400
822,82	50,276
823,00	0,552
823,19	47,802
823,37	56,364
823,55	46,591
823,73	67,586
823,91	39,855
824,10	40,323
824,28	60,804
824,46	19,417
824,64	44,737
824,83	36,025
825,01	34,667
825,19	38,710
825,37	38,261
825,56	47,170
825,74	57,143
825,92	49,045
826,10	57,386
826,28	35,119
826,47	46,842
826,65	73,759
826,83	21,552
827,01	30,636
827,19	52,381
827,38	50,000
827,56	45,455
827,74	52,514
827,92	37,791
828,10	31,410
828,29	40,828
828,47	47,154
828,65	35,385
828,83	15,152
829,01	48,370
829,20	64,835
829,38	45,455
829,56	55,435
829,74	20,126
829,92	36,508
830,10	59,770
830,29	38,693
830,47	39,698
830,65	29,878
830,83	28,125
831,01	34,524
831,20	33,010
831,38	15,311
831,56	24,186
831,74	50,237
831,92	61,842
832,10	29,524
832,29	41,892
832,47	12,921
832,65	26,471
832,83	34,272
833,01	10,000
833,19	13,575
833,37	44,796
833,56	26,160
833,74	46,569
833,92	18,519
834,10	26,556
834,28	41,772
834,46	38,009
834,64	57,870
834,83	25,455
835,01	36,515
835,19	27,200
835,37	28,512
835,55	42,708
835,73	37,438
835,91	42,804
836,09	15,589
836,28	42,435
836,46	10,800
836,64	42,481
836,82	9,955
837,00	26,449
837,18	10,037
837,36	45,418
837,54	39,091
837,72	21,121
837,91	22,388
838,09	25,498
838,27	16,667
838,45	24,468
838,63	17,279
838,81	8,017
838,99	33,065
839,17	27,703
839,35	43,972
839,53	22,105
839,72	23,684
839,90	27,835
840,08	32,615
840,26	28,571
840,44	22,961
840,62	17,586
840,80	21,769
840,98	19,216
841,16	19,392
841,34	20,067
841,52	22,936
841,70	21,538
841,89	20,968
842,07	21,944
842,25	31,034
842,43	21,121
842,61	25,263
842,79	17,514
842,97	23,127
843,15	25,743
843,33	8,517
843,51	13,253
843,69	34,473
843,87	13,806
844,05	21,581
844,23	20,721
844,41	16,614
844,59	18,732
844,77	12,885
844,95	23,988
845,13	29,538
845,31	19,767
845,50	32,723
845,68	22,508
845,86	22,414
846,04	28,771
846,22	13,351
846,40	25,538
846,58	28,490
846,76	16,667
846,94	21,446
847,12	14,249
847,30	15,722
847,48	26,316
847,66	23,645
847,84	13,115
848,02	22,222
848,20	22,997
848,38	9,402
848,56	21,591
848,74	15,752
848,92	18,204
849,10	18,750
849,28	18,219
849,46	14,667
849,64	19,861
849,82	9,568
850,00	31,776
850,18	16,170
850,36	18,102
850,54	11,278
850,72	20,308
850,90	28,478
851,08	11,160
851,26	15,317
851,44	9,513
851,62	23,953
851,80	9,692
851,98	16,264
852,16	17,967
852,34	21,649
852,52	11,384
852,70	10,251
852,87	13,699
853,05	17,349
853,23	5,567
853,41	14,286
853,59	21,369
853,77	19,841
853,95	24,473
854,13	5,088
854,31	10,062
854,49	12,176
854,67	13,823
854,85	8,903
855,03	14,028
855,21	17,474
855,39	15,694
855,57	16,129
855,75	18,066
855,93	8,824
856,11	21,083
856,28	14,391
856,46	19,039
856,64	12,762
856,82	15,636
857,00	16,430
857,18	20,036
857,36	15,008
857,54	13,322
857,72	11,579
857,90	3,690
858,08	17,843
858,26	4,762
858,44	7,018
858,61	7,840
858,79	14,879
858,97	11,858
859,15	17,183
859,33	8,125
859,51	10,218
859,69	7,513
859,87	9,555
860,05	6,039
860,23	12,987
860,40	8,719
860,58	17,705
860,76	5,556
860,94	11,220
861,12	14,923
861,30	5,808
861,48	12,286
861,66	12,222
861,84	9,716
862,01	14,728
862,19	11,356
862,37	7,564
862,55	9,798
862,73	2,322
862,91	6,608
863,09	8,185
863,27	8,477
863,44	8,604
863,62	8,288
863,80	13,924
863,98	8,902
864,16	1,156
864,34	10,325
864,52	10,456
864,69	14,035
864,87	1,447
865,05	11,293
865,23	12,549
865,41	8,468
865,59	9,556
865,76	11,125
865,94	11,370
866,12	11,613
866,30	2,945
866,48	14,810
866,66	5,780
866,83	11,578
867,01	8,824
867,19	11,183
867,37	4,010
867,55	5,735
867,73	4,447
867,90	5,868
868,08	5,804
868,26	6,250
868,44	6,096
868,62	8,722
868,79	10,882
868,97	2,771
869,15	6,729
869,33	6,716
869,51	5,226
869,69	9,146
869,86	2,807
870,04	6,667
870,22	4,847
870,40	11,930
870,57	9,689
870,75	10,166
870,93	8,632
871,11	10,931
871,29	8,447
871,46	7,395
871,64	9,100
871,82	7,535
872,00	11,831
872,18	2,954
872,35	7,804
872,53	7,566
872,71	3,878
872,89	11,890
873,06	10,800
873,24	10,378
873,42	5,655
873,60	3,583
873,77	5,215
873,95	3,723
874,13	4,334
874,31	4,025
874,49	6,292
874,66	6,673
874,84	6,921
875,02	6,324
875,20	5,025
875,37	5,531
875,55	7,920
875,73	6,906
875,91	6,413
876,08	2,377
876,26	4,329
876,44	9,904
876,61	7,977
876,79	6,824
876,97	5,566
877,15	4,581
877,32	5,200
877,50	3,063
877,68	4,113
877,86	2,549
878,03	5,790
878,21	4,909
878,39	6,175
878,56	4,215
878,74	7,645
878,92	3,309
879,10	4,996
879,27	6,631
879,45	6,337
879,63	1,553
879,80	7,784
879,98	2,784
880,16	6,841
880,34	6,485
880,51	2,918
880,69	2,604
880,87	5,453
881,04	5,499
881,22	7,250
881,40	6,088
881,57	5,899
881,75	3,532
881,93	7,604
882,10	4,357
882,28	4,828
882,46	6,986
882,63	8,217
882,81	6,475
882,99	5,541
883,16	3,548
883,34	3,275
883,52	5,097
883,69	6,477
883,87	1,758
884,05	4,324
884,22	4,892
884,40	6,155
884,58	0,258
884,75	4,868
884,93	6,144
885,11	6,367
885,28	4,866
885,46	-0,246
885,64	3,616
885,81	2,886
885,99	3,222
886,17	2,852
886,34	4,571
886,52	6,760
886,70	7,027
886,87	3,752
887,05	5,892
887,22	3,597
887,40	5,769
887,58	5,665
887,75	4,377
887,93	3,465
888,11	4,754
888,28	5,361
888,46	4,219
888,63	3,687
888,81	5,003
888,99	6,263
889,16	5,068
889,34	2,634
889,51	4,002
889,69	3,982
889,87	5,964
890,04	3,793
890,22	4,242
890,39	2,184
890,57	7,881
890,75	2,852
890,92	4,632
891,10	3,987
891,27	2,553
891,45	4,106
891,63	5,030
891,80	4,777
891,98	3,816
892,15	3,252
892,33	3,784
892,51	4,744
892,68	3,804
892,86	4,560
893,03	3,799
893,21	4,033
893,38	3,494
893,56	3,244
893,74	4,185
893,91	5,317
894,09	5,361
894,26	2,865
894,44	5,017
894,61	2,254
894,79	4,076
894,96	4,309
895,14	2,966
895,32	3,785
895,49	3,664
895,67	3,758
895,84	4,317
896,02	2,320
896,19	1,731
896,37	3,867
896,54	2,722
896,72	2,881
896,89	1,577
897,07	3,684
897,25	4,034
897,42	3,300
897,60	4,205
897,77	3,982
897,95	3,148
898,12	6,206
898,30	4,338
898,47	3,222
898,65	2,388
898,82	2,098
899,00	3,382
899,17	3,861
899,35	-0,039
899,52	4,297
899,70	3,968
899,87	2,100
900,05	3,196
900,22	4,610
900,40	3,328
900,57	4,601
900,75	1,756
900,92	3,634
901,10	4,057
901,27	2,850
901,45	3,891
901,62	3,634
901,80	3,582
901,97	2,878
902,15	2,814
902,32	4,851
902,50	2,296
902,67	5,378
902,85	3,351
903,02	3,946
903,20	3,817
903,37	3,986
903,54	3,305
903,72	4,349
903,89	3,406
904,07	2,923
904,24	5,280
904,42	3,944
904,59	2,679
904,77	3,608
904,94	2,603
905,12	1,878
905,29	2,880
905,47	3,625
905,64	4,395
905,81	3,479
905,99	1,995
906,16	2,532
906,34	3,115
906,51	3,212
906,69	4,589
906,86	4,020
907,03	2,825
907,21	3,054
907,38	3,778
907,56	4,535
907,73	3,544
907,91	3,479
908,08	5,918
908,25	5,584
908,43	3,121
908,60	2,913
908,78	2,918
908,95	4,617
909,13	4,477
909,30	5,091
909,47	2,121
909,65	3,893
909,82	4,030
910,00	3,283
910,17	4,570
910,34	5,605
910,52	3,737
910,69	3,754
910,87	4,480
911,04	4,634
911,21	6,875
911,39	2,644
911,56	5,853
911,73	4,357
911,91	4,104
912,08	5,777
912,26	4,832
912,43	6,215
912,60	4,839
912,78	5,165
912,95	5,819
913,13	4,879
913,30	7,355
913,47	7,559
913,65	6,273
913,82	5,877
913,99	4,917
914,17	6,821
914,34	5,828
914,51	6,916
914,69	8,178
914,86	8,388
915,03	7,604
915,21	7,434
915,38	6,534
915,56	7,419
915,73	6,907
915,90	6,826
916,08	8,373
916,25	7,641
916,42	8,340
916,60	9,172
916,77	7,722
916,94	7,008
917,12	7,038
917,29	8,161
917,46	7,908
917,64	7,650
917,81	6,900
917,98	7,369
918,16	8,108
918,33	7,678
918,50	7,883
918,67	8,367
918,85	7,554
919,02	7,666
919,19	8,522
919,37	8,303
919,54	9,213
919,71	9,174
919,89	7,867
920,06	8,863
920,23	9,568
920,41	9,526
920,58	8,630
920,75	8,864
920,92	9,282
921,10	9,009
921,27	9,598
921,44	9,476
921,62	10,071
921,79	10,474
921,96	10,498
922,13	10,911
922,31	9,069
922,48	10,628
922,65	10,430
922,82	10,703
923,00	11,492
923,17	11,293
923,34	11,325
923,52	10,812
923,69	11,135
923,86	11,448
924,03	12,220
924,21	11,954
924,38	12,521
924,55	12,950
924,72	12,423
924,90	13,021
925,07	14,677
925,24	14,383
925,41	14,235
925,59	14,364
925,76	14,500
925,93	14,944
926,10	16,353
926,28	15,589
926,45	15,158
926,62	16,434
926,79	18,174
926,96	17,090
927,14	18,648
927,31	17,899
927,48	18,068
927,65	18,076
927,83	18,601
928,00	17,769
928,17	19,227
928,34	18,829
928,51	18,628
928,69	18,846
928,86	18,820
929,03	18,950
929,20	18,403
929,37	18,868
929,55	19,696
929,72	19,395
929,89	18,764
930,06	19,324
930,23	19,536
930,41	19,963
930,58	19,966
930,75	18,406
930,92	19,736
931,09	20,152
931,27	19,026
931,44	19,988
931,61	20,759
931,78	20,028
931,95	20,653
932,12	20,641
932,30	19,605
932,47	19,930
932,64	21,559
932,81	19,574
932,98	21,112
933,16	20,854
933,33	20,729
933,50	20,012
933,67	21,035
933,84	20,080
934,01	20,153
934,18	19,518
934,36	20,928
934,53	20,684
934,70	20,113
934,87	19,247
935,04	19,083
935,21	18,860
935,38	20,076
935,56	19,372
935,73	19,501
935,90	19,302
936,07	17,982
936,24	19,416
936,41	18,793
936,58	17,158
936,76	18,825
936,93	17,661
937,10	18,509
937,27	18,063
937,44	18,921
937,61	17,826
937,78	17,146
937,95	17,353
938,13	16,786
938,30	16,855
938,47	17,653
938,64	16,483
938,81	16,796
938,98	15,975
939,15	17,173
939,32	16,145
939,49	15,548
939,66	15,765
939,84	15,085
940,01	16,515
940,18	16,093
940,35	15,369
940,52	15,513
940,69	14,771
940,86	15,144
941,03	15,746
941,20	13,976
941,37	14,549
941,54	16,611
941,71	17,113
941,89	16,476
942,06	14,022
942,23	15,939
942,40	15,218
942,57	15,415
942,74	14,711
942,91	15,211
943,08	15,040
943,25	14,447
943,42	14,612
943,59	15,500
943,76	15,849
943,93	15,291
944,10	15,324
944,27	15,651
944,44	15,276
944,61	16,858
944,79	17,080
944,96	15,671
945,13	16,796
945,30	16,117
945,47	15,927
945,64	15,457
945,81	16,086
945,98	16,629
946,15	16,463
946,32	17,223
946,49	18,007
946,66	17,512
946,83	17,395
947,00	17,633
947,17	18,913
947,34	18,287
947,51	18,170
947,68	17,833
947,85	19,069
948,02	20,088
948,19	17,768
948,36	20,132
948,53	18,282
948,70	19,201
948,87	20,685
949,04	20,090
949,21	18,504
949,38	21,096
949,55	22,095
949,72	18,158
949,89	21,877
950,06	21,103
950,23	20,720
950,40	20,482
950,57	21,158
950,74	22,202
950,91	22,817
951,08	21,973
951,25	22,346
951,42	21,778
951,59	21,771
951,76	21,409
951,93	21,493
952,10	20,597
952,27	22,771
952,44	23,386
952,61	23,661
952,77	24,531
952,94	22,401
953,11	25,326
953,28	24,829
953,45	23,392
953,62	26,451
953,79	27,062
953,96	25,917
954,13	28,586
954,30	26,730
954,47	26,867
954,64	24,414
954,81	28,275
954,98	23,933
955,15	25,453
955,32	28,323
955,49	28,113
955,65	27,348
955,82	24,164
955,99	28,090
956,16	28,764
956,33	28,502
956,50	30,088
956,67	25,999
956,84	29,046
957,01	27,985
957,18	29,582
957,35	30,281
957,52	30,265
957,68	32,013
957,85	31,175
958,02	28,446
958,19	28,491
958,36	34,662
958,53	30,689
958,70	28,930
958,87	26,248
959,04	32,106
959,21	31,568
959,37	32,655
959,54	32,565
959,71	30,887
959,88	23,372
960,05	31,315
960,22	34,843
960,39	31,784
960,56	32,353
960,72	33,657
960,89	33,557
961,06	40,582
961,23	35,321
961,40	32,599
961,57	37,220
961,74	36,252
961,90	38,897
962,07	39,761
962,24	31,140
962,41	42,069
962,58	39,799
962,75	38,120
962,92	37,895
963,08	40,208
963,25	38,845
963,42	46,386
963,59	34,702
963,76	43,738
963,93	44,399
964,10	34,615
964,26	46,190
964,43	36,512
964,60	42,923
964,77	49,441
964,94	38,765
965,10	36,769
965,27	33,240
965,44	38,730
965,61	47,603
965,78	46,273
965,95	43,781
966,11	43,636
966,28	42,737
966,45	38,235
966,62	46,690
966,79	40,273
966,95	52,313
967,12	51,746
967,29	54,321
967,46	68,327
967,63	63,137
967,79	55,705
967,96	65,138
968,13	61,905
968,30	75,309
968,47	58,846
968,63	85,784
968,80	57,471
968,97	73,988
969,14	37,853
969,31	65,816
969,47	69,565
969,64	56,593
969,81	60,000
969,98	54,211
970,14	57,527
970,31	79,874
970,48	101,342
970,65	80,165
970,81	39,161
970,98	66,667
971,15	84,848
971,32	74,242
971,48	107,143
971,65	51,656
971,82	93,636
971,99	78,481
972,15	52,326
972,32	68,056
972,49	69,672
972,66	68,595
972,82	78,082
972,99	86,250
973,16	103,311
973,33	75,556
973,49	101,220
973,66	111,429
973,83	122,222
974,00	93,671
974,16	147,273
974,33	176,000
974,50	104,040
974,67	92,857
974,83	124,490
975,00	189,091
975,17	159,677
975,33	117,241
975,50	168,852
975,67	184,615
975,84	59,756
976,00	146,053
976,17	117,391
976,34	107,059
976,50	84,615
976,67	134,524
976,84	164,583
977,00	138,462
977,17	184,444
977,34	228,846
977,50	126,190
977,67	141,176
977,84	150,847
978,01	66,216
978,17	120,690
978,34	162,963
978,51	328,000
978,67	169,388
978,84	134,545
979,01	234,211
979,17	111,429
979,34	182,609
979,51	206,818
979,67	500,000
979,84	186,441
980,01	178,846
980,17	102,941
980,34	110,959
980,51	922,222
980,67	115,556
980,84	110,000
981,01	317,647
981,17	216,176
981,34	161,429
981,50	105,263
981,67	176,190
981,84	221,429
982,00	5800,000
982,17	182,813
982,34	197,561
982,50	0,000
982,67	-200,000
982,84	345,000
983,00	131,481
983,17	-1185,714
983,33	711,111
983,50	226,829
983,67	134,783
983,83	461,905
984,00	273,913
984,17	1211,111
984,33	-478,571
984,50	164,865
984,66	275,000
984,83	475,000
985,00	423,077
985,16	122,581
985,33	6450,000
985,49	146,512
985,66	202,500
985,83	-3000,000
985,99	555,556
986,16	252,632
986,32	157,534
986,49	-2080,000
986,66	1240,000
986,82	209,091
986,99	-1140,000
987,15	345,455
987,32	441,176
987,49	200,000
987,65	-217,391
987,82	-230,000
987,98	168,182
988,15	585,714
988,31	177,143
988,48	121,569
988,65	290,000
988,81	114,545
988,98	381,081
989,14	470,000
989,31	137,288
989,47	-103,571
989,64	455,556
989,80	130,851
989,97	245,455
990,14	792,857
990,30	-1037,500
990,47	-220,833
990,63	205,263
990,80	1283,333
990,96	833,333
991,13	246,667
991,29	150,980
991,46	204,167
991,62	0,000
991,79	-270,000
991,95	629,412
992,12	1016,667
992,29	-357,143
992,45	226,190
992,62	-150,000
992,78	-1583,333
992,95	232,258
993,11	1162,500
993,28	-4800,000
993,44	-282,759
993,61	207,018
993,77	0,000
993,94	287,179
994,10	1157,143
994,27	-168,421
994,43	346,875
994,60	664,286
994,76	196,970
994,93	-540,000
995,09	-443,750
995,26	337,500
995,42	437,500
995,59	340,000
995,75	-800,000
995,92	-1471,429
996,08	-1220,000
996,25	224,242
996,41	1160,000
996,58	356,000
996,74	-680,000
996,91	158,065
997,07	264,000
997,23	156,863
997,40	1116,667
997,56	-3966,667
997,73	260,870
997,89	1860,000
998,06	159,649
998,22	217,021
998,39	255,102
998,55	452,632
998,72	-7200,000
998,88	174,000
999,05	740,000
999,21	464,706
999,37	202,326
999,54	248,387
999,70	433,333
999,87	966,667
1000,03	416,667
1000,20	471,429
1000,36	-725,000
1000,52	400,000
1000,69	512,000
1000,85	-416,667
1001,02	471,429
1001,18	2020,000
1001,35	0,000
1001,51	642,857
1001,67	355,000
1001,84	178,049
1002,00	-545,455
1002,17	1650,000
1002,33	-375,000
1002,50	958,333
1002,66	1012,500
1002,82	268,293
1002,99	-236,364
1003,15	-7200,000
1003,32	-350,000
1003,48	-1100,000
1003,64	421,739
1003,81	-252,632
1003,97	247,826
1004,14	-138,182
1004,30	536,364
1004,46	-8400,000
1004,63	-207,692
1004,79	175,676
1004,95	-1280,000
1005,12	-315,385
1005,28	322,222
1005,45	-1466,667
1005,61	284,615
1005,77	-1185,714
1005,94	315,217
1006,10	-400,000
1006,26	-196,296
1006,43	375,758
1006,59	387,097
1006,76	-276,000
1006,92	221,739
1007,08	112,121
1007,25	305,556
1007,41	400,000
1007,57	-429,412
1007,74	430,435
1007,90	-335,714
1008,06	-426,667
1008,23	-363,158
1008,39	227,778
1008,55	118,824
1008,72	-987,500
1008,88	-177,143
1009,04	-711,111
1009,21	196,875
1009,37	354,839
1009,53	-490,000
1009,70	-13,636
1009,86	521,053
1010,02	227,273
1010,19	673,333
1010,35	8200,000
1010,51	394,286
1010,68	354,545
1010,84	525,000
1011,00	607,143
1011,17	3600,000
1011,33	380,769
1011,49	568,750
1011,66	425,000
1011,82	-1300,000
1011,98	640,000
1012,14	484,615
1012,31	259,091
1012,47	-1100,000
1012,63	3500,000
1012,80	577,778
1012,96	138,889
1013,12	-133,333
1013,29	370,833
1013,45	-179,412
1013,61	-980,000
1013,77	-422,222
1013,94	370,833
1014,10	7200,000
1014,26	-102,941
1014,43	294,737
1014,59	0,000
1014,75	540,000
1014,91	148,571
1015,08	296,154
1015,24	466,667
1015,40	660,000
1015,56	682,353
1015,73	185,714
1015,89	544,444
1016,05	235,135
1016,21	111,111
1016,38	207,895
1016,54	-420,000
1016,70	436,842
1016,86	-600,000
1017,03	0,000
1017,19	762,500
1017,35	390,000
1017,51	1000,000
1017,68	914,286
1017,84	605,263
1018,00	171,429
1018,16	-481,250
1018,33	790,909
1018,49	500,000
1018,65	-481,818
1018,81	-82,927
1018,97	592,308
1019,14	-1271,429
1019,30	409,524
1019,46	182,051
1019,62	3000,000
1019,79	-357,143
1019,95	-1125,000
1020,11	1040,000
1020,27	160,000
1020,43	-875,000
1020,60	0,000
1020,76	157,353
1020,92	9100,000
1021,08	-133,333
1021,24	-3700,000
1021,41	339,394
1021,57	-245,833
1021,73	0,000
1021,89	-459,091
1022,05	325,714
1022,21	92,308
1022,38	368,421
1022,54	1220,000
1022,70	325,926
1022,86	-2300,000
1023,02	800,000
1023,19	-455,000
1023,35	173,585
1023,51	325,806
1023,67	200,000
1023,83	890,909
1023,99	214,286
1024,16	1,538
1024,32	387,500
1024,48	148,980
1024,64	-1100,000
1024,80	716,667
1024,96	453,846
1025,12	2600,000
1025,29	-1425,000
1025,45	354,167
1025,61	4166,667
1025,77	419,048
1025,93	-184,615
1026,09	3650,000
1026,26	-1542,857
1026,42	-1875,000
1026,58	140,385
1026,74	1328,571
1026,90	394,737
1027,06	-340,000
1027,22	-625,000
1027,38	822,222
1027,55	-264,000
1027,71	837,500
1027,87	255,000
1028,03	142,424
1028,19	-187,879
1028,35	104,054
1028,51	-66,129
1028,67	-1660,000
1028,83	204,762
1029,00	585,714
1029,16	-520,000
1029,32	229,412
1029,48	3700,000
1029,64	1128,571
1029,80	1466,667
1029,96	229,412
1030,12	-400,000
1030,28	2700,000
1030,44	-1900,000
1030,61	228,125
1030,77	-113,043
1030,93	248,837
1031,09	-657,143
1031,25	-588,889
1031,41	-4600,000
1031,57	-15,789
1031,73	600,000
1031,89	-200,000
1032,05	800,000
1032,21	910,000
1032,37	-108,824
1032,53	-170,000
1032,69	-6700,000
1032,86	1166,667
1033,02	275,000
1033,18	-523,077
1033,34	-361,538
1033,50	200,000
1033,66	-122,222
1033,82	382,143
1033,98	-494,118
1034,14	1277,778
1034,30	-245,455
1034,46	412,500
1034,62	772,222
1034,78	158,730
1034,94	-203,226
1035,10	-350,000
1035,26	-755,556
1035,42	134,286
1035,58	940,000
1035,74	-123,333
1035,90	-775,000
1036,06	222,642
1036,22	-244,000
1036,38	513,333
1036,54	630,000
1036,70	-4000,000
1036,86	-521,429
1037,02	-2800,000
1037,18	-132,143
1037,34	473,913
1037,50	-420,000
1037,66	-2533,333
1037,82	-294,118
1037,98	509,524
1038,14	-251,724
1038,30	26,923
1038,46	202,083
1038,62	161,290
1038,78	302,381
1038,94	-157,895
1039,10	-387,500
1039,26	-442,105
1039,42	-571,429
1039,58	156,604
1039,74	59,375
1039,90	-79,487
1040,06	688,235
>>>>>End Processed Spectral Data<<<<<
