SpectraSuite Data File
++++++++++++++++++++++++++++++++++++
Date: Thu Feb 02 18:50:28 EET 2017
User: optolab
Dark Spectrum Present: Yes
Reference Spectrum Present: Yes
Number of Sampled Component Spectra: 1
Spectrometers: USB4C02475
Integration Time (usec): 151411 (USB4C02475)
Spectra Averaged: 1 (USB4C02475)
Boxcar Smoothing: 0 (USB4C02475)
Correct for Electrical Dark: No (USB4C02475)
Strobe/Lamp Enabled: No (USB4C02475)
Correct for Detector Non-linearity: No (USB4C02475)
Correct for Stray Light: No (USB4C02475)
Number of Pixels in Processed Spectrum: 3648
>>>>>Begin Processed Spectral Data<<<<<
344,91	107,407
345,13	107,407
345,35	107,407
345,57	-210,000
345,79	-61,538
346,00	36,000
346,22	-10,811
346,44	-84,615
346,66	400,000
346,87	60,000
347,09	-2500,000
347,31	600,000
347,53	146,154
347,74	162,500
347,96	-211,111
348,18	192,683
348,40	-86,667
348,61	66,667
348,83	38,889
349,05	1,818
349,27	61,765
349,48	11,765
349,70	109,091
349,92	-14,634
350,14	-350,000
350,35	-46,154
350,57	19,118
350,79	6,383
351,01	158,065
351,22	214,286
351,44	17,778
351,66	80,488
351,87	-4,545
352,09	36,538
352,31	69,565
352,53	82,258
352,74	-106,250
352,96	48,980
353,18	104,545
353,40	28,571
353,61	23,333
353,83	84,000
354,05	3,448
354,26	31,818
354,48	95,455
354,70	41,250
354,92	52,381
355,13	77,551
355,35	200,000
355,57	32,468
355,78	147,500
356,00	16,279
356,22	89,552
356,44	0,000
356,65	58,974
356,87	60,494
357,09	-55,072
357,30	110,811
357,52	-22,857
357,74	49,231
357,95	-61,111
358,17	-30,556
358,39	775,000
358,60	60,000
358,82	62,500
359,04	44,444
359,26	42,222
359,47	56,897
359,69	1175,000
359,91	3,125
360,12	17,460
360,34	263,158
360,56	65,263
360,77	33,333
360,99	-110,000
361,21	78,205
361,42	20,000
361,64	16,667
361,86	59,341
362,07	67,327
362,29	-350,000
362,51	1,852
362,72	-30,000
362,94	70,000
363,16	102,899
363,37	96,875
363,59	34,066
363,81	16,949
364,02	18,182
364,24	10,769
364,46	0,000
364,67	25,000
364,89	2,703
365,11	400,000
365,32	78,947
365,54	-95,652
365,76	37,500
365,97	100,000
366,19	38,596
366,41	13,846
366,62	70,000
366,84	-50,000
367,05	4,167
367,27	36,364
367,49	46,970
367,70	51,087
367,92	59,494
368,14	39,785
368,35	76,543
368,57	37,778
368,79	8,108
369,00	42,857
369,22	20,833
369,43	28,571
369,65	40,476
369,87	62,963
370,08	53,623
370,30	47,059
370,51	67,176
370,73	28,571
370,95	24,742
371,16	31,818
371,38	41,096
371,60	43,023
371,81	40,000
372,03	74,545
372,24	81,579
372,46	25,000
372,68	31,646
372,89	20,175
373,11	33,333
373,32	-39,683
373,54	25,000
373,76	50,420
373,97	15,447
374,19	27,778
374,40	55,652
374,62	10,227
374,84	-20,388
375,05	0,000
375,27	26,190
375,48	32,468
375,70	39,865
375,92	45,652
376,13	21,905
376,35	51,220
376,56	8,974
376,78	32,308
376,99	15,584
377,21	0,000
377,43	20,833
377,64	53,390
377,86	1,075
378,07	46,842
378,29	37,273
378,51	30,469
378,72	32,407
378,94	16,084
379,15	17,606
379,37	26,277
379,58	59,829
379,80	24,862
380,01	15,000
380,23	16,418
380,45	21,000
380,66	23,611
380,88	19,412
381,09	-15,909
381,31	23,529
381,52	25,676
381,74	16,352
381,95	-7,895
382,17	20,787
382,39	18,675
382,60	11,511
382,82	26,241
383,03	36,667
383,25	9,220
383,46	-18,261
383,68	43,038
383,89	64,835
384,11	-10,714
384,32	59,286
384,54	-52,381
384,76	28,902
384,97	35,795
385,19	-3,200
385,40	2,976
385,62	20,745
385,83	23,226
386,05	-1,399
386,26	27,513
386,48	7,143
386,69	20,000
386,91	18,378
387,12	7,979
387,34	4,972
387,55	28,431
387,77	-3,743
387,98	37,963
388,20	14,286
388,41	24,900
388,63	22,381
388,84	2,685
389,06	14,754
389,27	17,051
389,49	16,990
389,70	13,830
389,92	33,005
390,13	-18,243
390,35	20,982
390,56	18,852
390,78	18,828
390,99	27,461
391,21	37,745
391,42	9,312
391,64	6,918
391,85	18,974
392,07	17,033
392,28	31,746
392,50	17,692
392,71	27,638
392,93	12,863
393,14	14,754
393,36	13,964
393,57	23,176
393,79	6,393
394,00	-20,000
394,22	19,095
394,43	3,965
394,65	27,801
394,86	14,449
395,08	17,341
395,29	0,889
395,50	20,175
395,72	8,085
395,93	21,901
396,15	33,455
396,36	17,327
396,58	11,659
396,79	16,438
397,01	11,814
397,22	8,614
397,44	26,582
397,65	15,548
397,87	23,552
398,08	30,097
398,29	9,764
398,51	34,808
398,72	16,544
398,94	20,345
399,15	11,328
399,37	27,397
399,58	5,490
399,80	31,897
400,01	22,492
400,22	3,679
400,44	-3,766
400,65	18,667
400,87	35,948
401,08	20,202
401,30	4,778
401,51	29,213
401,72	5,515
401,94	14,685
402,15	13,824
402,37	22,527
402,58	10,702
402,80	16,621
403,01	16,316
403,22	17,330
403,44	34,014
403,65	-2,448
403,87	9,846
404,08	29,605
404,30	12,640
404,51	26,197
404,72	10,092
404,94	21,485
405,15	3,741
405,37	9,972
405,58	12,255
405,79	19,681
406,01	19,777
406,22	17,259
406,44	2,887
406,65	25,182
406,86	20,233
407,08	8,078
407,29	22,905
407,51	16,053
407,72	13,263
407,93	12,401
408,15	15,513
408,36	7,317
408,58	25,346
408,79	21,818
409,00	16,916
409,22	10,208
409,43	10,500
409,64	6,652
409,86	14,153
410,07	18,341
410,29	14,444
410,50	17,551
410,71	4,709
410,93	15,682
411,14	18,655
411,35	18,735
411,57	5,023
411,78	17,517
412,00	15,119
412,21	24,574
412,42	10,698
412,64	4,497
412,85	1,573
413,06	13,429
413,28	18,163
413,49	1,486
413,70	12,261
413,92	12,364
414,13	10,387
414,34	17,778
414,56	10,769
414,77	14,120
414,98	19,813
415,20	11,284
415,41	21,519
415,63	3,288
415,84	17,148
416,05	13,267
416,27	12,409
416,48	3,683
416,69	8,377
416,91	13,663
417,12	6,667
417,33	2,809
417,55	9,839
417,76	18,278
417,97	14,038
418,19	7,678
418,40	15,972
418,61	13,447
418,83	6,929
419,04	15,114
419,25	18,413
419,46	14,286
419,68	18,548
419,89	15,018
420,10	17,647
420,32	10,046
420,53	17,752
420,74	12,081
420,96	13,839
421,17	10,143
421,38	12,113
421,60	11,129
421,81	7,879
422,02	15,221
422,23	13,031
422,45	11,111
422,66	13,269
422,87	15,475
423,09	8,621
423,30	6,698
423,51	6,677
423,73	14,511
423,94	11,019
424,15	11,236
424,36	10,180
424,58	8,298
424,79	10,847
425,00	10,123
425,22	11,013
425,43	8,177
425,64	10,725
425,85	16,447
426,07	8,038
426,28	11,971
426,49	5,483
426,71	13,690
426,92	8,892
427,13	6,084
427,34	11,973
427,56	7,390
427,77	11,877
427,98	10,532
428,19	12,061
428,41	11,199
428,62	8,314
428,83	11,073
429,04	9,954
429,26	12,542
429,47	10,583
429,68	5,528
429,89	9,639
430,11	13,409
430,32	9,302
430,53	12,043
430,74	6,653
430,96	16,053
431,17	11,226
431,38	13,358
431,59	10,339
431,81	11,566
432,02	11,051
432,23	9,728
432,44	6,300
432,66	10,596
432,87	9,930
433,08	9,479
433,29	7,895
433,51	10,250
433,72	5,151
433,93	8,534
434,14	8,447
434,35	7,973
434,57	8,118
434,78	3,355
434,99	9,032
435,20	11,339
435,42	7,889
435,63	6,606
435,84	9,181
436,05	6,878
436,26	8,896
436,48	9,194
436,69	7,372
436,90	7,773
437,11	10,939
437,32	8,791
437,54	6,786
437,75	10,441
437,96	6,424
438,17	10,438
438,38	7,911
438,60	4,341
438,81	7,259
439,02	9,143
439,23	7,069
439,44	5,325
439,66	8,464
439,87	4,489
440,08	6,798
440,29	5,312
440,50	5,716
440,72	5,662
440,93	4,732
441,14	7,825
441,35	7,708
441,56	6,408
441,77	5,237
441,99	6,635
442,20	6,551
442,41	7,290
442,62	5,858
442,83	7,064
443,04	5,689
443,26	4,890
443,47	5,876
443,68	4,488
443,89	7,102
444,10	2,414
444,31	6,812
444,53	4,352
444,74	3,138
444,95	5,420
445,16	4,032
445,37	5,405
445,58	5,277
445,80	4,718
446,01	5,025
446,22	3,994
446,43	3,423
446,64	4,054
446,85	3,671
447,06	4,210
447,28	2,836
447,49	3,403
447,70	3,425
447,91	4,194
448,12	4,318
448,33	4,183
448,54	4,561
448,76	3,360
448,97	3,778
449,18	3,880
449,39	3,665
449,60	3,823
449,81	3,882
450,02	3,541
450,23	3,645
450,45	3,049
450,66	4,029
450,87	3,914
451,08	3,732
451,29	2,992
451,50	2,630
451,71	2,397
451,92	2,835
452,13	3,750
452,35	3,563
452,56	2,863
452,77	2,276
452,98	3,305
453,19	3,003
453,40	2,784
453,61	2,896
453,82	2,752
454,03	2,186
454,25	1,870
454,46	2,222
454,67	2,041
454,88	2,449
455,09	2,183
455,30	1,991
455,51	2,054
455,72	2,138
455,93	2,222
456,14	2,810
456,35	1,712
456,56	2,351
456,78	2,174
456,99	2,186
457,20	1,886
457,41	1,895
457,62	2,291
457,83	1,433
458,04	1,830
458,25	1,588
458,46	1,542
458,67	1,964
458,88	1,431
459,09	1,341
459,30	1,630
459,51	1,610
459,73	1,425
459,94	1,371
460,15	1,584
460,36	1,714
460,57	1,366
460,78	1,506
460,99	1,417
461,20	1,296
461,41	1,328
461,62	1,286
461,83	1,569
462,04	1,243
462,25	1,264
462,46	1,532
462,67	1,388
462,88	1,540
463,09	1,484
463,30	1,193
463,51	1,287
463,72	1,387
463,93	1,410
464,15	1,336
464,36	1,380
464,57	1,294
464,78	1,218
464,99	1,449
465,20	1,319
465,41	1,467
465,62	1,400
465,83	1,526
466,04	1,313
466,25	1,297
466,46	1,521
466,67	1,447
466,88	1,501
467,09	1,397
467,30	1,516
467,51	1,061
467,72	1,316
467,93	1,474
468,14	1,344
468,35	1,139
468,56	1,324
468,77	1,608
468,98	1,460
469,19	1,498
469,40	1,583
469,61	1,475
469,82	1,299
470,03	1,260
470,24	1,670
470,45	1,487
470,66	1,587
470,87	1,638
471,08	1,579
471,29	1,468
471,50	1,558
471,71	1,697
471,92	1,304
472,13	1,478
472,34	1,555
472,55	1,679
472,76	1,543
472,97	1,656
473,18	1,820
473,39	1,699
473,60	1,728
473,81	1,782
474,01	1,739
474,22	1,661
474,43	1,902
474,64	1,654
474,85	1,928
475,06	1,811
475,27	1,854
475,48	2,226
475,69	2,257
475,90	1,874
476,11	2,265
476,32	2,038
476,53	2,175
476,74	2,239
476,95	2,131
477,16	2,396
477,37	2,304
477,58	2,520
477,79	2,425
478,00	2,189
478,21	2,472
478,41	2,294
478,62	2,160
478,83	2,304
479,04	2,176
479,25	2,640
479,46	2,196
479,67	2,635
479,88	2,337
480,09	2,333
480,30	2,693
480,51	2,634
480,72	2,861
480,93	2,615
481,14	2,534
481,34	2,934
481,55	2,619
481,76	2,737
481,97	2,764
482,18	2,937
482,39	2,562
482,60	2,933
482,81	2,707
483,02	2,679
483,23	2,786
483,44	2,747
483,65	2,946
483,85	2,835
484,06	2,933
484,27	2,977
484,48	3,204
484,69	2,814
484,90	3,044
485,11	2,830
485,32	3,032
485,53	2,914
485,73	3,189
485,94	2,939
486,15	2,830
486,36	2,847
486,57	2,950
486,78	3,202
486,99	3,161
487,20	3,157
487,41	3,200
487,61	3,167
487,82	3,230
488,03	3,190
488,24	2,785
488,45	2,986
488,66	2,892
488,87	3,185
489,08	2,898
489,28	3,274
489,49	3,132
489,70	3,380
489,91	2,959
490,12	3,161
490,33	3,163
490,54	3,075
490,74	3,505
490,95	3,345
491,16	3,251
491,37	3,381
491,58	3,493
491,79	3,408
492,00	3,282
492,20	3,376
492,41	3,404
492,62	3,383
492,83	3,368
493,04	3,589
493,25	3,641
493,45	3,491
493,66	3,750
493,87	3,418
494,08	3,517
494,29	3,288
494,50	3,399
494,70	3,609
494,91	3,473
495,12	3,470
495,33	3,527
495,54	3,579
495,75	3,608
495,95	3,746
496,16	3,613
496,37	3,626
496,58	3,397
496,79	3,520
496,99	3,739
497,20	3,734
497,41	3,741
497,62	3,487
497,83	3,610
498,04	3,543
498,24	3,950
498,45	3,604
498,66	3,873
498,87	3,974
499,08	4,242
499,28	3,827
499,49	3,801
499,70	3,889
499,91	3,935
500,12	3,600
500,32	3,912
500,53	3,622
500,74	4,045
500,95	3,998
501,15	3,952
501,36	3,985
501,57	3,773
501,78	3,719
501,99	3,913
502,19	3,815
502,40	4,073
502,61	3,850
502,82	4,138
503,02	3,889
503,23	3,938
503,44	3,837
503,65	4,322
503,86	4,067
504,06	3,906
504,27	4,243
504,48	4,385
504,69	4,030
504,89	4,164
505,10	4,174
505,31	4,039
505,52	4,173
505,72	3,905
505,93	4,593
506,14	4,325
506,35	4,372
506,55	4,175
506,76	4,099
506,97	4,282
507,18	4,326
507,38	4,189
507,59	4,232
507,80	4,554
508,01	4,572
508,21	4,424
508,42	4,441
508,63	4,549
508,84	4,588
509,04	4,597
509,25	4,566
509,46	4,720
509,67	4,530
509,87	4,644
510,08	4,348
510,29	4,614
510,49	4,257
510,70	4,599
510,91	4,652
511,12	4,523
511,32	4,705
511,53	4,753
511,74	4,509
511,94	4,756
512,15	4,458
512,36	4,557
512,57	4,649
512,77	4,782
512,98	4,636
513,19	4,743
513,39	4,659
513,60	4,652
513,81	5,109
514,01	4,494
514,22	5,008
514,43	4,974
514,64	4,923
514,84	5,057
515,05	4,858
515,26	4,869
515,46	5,176
515,67	5,198
515,88	5,248
516,08	4,668
516,29	5,099
516,50	5,193
516,70	5,147
516,91	5,145
517,12	4,948
517,32	5,042
517,53	5,280
517,74	5,222
517,95	5,262
518,15	5,351
518,36	5,017
518,57	5,144
518,77	5,528
518,98	5,562
519,19	5,515
519,39	5,367
519,60	5,420
519,80	5,390
520,01	5,680
520,22	5,360
520,42	5,309
520,63	5,245
520,84	5,348
521,04	5,288
521,25	5,426
521,46	5,348
521,66	5,525
521,87	5,459
522,08	5,518
522,28	5,793
522,49	5,889
522,70	5,700
522,90	5,789
523,11	6,036
523,31	6,192
523,52	5,923
523,73	5,854
523,93	5,886
524,14	5,770
524,35	6,015
524,55	6,170
524,76	6,006
524,97	6,121
525,17	6,024
525,38	6,331
525,58	6,048
525,79	6,545
526,00	6,379
526,20	6,657
526,41	6,187
526,61	6,285
526,82	6,452
527,03	6,545
527,23	6,622
527,44	6,693
527,64	6,710
527,85	6,814
528,06	6,542
528,26	6,388
528,47	7,105
528,68	6,330
528,88	6,599
529,09	6,794
529,29	6,941
529,50	6,905
529,70	6,829
529,91	6,603
530,12	7,154
530,32	7,147
530,53	7,232
530,73	6,889
530,94	7,144
531,15	7,063
531,35	6,909
531,56	7,012
531,76	6,870
531,97	6,813
532,17	7,408
532,38	7,077
532,59	7,337
532,79	7,291
533,00	7,167
533,20	7,386
533,41	6,925
533,61	7,270
533,82	7,715
534,03	7,789
534,23	7,631
534,44	7,600
534,64	7,537
534,85	7,594
535,05	7,759
535,26	7,614
535,46	7,986
535,67	8,132
535,88	7,735
536,08	8,397
536,29	7,939
536,49	7,896
536,70	8,011
536,90	7,744
537,11	7,891
537,31	7,663
537,52	8,174
537,72	8,248
537,93	7,716
538,13	8,157
538,34	8,142
538,55	8,561
538,75	8,338
538,96	8,167
539,16	7,932
539,37	7,976
539,57	7,899
539,78	7,491
539,98	7,960
540,19	7,966
540,39	8,279
540,60	8,442
540,80	8,026
541,01	8,442
541,21	8,271
541,42	8,568
541,62	8,054
541,83	8,112
542,03	8,678
542,24	8,805
542,44	8,483
542,65	8,258
542,85	8,814
543,06	8,227
543,26	8,725
543,47	8,667
543,67	8,911
543,88	8,972
544,08	8,825
544,29	8,631
544,49	8,841
544,70	8,772
544,90	8,702
545,11	9,135
545,31	9,203
545,52	8,603
545,72	9,281
545,93	8,775
546,13	9,292
546,34	9,277
546,54	9,371
546,75	8,834
546,95	9,047
547,15	9,371
547,36	8,742
547,56	9,246
547,77	9,116
547,97	9,282
548,18	8,911
548,38	9,583
548,59	8,987
548,79	9,366
549,00	9,334
549,20	9,528
549,41	9,680
549,61	9,685
549,81	9,443
550,02	9,402
550,22	9,415
550,43	9,614
550,63	9,300
550,84	10,039
551,04	9,164
551,25	9,351
551,45	9,210
551,65	9,587
551,86	9,332
552,06	9,909
552,27	9,770
552,47	10,136
552,68	10,013
552,88	9,824
553,08	9,104
553,29	9,765
553,49	9,465
553,70	9,163
553,90	9,420
554,11	9,493
554,31	9,866
554,51	9,819
554,72	10,275
554,92	9,984
555,13	9,898
555,33	9,892
555,53	10,225
555,74	9,870
555,94	9,907
556,15	10,349
556,35	10,079
556,56	10,213
556,76	9,497
556,96	9,867
557,17	9,785
557,37	9,864
557,58	9,936
557,78	9,918
557,98	9,810
558,19	9,939
558,39	10,508
558,59	9,794
558,80	10,067
559,00	10,396
559,21	10,215
559,41	9,804
559,61	10,205
559,82	10,409
560,02	10,045
560,23	10,173
560,43	10,109
560,63	9,949
560,84	10,143
561,04	10,451
561,24	9,293
561,45	10,147
561,65	10,076
561,85	10,315
562,06	10,116
562,26	10,202
562,47	9,753
562,67	10,050
562,87	10,214
563,08	10,169
563,28	10,430
563,48	10,185
563,69	10,048
563,89	10,684
564,09	10,272
564,30	10,354
564,50	10,317
564,70	10,705
564,91	10,058
565,11	10,191
565,31	9,867
565,52	10,129
565,72	10,193
565,92	10,372
566,13	10,224
566,33	10,038
566,53	10,280
566,74	10,239
566,94	10,268
567,14	10,194
567,35	10,097
567,55	9,846
567,75	10,121
567,96	10,164
568,16	10,381
568,36	10,090
568,57	10,353
568,77	10,013
568,97	10,064
569,18	10,397
569,38	10,477
569,58	10,491
569,79	10,403
569,99	10,507
570,19	9,837
570,39	10,559
570,60	10,568
570,80	10,519
571,00	10,549
571,21	9,849
571,41	10,481
571,61	9,998
571,82	10,715
572,02	10,731
572,22	10,155
572,42	10,326
572,63	10,237
572,83	9,617
573,03	10,061
573,24	10,140
573,44	9,829
573,64	10,467
573,84	10,446
574,05	10,110
574,25	10,615
574,45	10,479
574,66	10,123
574,86	10,671
575,06	9,979
575,26	10,079
575,47	10,786
575,67	10,189
575,87	10,710
576,07	10,324
576,28	10,458
576,48	10,375
576,68	10,252
576,88	9,945
577,09	9,956
577,29	10,091
577,49	9,800
577,69	10,455
577,90	10,400
578,10	10,051
578,30	9,976
578,50	9,713
578,71	10,353
578,91	9,964
579,11	10,111
579,31	10,156
579,52	10,246
579,72	10,101
579,92	10,144
580,12	10,091
580,33	9,757
580,53	10,405
580,73	10,058
580,93	10,014
581,13	10,200
581,34	10,019
581,54	9,776
581,74	10,333
581,94	9,929
582,15	10,123
582,35	10,236
582,55	9,879
582,75	9,917
582,95	9,770
583,16	9,598
583,36	9,848
583,56	9,811
583,76	9,680
583,96	9,983
584,17	9,844
584,37	9,536
584,57	10,296
584,77	9,879
584,97	9,529
585,18	9,763
585,38	9,483
585,58	9,832
585,78	9,681
585,98	9,591
586,19	9,312
586,39	10,089
586,59	9,988
586,79	9,927
586,99	9,700
587,20	9,558
587,40	9,622
587,60	9,050
587,80	9,133
588,00	9,369
588,20	9,375
588,41	9,732
588,61	8,843
588,81	9,065
589,01	9,246
589,21	9,451
589,41	9,313
589,62	9,325
589,82	9,135
590,02	9,348
590,22	9,031
590,42	9,279
590,62	9,330
590,83	9,350
591,03	9,048
591,23	9,524
591,43	9,126
591,63	9,068
591,83	9,295
592,03	8,958
592,24	9,310
592,44	8,989
592,64	9,065
592,84	8,755
593,04	9,033
593,24	8,919
593,44	8,549
593,65	8,872
593,85	8,521
594,05	8,570
594,25	8,364
594,45	8,713
594,65	8,740
594,85	8,820
595,06	9,036
595,26	8,750
595,46	8,985
595,66	8,732
595,86	8,952
596,06	8,788
596,26	8,872
596,46	8,592
596,66	8,873
596,87	8,927
597,07	8,733
597,27	8,925
597,47	8,739
597,67	8,672
597,87	8,620
598,07	8,824
598,27	9,254
598,47	8,966
598,67	8,839
598,88	8,751
599,08	8,991
599,28	9,107
599,48	9,181
599,68	9,138
599,88	9,648
600,08	9,273
600,28	9,606
600,48	9,406
600,68	9,791
600,88	9,319
601,09	9,571
601,29	9,405
601,49	9,606
601,69	9,685
601,89	9,543
602,09	9,902
602,29	9,769
602,49	10,081
602,69	10,240
602,89	10,034
603,09	9,607
603,29	10,356
603,49	10,167
603,69	9,713
603,90	9,812
604,10	9,467
604,30	9,896
604,50	10,061
604,70	9,646
604,90	10,241
605,10	9,871
605,30	10,432
605,50	10,186
605,70	10,393
605,90	10,497
606,10	10,215
606,30	10,250
606,50	10,630
606,70	10,585
606,90	10,256
607,10	10,550
607,30	10,447
607,50	10,582
607,70	10,646
607,90	10,322
608,10	10,352
608,30	9,994
608,50	10,082
608,70	10,488
608,90	10,160
609,11	10,092
609,31	10,138
609,51	10,304
609,71	10,410
609,91	10,546
610,11	10,234
610,31	10,549
610,51	10,267
610,71	10,245
610,91	10,058
611,11	10,555
611,31	10,572
611,51	10,418
611,71	10,715
611,91	10,209
612,11	10,669
612,31	10,243
612,51	10,603
612,71	10,565
612,91	10,722
613,11	10,831
613,31	10,661
613,51	10,677
613,71	10,571
613,91	10,529
614,11	10,487
614,31	10,373
614,50	10,735
614,70	10,586
614,90	10,471
615,10	10,598
615,30	10,529
615,50	10,428
615,70	10,520
615,90	10,622
616,10	10,553
616,30	10,302
616,50	10,380
616,70	10,994
616,90	10,922
617,10	10,704
617,30	10,677
617,50	10,705
617,70	10,733
617,90	10,656
618,10	10,286
618,30	10,472
618,50	10,506
618,70	10,379
618,90	10,823
619,10	10,518
619,30	10,593
619,49	10,879
619,69	10,846
619,89	10,708
620,09	10,709
620,29	10,712
620,49	10,725
620,69	10,770
620,89	11,256
621,09	11,284
621,29	10,592
621,49	10,998
621,69	10,844
621,89	10,799
622,09	11,090
622,29	11,257
622,48	10,901
622,68	11,199
622,88	10,932
623,08	11,221
623,28	11,201
623,48	11,046
623,68	11,313
623,88	11,120
624,08	11,061
624,28	11,658
624,48	10,921
624,67	11,405
624,87	11,065
625,07	10,905
625,27	11,454
625,47	11,540
625,67	11,246
625,87	11,199
626,07	11,220
626,27	11,289
626,47	11,510
626,66	11,252
626,86	11,614
627,06	11,468
627,26	11,684
627,46	11,468
627,66	11,703
627,86	11,459
628,06	11,917
628,25	11,306
628,45	11,584
628,65	11,426
628,85	11,625
629,05	11,515
629,25	11,717
629,45	12,044
629,65	11,931
629,84	11,792
630,04	11,803
630,24	11,681
630,44	11,934
630,64	12,347
630,84	12,124
631,04	11,878
631,23	11,971
631,43	11,603
631,63	12,071
631,83	11,809
632,03	12,105
632,23	11,792
632,42	12,386
632,62	12,516
632,82	12,167
633,02	12,806
633,22	12,179
633,42	12,797
633,62	12,462
633,81	12,978
634,01	12,964
634,21	13,041
634,41	13,384
634,61	13,222
634,80	13,502
635,00	13,187
635,20	13,221
635,40	13,799
635,60	13,956
635,80	13,984
635,99	13,852
636,19	14,169
636,39	15,146
636,59	16,145
636,79	16,180
636,98	16,919
637,18	18,166
637,38	19,267
637,58	19,739
637,78	21,936
637,97	23,329
638,17	25,223
638,37	26,819
638,57	28,998
638,77	30,441
638,96	32,393
639,16	33,845
639,36	35,919
639,56	37,532
639,76	39,274
639,95	42,169
640,15	43,910
640,35	45,744
640,55	48,759
640,75	50,710
640,94	52,703
641,14	55,876
641,34	59,757
641,54	62,388
641,73	64,734
641,93	67,176
642,13	69,713
642,33	71,864
642,53	75,291
642,72	76,687
642,92	79,371
643,12	79,997
643,32	81,676
643,51	82,674
643,71	83,584
643,91	84,227
644,11	84,552
644,30	85,801
644,50	85,873
644,70	86,430
644,90	86,401
645,09	87,389
645,29	87,874
645,49	87,920
645,69	88,293
645,88	87,273
646,08	86,277
646,28	87,818
646,48	87,821
646,67	87,210
646,87	87,556
647,07	86,785
647,26	87,654
647,46	87,242
647,66	86,737
647,86	86,385
648,05	87,262
648,25	86,233
648,45	85,366
648,65	85,307
648,84	83,753
649,04	85,226
649,24	84,027
649,43	82,341
649,63	81,629
649,83	79,865
650,03	78,449
650,22	77,107
650,42	74,424
650,62	74,472
650,81	72,870
651,01	70,354
651,21	68,033
651,40	66,027
651,60	63,492
651,80	61,094
652,00	57,490
652,19	55,107
652,39	52,033
652,59	49,129
652,78	46,568
652,98	43,057
653,18	41,137
653,37	37,535
653,57	34,851
653,77	32,127
653,96	30,489
654,16	27,872
654,36	25,236
654,55	22,953
654,75	21,865
654,95	20,079
655,14	18,347
655,34	17,620
655,54	16,900
655,73	15,872
655,93	15,025
656,13	14,401
656,32	14,001
656,52	13,292
656,72	12,646
656,91	12,721
657,11	12,052
657,31	12,410
657,50	11,910
657,70	11,784
657,90	11,724
658,09	11,471
658,29	11,662
658,49	11,262
658,68	11,167
658,88	11,338
659,07	10,786
659,27	11,274
659,47	11,338
659,66	10,975
659,86	11,377
660,06	11,459
660,25	11,434
660,45	11,323
660,64	11,031
660,84	11,503
661,04	11,202
661,23	11,171
661,43	11,089
661,63	10,955
661,82	10,780
662,02	10,838
662,21	10,620
662,41	10,921
662,61	10,796
662,80	10,737
663,00	10,826
663,19	11,224
663,39	10,813
663,59	11,256
663,78	11,270
663,98	11,112
664,17	10,681
664,37	10,792
664,57	10,778
664,76	11,056
664,96	10,944
665,15	10,816
665,35	10,943
665,55	11,273
665,74	10,926
665,94	10,677
666,13	10,765
666,33	10,945
666,53	10,959
666,72	10,946
666,92	11,005
667,11	10,960
667,31	11,136
667,50	10,874
667,70	10,700
667,90	10,632
668,09	10,419
668,29	10,409
668,48	10,429
668,68	10,580
668,87	10,468
669,07	10,643
669,26	10,707
669,46	10,260
669,66	10,740
669,85	10,553
670,05	10,702
670,24	10,635
670,44	10,548
670,63	10,603
670,83	10,537
671,02	10,240
671,22	10,916
671,42	10,519
671,61	10,689
671,81	10,719
672,00	10,735
672,20	10,821
672,39	10,773
672,59	10,648
672,78	10,828
672,98	10,706
673,17	10,601
673,37	10,634
673,56	10,607
673,76	10,723
673,95	10,494
674,15	10,752
674,34	10,282
674,54	10,465
674,73	10,190
674,93	10,669
675,13	10,550
675,32	10,578
675,52	10,373
675,71	10,495
675,91	10,505
676,10	10,390
676,30	10,432
676,49	10,758
676,69	10,580
676,88	10,929
677,08	10,688
677,27	10,541
677,47	10,742
677,66	10,991
677,86	10,733
678,05	10,740
678,24	10,543
678,44	10,653
678,63	10,589
678,83	10,841
679,02	10,483
679,22	10,758
679,41	10,636
679,61	10,538
679,80	10,803
680,00	10,970
680,19	10,963
680,39	10,726
680,58	10,869
680,78	10,847
680,97	10,797
681,17	10,946
681,36	11,053
681,56	10,817
681,75	10,819
681,94	10,533
682,14	10,732
682,33	10,559
682,53	10,684
682,72	10,741
682,92	10,546
683,11	11,022
683,31	10,950
683,50	10,796
683,69	10,821
683,89	10,510
684,08	10,670
684,28	10,452
684,47	10,437
684,67	10,628
684,86	10,247
685,06	10,281
685,25	10,448
685,44	10,466
685,64	10,312
685,83	10,627
686,03	10,322
686,22	10,549
686,42	10,845
686,61	10,518
686,80	10,255
687,00	10,388
687,19	10,612
687,39	10,545
687,58	10,554
687,77	10,202
687,97	10,804
688,16	10,900
688,36	10,629
688,55	10,732
688,74	10,266
688,94	10,491
689,13	11,088
689,33	10,704
689,52	10,404
689,71	10,698
689,91	10,190
690,10	10,356
690,30	10,406
690,49	10,515
690,68	10,536
690,88	10,700
691,07	10,427
691,27	10,406
691,46	10,320
691,65	10,751
691,85	10,400
692,04	10,462
692,23	10,537
692,43	10,549
692,62	10,604
692,82	10,574
693,01	10,366
693,20	10,463
693,40	10,418
693,59	10,565
693,78	10,515
693,98	9,979
694,17	10,312
694,36	10,205
694,56	10,372
694,75	10,470
694,94	10,809
695,14	10,471
695,33	10,337
695,53	10,593
695,72	10,354
695,91	10,549
696,11	10,636
696,30	10,157
696,49	10,429
696,69	10,484
696,88	10,366
697,07	10,175
697,27	10,480
697,46	10,632
697,65	10,999
697,85	10,320
698,04	10,842
698,23	10,388
698,43	10,554
698,62	10,495
698,81	10,616
699,01	10,844
699,20	10,182
699,39	10,214
699,58	10,299
699,78	10,411
699,97	10,197
700,16	10,621
700,36	10,183
700,55	10,391
700,74	10,218
700,94	10,547
701,13	10,191
701,32	10,381
701,52	10,483
701,71	10,561
701,90	10,509
702,09	10,342
702,29	10,556
702,48	10,437
702,67	10,687
702,87	10,576
703,06	10,488
703,25	10,060
703,44	10,732
703,64	10,587
703,83	10,333
704,02	10,368
704,22	10,761
704,41	10,394
704,60	10,573
704,79	10,662
704,99	10,887
705,18	10,878
705,37	11,073
705,56	10,386
705,76	10,337
705,95	10,524
706,14	10,534
706,33	10,656
706,53	10,609
706,72	10,373
706,91	10,603
707,11	10,247
707,30	10,448
707,49	10,418
707,68	10,380
707,88	10,343
708,07	10,211
708,26	10,474
708,45	10,026
708,64	10,775
708,84	10,270
709,03	10,479
709,22	10,741
709,41	10,369
709,61	10,549
709,80	10,602
709,99	10,555
710,18	10,431
710,38	10,527
710,57	10,592
710,76	10,669
710,95	10,725
711,14	10,493
711,34	10,677
711,53	10,287
711,72	10,393
711,91	10,120
712,11	10,457
712,30	10,620
712,49	10,092
712,68	10,238
712,87	10,180
713,07	10,671
713,26	9,878
713,45	10,149
713,64	10,548
713,83	10,527
714,03	10,725
714,22	10,501
714,41	10,846
714,60	10,630
714,79	10,527
714,99	10,094
715,18	10,244
715,37	10,474
715,56	10,977
715,75	10,598
715,94	10,700
716,14	10,225
716,33	10,444
716,52	10,036
716,71	10,098
716,90	10,096
717,10	10,053
717,29	10,113
717,48	10,227
717,67	10,316
717,86	10,638
718,05	10,213
718,24	10,377
718,44	10,356
718,63	10,260
718,82	10,881
719,01	10,397
719,20	10,316
719,39	10,110
719,59	10,019
719,78	10,007
719,97	10,341
720,16	10,471
720,35	9,990
720,54	10,302
720,73	10,432
720,93	10,249
721,12	10,348
721,31	10,478
721,50	10,314
721,69	10,300
721,88	10,166
722,07	10,316
722,27	10,483
722,46	10,387
722,65	10,378
722,84	10,338
723,03	10,286
723,22	10,427
723,41	10,324
723,60	10,215
723,79	9,767
723,99	10,341
724,18	10,309
724,37	10,177
724,56	10,525
724,75	10,690
724,94	10,753
725,13	10,726
725,32	9,992
725,51	10,553
725,71	10,595
725,90	10,296
726,09	10,194
726,28	10,704
726,47	10,652
726,66	10,659
726,85	10,483
727,04	10,462
727,23	10,167
727,42	9,786
727,61	9,850
727,81	9,912
728,00	10,235
728,19	10,190
728,38	10,532
728,57	9,886
728,76	10,337
728,95	10,209
729,14	10,048
729,33	10,609
729,52	10,436
729,71	10,343
729,90	10,336
730,09	10,353
730,28	10,328
730,48	10,834
730,67	10,097
730,86	10,410
731,05	10,095
731,24	10,403
731,43	10,360
731,62	10,374
731,81	9,977
732,00	10,425
732,19	10,425
732,38	10,153
732,57	10,386
732,76	9,902
732,95	10,120
733,14	10,201
733,33	10,416
733,52	10,438
733,71	10,352
733,90	10,136
734,09	10,348
734,28	10,253
734,47	10,296
734,66	9,822
734,85	9,926
735,04	10,255
735,23	10,020
735,42	10,658
735,61	10,104
735,81	10,341
736,00	9,989
736,19	10,023
736,38	10,022
736,57	9,742
736,76	9,924
736,95	9,689
737,14	9,728
737,33	10,428
737,52	10,008
737,71	9,849
737,90	10,359
738,09	10,141
738,28	10,320
738,47	10,389
738,66	10,106
738,85	10,027
739,04	10,075
739,22	10,134
739,41	10,449
739,60	10,405
739,79	10,461
739,98	10,409
740,17	9,822
740,36	9,837
740,55	10,040
740,74	10,326
740,93	10,226
741,12	10,498
741,31	9,993
741,50	10,235
741,69	9,987
741,88	10,691
742,07	10,530
742,26	10,818
742,45	10,238
742,64	10,183
742,83	10,339
743,02	10,590
743,21	10,197
743,40	10,342
743,59	10,541
743,78	10,186
743,97	10,447
744,16	10,428
744,34	10,171
744,53	10,456
744,72	10,261
744,91	9,857
745,10	10,107
745,29	10,332
745,48	10,148
745,67	10,436
745,86	10,392
746,05	10,044
746,24	10,612
746,43	10,357
746,62	10,817
746,81	11,142
747,00	10,776
747,18	10,316
747,37	10,649
747,56	10,279
747,75	10,937
747,94	11,003
748,13	10,933
748,32	10,498
748,51	10,743
748,70	10,579
748,89	10,327
749,08	10,302
749,26	10,634
749,45	10,244
749,64	10,604
749,83	10,387
750,02	10,777
750,21	10,886
750,40	10,554
750,59	10,515
750,78	10,779
750,96	11,078
751,15	10,902
751,34	11,225
751,53	11,194
751,72	11,000
751,91	11,057
752,10	10,968
752,29	11,640
752,47	11,579
752,66	11,294
752,85	11,807
753,04	12,016
753,23	11,701
753,42	12,147
753,61	12,254
753,80	12,200
753,98	12,256
754,17	12,250
754,36	11,993
754,55	12,180
754,74	12,279
754,93	11,988
755,12	12,415
755,30	12,653
755,49	12,649
755,68	12,648
755,87	12,685
756,06	12,677
756,25	12,464
756,43	13,194
756,62	12,846
756,81	13,010
757,00	13,094
757,19	12,799
757,38	13,087
757,56	13,023
757,75	13,033
757,94	12,866
758,13	13,280
758,32	13,343
758,51	13,592
758,69	13,886
758,88	14,178
759,07	14,539
759,26	14,759
759,45	15,171
759,63	15,336
759,82	15,632
760,01	16,229
760,20	17,046
760,39	16,819
760,57	17,841
760,76	18,668
760,95	19,216
761,14	19,517
761,33	20,195
761,51	20,839
761,70	21,420
761,89	22,399
762,08	23,756
762,27	23,866
762,45	24,957
762,64	26,299
762,83	27,501
763,02	28,923
763,21	29,627
763,39	30,745
763,58	31,972
763,77	33,066
763,96	34,487
764,14	36,306
764,33	37,219
764,52	38,658
764,71	38,905
764,89	41,712
765,08	42,686
765,27	43,881
765,46	46,113
765,65	48,246
765,83	50,133
766,02	53,088
766,21	54,790
766,40	56,176
766,58	58,453
766,77	61,831
766,96	62,874
767,15	66,042
767,33	68,295
767,52	69,497
767,71	73,513
767,90	75,109
768,08	77,535
768,27	80,616
768,46	80,341
768,64	82,303
768,83	85,799
769,02	87,550
769,21	89,895
769,39	89,000
769,58	90,406
769,77	90,244
769,96	90,954
770,14	91,900
770,33	92,233
770,52	91,747
770,70	93,086
770,89	91,870
771,08	93,067
771,27	93,890
771,45	92,877
771,64	92,077
771,83	93,463
772,01	92,986
772,20	91,856
772,39	92,807
772,57	91,641
772,76	90,532
772,95	88,838
773,14	89,696
773,32	90,047
773,51	89,944
773,70	90,185
773,88	90,090
774,07	91,651
774,26	89,307
774,44	89,038
774,63	89,401
774,82	89,929
775,00	89,136
775,19	89,729
775,38	89,176
775,56	89,470
775,75	89,083
775,94	88,681
776,12	86,840
776,31	88,166
776,50	87,742
776,68	87,114
776,87	85,063
777,06	86,306
777,24	85,425
777,43	85,005
777,62	83,435
777,80	84,251
777,99	82,483
778,18	81,129
778,36	81,350
778,55	78,735
778,74	78,470
778,92	76,934
779,11	75,971
779,29	73,993
779,48	73,635
779,67	71,065
779,85	70,665
780,04	68,842
780,23	66,800
780,41	64,468
780,60	63,314
780,79	60,419
780,97	59,746
781,16	56,802
781,34	54,798
781,53	53,669
781,72	51,806
781,90	50,398
782,09	48,269
782,28	46,496
782,46	44,545
782,65	42,327
782,83	39,922
783,02	38,022
783,21	36,855
783,39	35,197
783,58	33,111
783,76	31,386
783,95	29,760
784,14	27,811
784,32	26,768
784,51	26,102
784,69	23,711
784,88	22,437
785,06	22,016
785,25	20,281
785,44	19,523
785,62	18,623
785,81	18,085
785,99	17,632
786,18	16,620
786,37	15,989
786,55	15,416
786,74	14,293
786,92	14,191
787,11	13,729
787,29	13,154
787,48	12,408
787,67	12,354
787,85	11,939
788,04	11,460
788,22	11,382
788,41	11,594
788,59	11,874
788,78	11,729
788,96	11,270
789,15	11,484
789,34	11,496
789,52	10,882
789,71	11,557
789,89	11,238
790,08	10,952
790,26	10,779
790,45	10,854
790,63	11,336
790,82	10,682
791,00	10,848
791,19	11,017
791,38	10,722
791,56	10,765
791,75	10,372
791,93	10,582
792,12	11,089
792,30	10,761
792,49	11,460
792,67	10,378
792,86	10,303
793,04	11,037
793,23	10,857
793,41	10,263
793,60	11,313
793,78	10,462
793,97	11,104
794,15	10,327
794,34	10,694
794,52	10,788
794,71	10,903
794,89	10,543
795,08	10,803
795,26	10,732
795,45	10,853
795,63	10,979
795,82	10,848
796,00	9,976
796,19	10,553
796,37	10,687
796,56	9,917
796,74	10,454
796,93	10,278
797,11	10,213
797,30	9,685
797,48	10,648
797,67	10,308
797,85	10,058
798,04	10,472
798,22	10,484
798,41	10,395
798,59	10,205
798,77	10,472
798,96	10,146
799,14	10,961
799,33	10,135
799,51	10,039
799,70	10,427
799,88	9,859
800,07	10,045
800,25	10,321
800,44	9,701
800,62	10,315
800,80	10,234
800,99	9,760
801,17	10,484
801,36	10,755
801,54	9,869
801,73	9,706
801,91	10,346
802,10	10,688
802,28	10,533
802,46	10,776
802,65	11,031
802,83	10,299
803,02	10,738
803,20	10,348
803,39	10,097
803,57	9,963
803,75	10,612
803,94	10,526
804,12	10,197
804,31	10,363
804,49	10,763
804,67	10,445
804,86	9,879
805,04	10,147
805,23	10,392
805,41	10,375
805,59	10,307
805,78	10,356
805,96	10,320
806,15	10,367
806,33	9,882
806,51	9,961
806,70	10,203
806,88	10,239
807,07	10,227
807,25	10,062
807,43	9,735
807,62	9,925
807,80	9,903
807,99	10,410
808,17	10,081
808,35	10,679
808,54	9,955
808,72	10,314
808,90	11,119
809,09	10,322
809,27	10,339
809,46	10,498
809,64	9,912
809,82	9,880
810,01	10,077
810,19	10,000
810,37	9,659
810,56	10,123
810,74	9,977
810,92	9,908
811,11	10,163
811,29	10,630
811,48	10,077
811,66	10,305
811,84	10,623
812,03	9,598
812,21	10,004
812,39	10,758
812,58	9,597
812,76	9,889
812,94	10,220
813,13	10,068
813,31	10,436
813,49	10,686
813,68	10,174
813,86	9,975
814,04	9,441
814,23	9,706
814,41	10,335
814,59	9,996
814,78	9,995
814,96	9,637
815,14	9,729
815,33	10,099
815,51	10,142
815,69	9,680
815,87	9,993
816,06	10,571
816,24	10,428
816,42	10,019
816,61	10,188
816,79	10,787
816,97	9,943
817,16	9,953
817,34	10,001
817,52	10,355
817,70	9,877
817,89	9,680
818,07	9,724
818,25	9,566
818,44	10,011
818,62	9,455
818,80	10,055
818,98	9,839
819,17	9,459
819,35	9,816
819,53	9,964
819,72	9,933
819,90	10,076
820,08	10,227
820,26	10,283
820,45	10,367
820,63	10,471
820,81	10,200
820,99	10,636
821,18	9,618
821,36	9,975
821,54	9,950
821,73	9,878
821,91	9,990
822,09	9,668
822,27	10,617
822,46	10,229
822,64	10,137
822,82	10,300
823,00	10,203
823,19	9,474
823,37	9,902
823,55	10,334
823,73	9,965
823,91	10,130
824,10	9,569
824,28	9,384
824,46	10,034
824,64	10,146
824,83	10,154
825,01	11,101
825,19	9,779
825,37	10,288
825,56	10,051
825,74	9,730
825,92	10,299
826,10	10,673
826,28	10,006
826,47	10,423
826,65	10,477
826,83	10,050
827,01	10,069
827,19	10,692
827,38	11,091
827,56	10,458
827,74	10,166
827,92	9,897
828,10	10,282
828,29	10,345
828,47	9,924
828,65	9,731
828,83	9,980
829,01	10,531
829,20	9,751
829,38	10,440
829,56	9,950
829,74	9,973
829,92	9,830
830,10	9,633
830,29	10,194
830,47	9,825
830,65	9,048
830,83	9,867
831,01	10,280
831,20	9,537
831,38	9,679
831,56	10,576
831,74	9,798
831,92	10,333
832,10	10,391
832,29	10,460
832,47	10,030
832,65	10,279
832,83	10,039
833,01	10,160
833,19	9,879
833,37	9,986
833,56	10,081
833,74	10,336
833,92	10,113
834,10	10,243
834,28	9,596
834,46	10,466
834,64	10,790
834,83	10,003
835,01	9,742
835,19	10,598
835,37	10,191
835,55	9,714
835,73	10,068
835,91	9,604
836,09	10,216
836,28	9,905
836,46	9,651
836,64	10,027
836,82	9,847
837,00	10,285
837,18	10,212
837,36	9,561
837,54	10,166
837,72	9,848
837,91	9,878
838,09	10,191
838,27	10,321
838,45	10,301
838,63	10,656
838,81	10,037
838,99	10,312
839,17	11,106
839,35	10,060
839,53	10,299
839,72	11,032
839,90	10,562
840,08	10,800
840,26	10,015
840,44	10,887
840,62	10,530
840,80	10,720
840,98	10,355
841,16	10,667
841,34	10,778
841,52	11,147
841,70	10,108
841,89	10,105
842,07	10,718
842,25	10,425
842,43	10,545
842,61	10,858
842,79	10,258
842,97	10,286
843,15	10,537
843,33	10,710
843,51	11,260
843,69	10,408
843,87	10,535
844,05	10,832
844,23	10,112
844,41	10,849
844,59	9,624
844,77	10,889
844,95	10,427
845,13	10,580
845,31	11,066
845,50	11,184
845,68	11,339
845,86	11,130
846,04	11,002
846,22	10,835
846,40	10,587
846,58	10,828
846,76	10,981
846,94	10,577
847,12	10,587
847,30	11,328
847,48	10,900
847,66	10,460
847,84	10,672
848,02	10,914
848,20	10,724
848,38	11,398
848,56	11,170
848,74	11,359
848,92	10,824
849,10	10,835
849,28	11,619
849,46	10,791
849,64	11,380
849,82	11,348
850,00	11,265
850,18	11,023
850,36	11,987
850,54	11,577
850,72	11,529
850,90	11,748
851,08	11,508
851,26	12,261
851,44	12,138
851,62	11,971
851,80	11,027
851,98	12,267
852,16	11,958
852,34	12,636
852,52	11,741
852,70	12,472
852,87	11,863
853,05	12,339
853,23	11,849
853,41	12,510
853,59	12,372
853,77	12,386
853,95	12,062
854,13	12,566
854,31	13,517
854,49	13,601
854,67	13,245
854,85	13,773
855,03	14,427
855,21	14,283
855,39	14,491
855,57	15,344
855,75	15,077
855,93	15,444
856,11	15,122
856,28	15,455
856,46	15,165
856,64	15,165
856,82	16,107
857,00	15,728
857,18	16,787
857,36	17,658
857,54	17,082
857,72	16,995
857,90	18,322
858,08	18,766
858,26	19,828
858,44	19,570
858,61	20,507
858,79	20,785
858,97	20,469
859,15	21,364
859,33	22,590
859,51	23,274
859,69	23,063
859,87	24,054
860,05	24,095
860,23	24,983
860,40	25,736
860,58	26,339
860,76	27,672
860,94	27,850
861,12	29,565
861,30	29,395
861,48	31,800
861,66	31,477
861,84	33,415
862,01	34,293
862,19	34,338
862,37	35,560
862,55	36,880
862,73	37,096
862,91	38,681
863,09	39,043
863,27	39,879
863,44	41,396
863,62	43,636
863,80	42,810
863,98	43,653
864,16	45,699
864,34	46,584
864,52	47,655
864,69	47,863
864,87	49,995
865,05	52,002
865,23	52,462
865,41	54,862
865,59	56,669
865,76	58,487
865,94	59,097
866,12	62,481
866,30	62,729
866,48	65,718
866,66	66,760
866,83	68,294
867,01	70,589
867,19	71,939
867,37	75,019
867,55	75,690
867,73	74,884
867,90	77,062
868,08	79,221
868,26	78,458
868,44	80,423
868,62	81,905
868,79	80,822
868,97	81,673
869,15	84,358
869,33	82,662
869,51	82,041
869,69	82,023
869,86	84,925
870,04	83,117
870,22	81,915
870,40	82,486
870,57	83,136
870,75	82,525
870,93	82,016
871,11	81,364
871,29	82,205
871,46	82,642
871,64	81,407
871,82	79,895
872,00	79,511
872,18	79,854
872,35	78,888
872,53	79,691
872,71	78,484
872,89	75,401
873,06	76,983
873,24	75,789
873,42	76,611
873,60	73,821
873,77	78,174
873,95	74,954
874,13	74,723
874,31	74,625
874,49	73,253
874,66	73,890
874,84	74,093
875,02	72,824
875,20	72,246
875,37	71,190
875,55	69,147
875,73	69,533
875,91	66,760
876,08	66,714
876,26	66,285
876,44	63,872
876,61	61,716
876,79	60,575
876,97	57,781
877,15	57,084
877,32	55,579
877,50	52,888
877,68	52,057
877,86	49,913
878,03	48,677
878,21	46,168
878,39	43,652
878,56	42,312
878,74	40,017
878,92	37,570
879,10	37,042
879,27	34,433
879,45	32,440
879,63	30,407
879,80	29,935
879,98	27,544
880,16	26,175
880,34	24,495
880,51	23,436
880,69	21,947
880,87	20,849
881,04	19,822
881,22	18,660
881,40	17,454
881,57	16,311
881,75	16,391
881,93	14,879
882,10	14,313
882,28	14,172
882,46	13,548
882,63	12,638
882,81	12,016
882,99	12,164
883,16	11,557
883,34	10,915
883,52	10,257
883,69	9,935
883,87	9,953
884,05	9,894
884,22	9,132
884,40	10,104
884,58	10,261
884,75	10,144
884,93	9,592
885,11	9,503
885,28	9,274
885,46	9,150
885,64	9,216
885,81	9,481
885,99	9,084
886,17	9,654
886,34	9,135
886,52	9,923
886,70	8,865
886,87	8,975
887,05	9,539
887,22	9,299
887,40	9,967
887,58	8,591
887,75	9,054
887,93	9,543
888,11	8,906
888,28	8,443
888,46	8,690
888,63	8,822
888,81	8,360
888,99	8,653
889,16	8,512
889,34	8,615
889,51	8,945
889,69	8,550
889,87	9,109
890,04	8,413
890,22	8,843
890,39	8,502
890,57	9,277
890,75	8,700
890,92	8,703
891,10	8,612
891,27	8,489
891,45	8,017
891,63	8,458
891,80	8,828
891,98	9,048
892,15	8,392
892,33	7,975
892,51	8,252
892,68	8,468
892,86	8,422
893,03	8,436
893,21	7,941
893,38	8,404
893,56	8,223
893,74	7,647
893,91	8,342
894,09	8,545
894,26	8,317
894,44	7,800
894,61	7,682
894,79	9,064
894,96	8,356
895,14	8,024
895,32	8,559
895,49	7,431
895,67	7,692
895,84	7,536
896,02	7,938
896,19	8,325
896,37	7,403
896,54	8,296
896,72	8,193
896,89	8,526
897,07	7,823
897,25	7,781
897,42	7,551
897,60	7,948
897,77	7,981
897,95	7,515
898,12	7,932
898,30	7,482
898,47	7,713
898,65	7,757
898,82	7,388
899,00	7,608
899,17	7,610
899,35	7,267
899,52	8,195
899,70	7,518
899,87	7,923
900,05	7,764
900,22	7,832
900,40	7,657
900,57	7,901
900,75	7,216
900,92	7,108
901,10	7,696
901,27	7,503
901,45	7,085
901,62	7,219
901,80	7,870
901,97	7,235
902,15	7,104
902,32	7,219
902,50	7,222
902,67	7,599
902,85	7,724
903,02	7,215
903,20	7,137
903,37	7,373
903,54	6,960
903,72	7,297
903,89	7,196
904,07	7,323
904,24	7,292
904,42	6,951
904,59	7,225
904,77	8,010
904,94	7,199
905,12	7,418
905,29	7,225
905,47	7,734
905,64	7,473
905,81	7,152
905,99	7,548
906,16	7,800
906,34	6,752
906,51	7,261
906,69	7,226
906,86	6,566
907,03	7,229
907,21	7,501
907,38	7,456
907,56	7,810
907,73	7,128
907,91	7,320
908,08	7,031
908,25	7,788
908,43	7,159
908,60	7,366
908,78	7,367
908,95	6,917
909,13	6,917
909,30	6,230
909,47	7,388
909,65	6,445
909,82	7,300
910,00	7,178
910,17	6,347
910,34	7,131
910,52	7,520
910,69	7,501
910,87	7,008
911,04	7,030
911,21	7,117
911,39	6,613
911,56	6,571
911,73	6,940
911,91	6,011
912,08	6,626
912,26	6,882
912,43	7,018
912,60	7,642
912,78	6,755
912,95	6,570
913,13	6,698
913,30	6,975
913,47	5,823
913,65	6,624
913,82	6,958
913,99	6,066
914,17	7,105
914,34	6,254
914,51	6,919
914,69	6,420
914,86	7,352
915,03	6,118
915,21	6,115
915,38	6,274
915,56	6,651
915,73	6,294
915,90	6,950
916,08	7,358
916,25	6,308
916,42	6,658
916,60	6,353
916,77	6,250
916,94	5,951
917,12	6,236
917,29	5,869
917,46	6,319
917,64	6,460
917,81	5,965
917,98	7,052
918,16	5,929
918,33	6,747
918,50	6,630
918,67	5,985
918,85	6,179
919,02	6,425
919,19	6,817
919,37	5,822
919,54	6,030
919,71	6,161
919,89	6,065
920,06	5,853
920,23	5,807
920,41	6,135
920,58	6,294
920,75	5,934
920,92	6,184
921,10	6,292
921,27	5,099
921,44	6,487
921,62	6,035
921,79	6,094
921,96	6,354
922,13	6,077
922,31	6,025
922,48	6,258
922,65	6,396
922,82	6,307
923,00	5,829
923,17	5,741
923,34	5,551
923,52	5,995
923,69	5,974
923,86	5,792
924,03	5,854
924,21	5,854
924,38	5,685
924,55	5,531
924,72	5,706
924,90	5,334
925,07	5,695
925,24	5,210
925,41	5,379
925,59	5,269
925,76	5,626
925,93	4,971
926,10	4,620
926,28	5,486
926,45	5,159
926,62	4,599
926,79	5,443
926,96	4,972
927,14	5,197
927,31	5,590
927,48	5,209
927,65	5,671
927,83	5,676
928,00	5,393
928,17	5,317
928,34	4,873
928,51	5,576
928,69	4,937
928,86	4,942
929,03	5,485
929,20	5,477
929,37	4,893
929,55	4,937
929,72	4,937
929,89	4,566
930,06	5,026
930,23	5,750
930,41	4,948
930,58	4,761
930,75	4,746
930,92	5,245
931,09	5,357
931,27	4,660
931,44	4,830
931,61	5,097
931,78	4,929
931,95	5,647
932,12	5,213
932,30	5,469
932,47	5,664
932,64	5,219
932,81	4,161
932,98	4,847
933,16	5,170
933,33	5,189
933,50	4,823
933,67	5,212
933,84	4,481
934,01	4,706
934,18	4,188
934,36	4,423
934,53	5,349
934,70	5,050
934,87	5,348
935,04	4,856
935,21	4,525
935,38	5,035
935,56	5,007
935,73	4,568
935,90	4,810
936,07	5,101
936,24	5,062
936,41	5,431
936,58	4,567
936,76	4,982
936,93	4,203
937,10	4,813
937,27	4,659
937,44	5,087
937,61	5,039
937,78	4,656
937,95	4,892
938,13	4,611
938,30	4,662
938,47	4,493
938,64	4,890
938,81	4,230
938,98	4,684
939,15	4,623
939,32	3,802
939,49	4,410
939,66	4,916
939,84	4,429
940,01	5,028
940,18	4,631
940,35	4,487
940,52	3,924
940,69	4,210
940,86	4,616
941,03	4,277
941,20	4,826
941,37	4,234
941,54	4,491
941,71	4,773
941,89	4,513
942,06	4,496
942,23	4,517
942,40	4,509
942,57	5,005
942,74	4,472
942,91	4,505
943,08	4,364
943,25	4,640
943,42	3,822
943,59	4,669
943,76	5,047
943,93	4,761
944,10	4,968
944,27	4,230
944,44	4,575
944,61	4,575
944,79	5,187
944,96	4,662
945,13	4,717
945,30	4,461
945,47	4,447
945,64	4,464
945,81	4,399
945,98	4,690
946,15	4,445
946,32	5,194
946,49	4,332
946,66	3,931
946,83	4,300
947,00	4,462
947,17	4,666
947,34	4,283
947,51	4,903
947,68	4,820
947,85	4,247
948,02	4,677
948,19	3,820
948,36	5,119
948,53	3,934
948,70	5,290
948,87	4,078
949,04	4,732
949,21	4,866
949,38	5,068
949,55	5,179
949,72	4,769
949,89	5,038
950,06	4,230
950,23	3,811
950,40	5,425
950,57	4,182
950,74	5,255
950,91	4,564
951,08	4,717
951,25	4,638
951,42	5,042
951,59	5,002
951,76	4,344
951,93	4,848
952,10	5,590
952,27	4,762
952,44	4,722
952,61	5,123
952,77	5,567
952,94	5,689
953,11	6,724
953,28	4,135
953,45	4,540
953,62	5,357
953,79	5,180
953,96	5,156
954,13	6,248
954,30	5,372
954,47	4,817
954,64	5,574
954,81	6,426
954,98	5,853
955,15	5,895
955,32	4,980
955,49	5,332
955,65	6,474
955,82	5,463
955,99	5,200
956,16	5,278
956,33	7,279
956,50	5,745
956,67	5,080
956,84	6,032
957,01	4,358
957,18	5,615
957,35	5,770
957,52	5,660
957,68	5,373
957,85	5,638
958,02	6,324
958,19	5,598
958,36	5,939
958,53	7,025
958,70	6,038
958,87	6,898
959,04	6,700
959,21	5,975
959,37	7,269
959,54	6,550
959,71	6,798
959,88	6,582
960,05	6,108
960,22	6,204
960,39	5,487
960,56	6,508
960,72	6,820
960,89	8,631
961,06	7,592
961,23	6,938
961,40	7,095
961,57	6,488
961,74	5,983
961,90	7,147
962,07	6,757
962,24	7,662
962,41	5,778
962,58	6,615
962,75	6,311
962,92	6,111
963,08	6,336
963,25	8,135
963,42	6,571
963,59	5,197
963,76	7,014
963,93	7,960
964,10	8,011
964,26	7,912
964,43	6,388
964,60	5,811
964,77	7,087
964,94	7,872
965,10	7,707
965,27	7,385
965,44	6,967
965,61	8,317
965,78	8,035
965,95	7,266
966,11	7,964
966,28	7,106
966,45	8,041
966,62	8,117
966,79	8,806
966,95	7,184
967,12	8,620
967,29	5,967
967,46	7,480
967,63	8,450
967,79	9,240
967,96	7,301
968,13	6,329
968,30	6,921
968,47	5,673
968,63	8,576
968,80	8,584
968,97	8,035
969,14	4,477
969,31	6,909
969,47	7,150
969,64	8,252
969,81	7,802
969,98	7,990
970,14	8,151
970,31	8,376
970,48	7,889
970,65	7,934
970,81	8,680
970,98	6,740
971,15	7,320
971,32	8,072
971,48	6,590
971,65	6,684
971,82	8,108
971,99	7,006
972,15	7,320
972,32	6,976
972,49	7,569
972,66	8,191
972,82	7,529
972,99	5,642
973,16	7,991
973,33	7,736
973,49	7,477
973,66	6,480
973,83	9,266
974,00	8,861
974,16	9,516
974,33	8,160
974,50	8,312
974,67	8,743
974,83	6,374
975,00	7,867
975,17	7,777
975,33	8,857
975,50	7,668
975,67	4,813
975,84	7,033
976,00	8,146
976,17	7,248
976,34	7,887
976,50	7,605
976,67	8,747
976,84	7,963
977,00	7,074
977,17	8,150
977,34	7,079
977,50	8,259
977,67	8,440
977,84	8,619
978,01	9,251
978,17	7,995
978,34	8,462
978,51	6,467
978,67	7,880
978,84	6,971
979,01	8,002
979,17	8,883
979,34	9,099
979,51	8,743
979,67	7,643
979,84	9,388
980,01	10,785
980,17	9,743
980,34	8,629
980,51	7,692
980,67	10,918
980,84	9,321
981,01	8,146
981,17	9,270
981,34	11,242
981,50	7,167
981,67	9,313
981,84	5,975
982,00	7,069
982,17	7,081
982,34	8,802
982,50	11,180
982,67	6,205
982,84	7,409
983,00	9,966
983,17	6,893
983,33	7,520
983,50	8,518
983,67	8,868
983,83	7,674
984,00	9,182
984,17	7,899
984,33	7,065
984,50	9,012
984,66	10,898
984,83	7,261
985,00	7,932
985,16	9,018
985,33	8,902
985,49	11,156
985,66	10,827
985,83	4,053
985,99	8,307
986,16	11,174
986,32	8,522
986,49	9,254
986,66	8,523
986,82	8,013
986,99	6,206
987,15	7,216
987,32	9,183
987,49	8,407
987,65	6,568
987,82	9,141
987,98	6,091
988,15	9,411
988,31	7,024
988,48	8,588
988,65	5,038
988,81	9,040
988,98	8,556
989,14	8,866
989,31	11,219
989,47	8,732
989,64	9,759
989,80	4,958
989,97	13,869
990,14	7,193
990,30	7,449
990,47	8,693
990,63	11,402
990,80	8,519
990,96	11,059
991,13	8,747
991,29	8,224
991,46	8,423
991,62	6,556
991,79	6,663
991,95	9,096
992,12	8,085
992,29	9,106
992,45	7,011
992,62	6,095
992,78	5,173
992,95	10,511
993,11	11,480
993,28	7,526
993,44	7,688
993,61	8,773
993,77	3,606
993,94	8,430
994,10	9,353
994,27	8,797
994,43	9,832
994,60	7,495
994,76	10,556
994,93	7,117
995,09	10,205
995,26	10,567
995,42	7,764
995,59	7,188
995,75	10,243
995,92	8,872
996,08	11,772
996,25	10,587
996,41	8,634
996,58	11,826
996,74	9,993
996,91	6,545
997,07	7,359
997,23	10,597
997,40	7,066
997,56	7,807
997,73	9,407
997,89	4,188
998,06	11,318
998,22	6,325
998,39	10,205
998,55	8,589
998,72	7,568
998,88	12,230
999,05	10,216
999,21	8,333
999,37	8,737
999,54	14,549
999,70	10,236
999,87	10,788
1000,03	6,865
1000,20	8,542
1000,36	7,895
1000,52	8,927
1000,69	9,883
1000,85	11,009
1001,02	12,363
1001,18	9,871
1001,35	9,457
1001,51	9,865
1001,67	10,526
1001,84	10,022
1002,00	7,949
1002,17	9,401
1002,33	10,107
1002,50	9,057
1002,66	7,271
1002,82	6,284
1002,99	4,492
1003,15	9,040
1003,32	8,563
1003,48	7,577
1003,64	7,541
1003,81	8,775
1003,97	8,828
1004,14	11,484
1004,30	7,541
1004,46	8,826
1004,63	8,780
1004,79	9,831
1004,95	7,666
1005,12	9,877
1005,28	12,540
1005,45	10,271
1005,61	10,691
1005,77	11,006
1005,94	10,492
1006,10	10,450
1006,26	11,186
1006,43	11,618
1006,59	6,110
1006,76	9,577
1006,92	9,758
1007,08	6,942
1007,25	12,305
1007,41	9,309
1007,57	8,509
1007,74	11,421
1007,90	6,324
1008,06	8,610
1008,23	8,115
1008,39	5,629
1008,55	8,688
1008,72	9,254
1008,88	8,273
1009,04	11,973
1009,21	9,296
1009,37	7,450
1009,53	10,213
1009,70	6,796
1009,86	5,862
1010,02	7,119
1010,19	5,439
1010,35	11,409
1010,51	7,885
1010,68	6,035
1010,84	7,245
1011,00	9,914
1011,17	10,345
1011,33	7,581
1011,49	11,141
1011,66	9,868
1011,82	6,586
1011,98	4,685
1012,14	4,866
1012,31	11,038
1012,47	6,399
1012,63	7,313
1012,80	6,780
1012,96	5,987
1013,12	4,008
1013,29	10,936
1013,45	6,745
1013,61	13,425
1013,77	5,957
1013,94	3,924
1014,10	5,112
1014,26	8,602
1014,43	12,239
1014,59	8,351
1014,75	9,533
1014,91	10,515
1015,08	10,876
1015,24	14,329
1015,40	7,773
1015,56	5,492
1015,73	7,980
1015,89	9,831
1016,05	5,720
1016,21	6,660
1016,38	10,196
1016,54	8,221
1016,70	7,925
1016,86	6,303
1017,03	0,870
1017,19	7,738
1017,35	7,953
1017,51	9,769
1017,68	5,788
1017,84	6,103
1018,00	8,581
1018,16	1,701
1018,33	11,853
1018,49	7,946
1018,65	7,112
1018,81	11,207
1018,97	8,864
1019,14	9,641
1019,30	13,199
1019,46	14,692
1019,62	7,474
1019,79	6,366
1019,95	4,825
1020,11	9,005
1020,27	8,485
1020,43	7,674
1020,60	6,829
1020,76	9,351
1020,92	8,786
1021,08	13,065
1021,24	10,110
1021,41	1,144
1021,57	8,959
1021,73	4,247
1021,89	15,182
1022,05	9,518
1022,21	8,449
1022,38	4,727
1022,54	13,827
1022,70	10,745
1022,86	9,262
1023,02	10,608
1023,19	8,488
1023,35	2,316
1023,51	13,971
1023,67	3,281
1023,83	9,209
1023,99	10,026
1024,16	10,739
1024,32	6,098
1024,48	9,091
1024,64	6,108
1024,80	9,931
1024,96	4,348
1025,12	10,380
1025,29	10,608
1025,45	13,642
1025,61	15,629
1025,77	5,652
1025,93	10,753
1026,09	5,746
1026,26	8,772
1026,42	6,706
1026,58	6,410
1026,74	4,237
1026,90	2,685
1027,06	10,641
1027,22	5,706
1027,38	12,821
1027,55	4,150
1027,71	6,887
1027,87	7,810
1028,03	9,942
1028,19	-1,466
1028,35	7,188
1028,51	15,015
1028,67	9,187
1028,83	3,528
1029,00	7,801
1029,16	10,945
1029,32	12,388
1029,48	6,805
1029,64	8,859
1029,80	7,071
1029,96	5,825
1030,12	13,166
1030,28	2,353
1030,44	7,703
1030,61	10,127
1030,77	9,253
1030,93	6,637
1031,09	7,463
1031,25	7,227
1031,41	7,009
1031,57	7,270
1031,73	7,317
1031,89	12,417
1032,05	8,931
1032,21	3,667
1032,37	7,537
1032,53	9,265
1032,69	7,953
1032,86	2,253
1033,02	8,769
1033,18	5,651
1033,34	9,457
1033,50	13,022
1033,66	4,891
1033,82	8,205
1033,98	2,703
1034,14	4,553
1034,30	-0,387
1034,46	3,399
1034,62	8,762
1034,78	9,966
1034,94	7,752
1035,10	19,004
1035,26	7,692
1035,42	-4,049
1035,58	12,218
1035,74	1,000
1035,90	-2,330
1036,06	4,948
1036,22	17,679
1036,38	14,836
1036,54	6,759
1036,70	3,006
1036,86	14,751
1037,02	1,143
1037,18	13,396
1037,34	4,357
1037,50	6,405
1037,66	15,976
1037,82	7,006
1037,98	14,801
1038,14	4,478
1038,30	12,181
1038,46	14,149
1038,62	-0,420
1038,78	8,367
1038,94	3,171
1039,10	16,342
1039,26	5,568
1039,42	16,032
1039,58	7,539
1039,74	2,765
1039,90	11,089
1040,06	6,915
>>>>>End Processed Spectral Data<<<<<
