SpectraSuite Data File
++++++++++++++++++++++++++++++++++++
Date: Thu Feb 02 18:51:14 EET 2017
User: optolab
Dark Spectrum Present: Yes
Reference Spectrum Present: Yes
Number of Sampled Component Spectra: 1
Spectrometers: USB4C02475
Integration Time (usec): 151411 (USB4C02475)
Spectra Averaged: 1 (USB4C02475)
Boxcar Smoothing: 0 (USB4C02475)
Correct for Electrical Dark: No (USB4C02475)
Strobe/Lamp Enabled: No (USB4C02475)
Correct for Detector Non-linearity: No (USB4C02475)
Correct for Stray Light: No (USB4C02475)
Number of Pixels in Processed Spectrum: 3648
>>>>>Begin Processed Spectral Data<<<<<
344,91	22,222
345,13	22,222
345,35	22,222
345,57	-0,000
345,79	38,462
346,00	-12,000
346,22	18,919
346,44	-23,077
346,66	1833,333
346,87	-190,000
347,09	-1000,000
347,31	400,000
347,53	66,667
347,74	-187,500
347,96	277,778
348,18	102,439
348,40	-100,000
348,61	98,039
348,83	-2,778
349,05	-47,273
349,27	111,765
349,48	70,588
349,70	60,000
349,92	73,171
350,14	-2150,000
350,35	-38,462
350,57	45,588
350,79	17,021
351,01	122,581
351,22	600,000
351,44	62,222
351,66	2,439
351,87	40,909
352,09	23,077
352,31	56,522
352,53	50,000
352,74	-56,250
352,96	19,388
353,18	-59,091
353,40	42,857
353,61	86,667
353,83	88,000
354,05	3,448
354,26	59,091
354,48	195,455
354,70	40,000
354,92	33,333
355,13	24,490
355,35	-700,000
355,57	28,571
355,78	130,000
356,00	37,209
356,22	53,731
356,44	0,000
356,65	79,487
356,87	55,556
357,09	18,841
357,30	72,973
357,52	-48,571
357,74	89,231
357,95	-66,667
358,17	38,889
358,39	450,000
358,60	60,000
358,82	-19,444
359,04	-50,000
359,26	-28,889
359,47	39,655
359,69	1775,000
359,91	17,188
360,12	7,937
360,34	178,947
360,56	23,158
360,77	120,370
360,99	5,000
361,21	67,949
361,42	-72,500
361,64	-13,636
361,86	28,571
362,07	74,257
362,29	-57,143
362,51	29,630
362,72	90,000
362,94	0,000
363,16	72,464
363,37	46,875
363,59	63,736
363,81	11,864
364,02	30,303
364,24	16,923
364,46	-16,000
364,67	75,000
364,89	-33,784
365,11	-133,333
365,32	80,702
365,54	-100,000
365,76	8,750
365,97	98,571
366,19	45,614
366,41	18,462
366,62	97,143
366,84	66,667
367,05	1,389
367,27	-145,455
367,49	68,182
367,70	50,000
367,92	86,076
368,14	34,409
368,35	46,914
368,57	41,111
368,79	17,568
369,00	65,000
369,22	42,708
369,43	36,735
369,65	83,333
369,87	71,605
370,08	39,130
370,30	35,294
370,51	70,229
370,73	-15,873
370,95	18,557
371,16	-12,121
371,38	-17,808
371,60	-23,256
371,81	48,421
372,03	-32,727
372,24	65,789
372,46	23,333
372,68	34,177
372,89	42,982
373,11	59,259
373,32	6,349
373,54	29,687
373,76	13,445
373,97	14,634
374,19	45,556
374,40	49,565
374,62	-3,409
374,84	-9,709
375,05	5,263
375,27	1,190
375,48	37,662
375,70	14,865
375,92	-4,348
376,13	48,571
376,35	9,756
376,56	58,974
376,78	35,385
376,99	-2,597
377,21	22,222
377,43	30,208
377,64	19,492
377,86	72,043
378,07	55,789
378,29	33,636
378,51	51,563
378,72	-18,519
378,94	20,979
379,15	30,986
379,37	33,577
379,58	27,350
379,80	51,934
380,01	23,000
380,23	-25,373
380,45	18,000
380,66	20,833
380,88	30,000
381,09	-30,682
381,31	32,941
381,52	59,459
381,74	15,094
381,95	-13,158
382,17	11,236
382,39	17,470
382,60	21,583
382,82	33,333
383,03	15,000
383,25	14,894
383,46	1,739
383,68	12,025
383,89	40,659
384,11	11,310
384,32	62,143
384,54	2,857
384,76	33,526
384,97	25,000
385,19	17,600
385,40	18,452
385,62	22,340
385,83	16,129
386,05	9,790
386,26	49,735
386,48	10,390
386,69	18,400
386,91	25,946
387,12	37,766
387,34	16,022
387,55	22,549
387,77	11,230
387,98	20,833
388,20	23,214
388,41	26,104
388,63	21,905
388,84	13,423
389,06	15,301
389,27	25,346
389,49	26,214
389,70	27,128
389,92	29,557
390,13	10,811
390,35	31,250
390,56	22,951
390,78	4,603
390,99	7,254
391,21	32,353
391,42	15,385
391,64	15,094
391,85	23,077
392,07	15,385
392,28	17,460
392,50	21,154
392,71	28,141
392,93	-4,564
393,14	-6,011
393,36	19,820
393,57	16,309
393,79	8,676
394,00	-25,294
394,22	6,533
394,43	30,837
394,65	26,556
394,86	27,376
395,08	10,405
395,29	-2,667
395,50	2,193
395,72	1,277
395,93	23,967
396,15	28,000
396,36	11,881
396,58	2,691
396,79	11,986
397,01	-8,017
397,22	21,723
397,44	18,565
397,65	8,481
397,87	13,514
398,08	28,155
398,29	28,956
398,51	27,434
398,72	20,588
398,94	9,310
399,15	21,875
399,37	22,945
399,58	4,706
399,80	40,805
400,01	8,207
400,22	12,040
400,44	14,226
400,65	12,333
400,87	18,627
401,08	21,886
401,30	12,628
401,51	26,966
401,72	3,676
401,94	10,490
402,15	6,471
402,37	24,725
402,58	-2,676
402,80	18,529
403,01	12,632
403,22	21,875
403,44	18,027
403,65	10,490
403,87	6,769
404,08	20,395
404,30	9,831
404,51	15,493
404,72	13,761
404,94	19,894
405,15	18,027
405,37	14,681
405,58	27,941
405,79	23,936
406,01	11,699
406,22	5,584
406,44	11,286
406,65	7,748
406,86	16,512
407,08	11,978
407,29	17,598
407,51	14,474
407,72	11,936
407,93	18,470
408,15	21,957
408,36	10,000
408,58	26,267
408,79	14,286
409,00	15,418
409,22	12,500
409,43	15,500
409,64	14,856
409,86	24,362
410,07	15,502
410,29	16,889
410,50	13,265
410,71	7,756
410,93	16,818
411,14	20,174
411,35	8,431
411,57	-2,968
411,78	18,404
412,00	14,255
412,21	14,112
412,42	6,744
412,64	14,133
412,85	15,955
413,06	8,153
413,28	16,701
413,49	3,822
413,70	15,709
413,92	7,818
414,13	14,053
414,34	8,687
414,56	18,269
414,77	20,503
414,98	16,822
415,20	11,673
415,41	11,573
415,63	7,157
415,84	17,509
416,05	24,554
416,27	11,496
416,48	13,076
416,69	11,169
416,91	11,089
417,12	11,619
417,33	5,431
417,55	16,816
417,76	20,035
417,97	18,891
418,19	9,551
418,40	11,458
418,61	12,121
418,83	12,360
419,04	13,533
419,25	13,333
419,46	13,358
419,68	17,419
419,89	19,965
420,10	17,337
420,32	14,992
420,53	5,700
420,74	11,913
420,96	21,131
421,17	12,044
421,38	14,930
421,60	15,674
421,81	10,455
422,02	12,766
422,23	12,152
422,45	11,438
422,66	12,945
422,87	10,923
423,09	5,956
423,30	8,567
423,51	7,143
423,73	8,046
423,94	14,876
424,15	13,483
424,36	11,976
424,58	9,423
424,79	17,857
425,00	7,934
425,22	10,886
425,43	9,115
425,64	9,855
425,85	14,474
426,07	8,856
426,28	9,311
426,49	13,708
426,71	14,733
426,92	10,719
427,13	11,660
427,34	12,315
427,56	16,513
427,77	15,376
427,98	11,530
428,19	9,719
428,41	11,086
428,62	10,970
428,83	14,237
429,04	9,375
429,26	12,209
429,47	8,747
429,68	8,643
429,89	9,137
430,11	13,126
430,32	9,408
430,53	11,550
430,74	8,598
430,96	10,576
431,17	13,962
431,38	11,410
431,59	8,326
431,81	12,011
432,02	11,957
432,23	11,218
432,44	6,832
432,66	7,947
432,87	9,059
433,08	12,322
433,29	6,876
433,51	14,333
433,72	4,437
433,93	9,114
434,14	10,959
434,35	7,213
434,57	8,498
434,78	5,179
434,99	8,815
435,20	11,198
435,42	8,997
435,63	12,241
435,84	10,964
436,05	8,322
436,26	8,139
436,48	11,059
436,69	7,561
436,90	5,984
437,11	8,502
437,32	8,496
437,54	6,369
437,75	7,657
437,96	9,838
438,17	8,361
438,38	9,220
438,60	6,593
438,81	8,992
439,02	8,831
439,23	9,044
439,44	6,795
439,66	8,279
439,87	7,182
440,08	8,204
440,29	8,499
440,50	5,196
440,72	6,073
440,93	5,440
441,14	6,965
441,35	5,208
441,56	4,680
441,77	6,722
441,99	6,872
442,20	6,994
442,41	8,569
442,62	7,687
442,83	7,520
443,04	6,163
443,26	5,179
443,47	5,199
443,68	6,196
443,89	7,302
444,10	5,172
444,31	4,509
444,53	4,649
444,74	5,343
444,95	6,466
445,16	4,759
445,37	6,623
445,58	4,900
445,80	5,147
446,01	4,941
446,22	4,545
446,43	4,787
446,64	3,842
446,85	5,636
447,06	4,590
447,28	4,390
447,49	4,254
447,70	3,746
447,91	3,519
448,12	3,586
448,33	5,127
448,54	4,762
448,76	3,579
448,97	4,512
449,18	4,159
449,39	4,728
449,60	3,418
449,81	3,481
450,02	3,787
450,23	3,740
450,45	3,067
450,66	3,628
450,87	3,104
451,08	2,940
451,29	3,026
451,50	2,917
451,71	2,540
451,92	3,215
452,13	2,908
452,35	3,149
452,56	2,966
452,77	2,463
452,98	3,417
453,19	2,542
453,40	3,183
453,61	3,005
453,82	3,170
454,03	2,944
454,25	2,428
454,46	2,355
454,67	1,862
454,88	2,494
455,09	2,557
455,30	2,747
455,51	1,824
455,72	2,243
455,93	2,609
456,14	2,633
456,35	2,198
456,56	2,390
456,78	2,760
456,99	2,594
457,20	1,723
457,41	2,486
457,62	2,444
457,83	1,760
458,04	1,978
458,25	2,075
458,46	1,726
458,67	1,852
458,88	1,661
459,09	1,819
459,30	1,805
459,51	1,796
459,73	1,573
459,94	1,815
460,15	1,604
460,36	1,893
460,57	1,723
460,78	1,584
460,99	1,552
461,20	1,314
461,41	1,554
461,62	1,599
461,83	1,917
462,04	1,580
462,25	1,466
462,46	1,596
462,67	1,413
462,88	1,606
463,09	1,544
463,30	1,650
463,51	1,584
463,72	1,511
463,93	1,708
464,15	1,369
464,36	1,611
464,57	1,281
464,78	1,666
464,99	1,427
465,20	1,223
465,41	1,589
465,62	1,705
465,83	1,518
466,04	1,196
466,25	1,574
466,46	1,568
466,67	1,573
466,88	1,489
467,09	1,455
467,30	1,284
467,51	1,036
467,72	1,406
467,93	1,412
468,14	1,696
468,35	1,319
468,56	1,388
468,77	1,604
468,98	1,698
469,19	1,431
469,40	1,535
469,61	1,507
469,82	1,606
470,03	1,604
470,24	1,429
470,45	1,791
470,66	1,479
470,87	1,784
471,08	1,591
471,29	1,583
471,50	1,691
471,71	1,761
471,92	1,669
472,13	1,729
472,34	1,790
472,55	1,966
472,76	1,763
472,97	1,861
473,18	1,845
473,39	1,732
473,60	2,082
473,81	2,130
474,01	2,031
474,22	1,707
474,43	2,085
474,64	2,254
474,85	1,972
475,06	2,064
475,27	2,040
475,48	2,339
475,69	2,165
475,90	2,172
476,11	2,319
476,32	2,498
476,53	2,579
476,74	2,471
476,95	2,361
477,16	2,312
477,37	2,282
477,58	2,618
477,79	2,542
478,00	2,366
478,21	2,851
478,41	2,648
478,62	2,553
478,83	2,646
479,04	2,486
479,25	2,722
479,46	2,507
479,67	3,023
479,88	2,929
480,09	2,907
480,30	2,783
480,51	2,775
480,72	3,111
480,93	2,761
481,14	2,803
481,34	2,903
481,55	3,130
481,76	2,910
481,97	2,935
482,18	2,973
482,39	2,890
482,60	2,969
482,81	3,158
483,02	2,935
483,23	3,068
483,44	3,175
483,65	3,239
483,85	2,849
484,06	3,317
484,27	3,175
484,48	3,312
484,69	3,348
484,90	3,367
485,11	2,808
485,32	3,153
485,53	3,365
485,73	3,339
485,94	3,192
486,15	3,084
486,36	3,077
486,57	3,327
486,78	3,317
486,99	3,443
487,20	3,306
487,41	3,279
487,61	3,462
487,82	3,363
488,03	3,315
488,24	3,260
488,45	3,359
488,66	3,268
488,87	3,637
489,08	3,358
489,28	3,502
489,49	3,386
489,70	3,715
489,91	3,404
490,12	3,677
490,33	3,385
490,54	3,308
490,74	3,692
490,95	3,814
491,16	3,815
491,37	3,618
491,58	3,518
491,79	3,720
492,00	3,735
492,20	4,007
492,41	3,664
492,62	3,586
492,83	3,721
493,04	4,091
493,25	4,023
493,45	3,529
493,66	3,650
493,87	3,691
494,08	3,517
494,29	3,834
494,50	3,705
494,70	3,964
494,91	3,928
495,12	3,883
495,33	3,788
495,54	3,856
495,75	3,985
495,95	3,804
496,16	3,950
496,37	4,016
496,58	3,928
496,79	3,854
496,99	3,919
497,20	3,767
497,41	4,200
497,62	3,921
497,83	4,154
498,04	3,925
498,24	3,954
498,45	4,050
498,66	4,166
498,87	4,102
499,08	4,181
499,28	4,223
499,49	4,172
499,70	4,107
499,91	4,157
500,12	4,164
500,32	4,155
500,53	3,962
500,74	4,454
500,95	4,293
501,15	4,374
501,36	4,250
501,57	3,952
501,78	4,156
501,99	4,300
502,19	4,035
502,40	4,272
502,61	4,647
502,82	4,370
503,02	4,524
503,23	4,216
503,44	4,293
503,65	4,867
503,86	4,522
504,06	4,425
504,27	4,562
504,48	4,620
504,69	4,399
504,89	4,381
505,10	4,617
505,31	4,587
505,52	4,659
505,72	4,710
505,93	4,956
506,14	4,857
506,35	5,044
506,55	4,469
506,76	4,645
506,97	4,510
507,18	4,812
507,38	4,957
507,59	4,713
507,80	4,990
508,01	4,734
508,21	4,870
508,42	4,602
508,63	4,676
508,84	4,867
509,04	4,895
509,25	4,836
509,46	5,056
509,67	4,762
509,87	4,894
510,08	5,068
510,29	4,922
510,49	4,875
510,70	4,975
510,91	5,026
511,12	4,919
511,32	5,212
511,53	4,868
511,74	5,004
511,94	5,020
512,15	5,187
512,36	5,218
512,57	5,357
512,77	5,051
512,98	5,232
513,19	5,036
513,39	5,326
513,60	5,054
513,81	5,220
514,01	5,041
514,22	5,188
514,43	5,169
514,64	5,106
514,84	5,425
515,05	5,393
515,26	5,215
515,46	5,393
515,67	5,651
515,88	5,476
516,08	5,419
516,29	5,491
516,50	5,609
516,70	5,696
516,91	5,544
517,12	5,500
517,32	5,614
517,53	5,415
517,74	5,732
517,95	5,787
518,15	5,923
518,36	5,699
518,57	5,711
518,77	5,654
518,98	5,907
519,19	6,162
519,39	5,966
519,60	5,985
519,80	6,114
520,01	5,887
520,22	6,199
520,42	5,870
520,63	5,700
520,84	5,794
521,04	5,802
521,25	6,088
521,46	5,915
521,66	6,022
521,87	6,180
522,08	6,272
522,28	6,293
522,49	6,016
522,70	6,240
522,90	6,322
523,11	6,536
523,31	6,628
523,52	6,351
523,73	6,141
523,93	6,791
524,14	6,558
524,35	6,308
524,55	6,982
524,76	6,782
524,97	6,678
525,17	6,923
525,38	6,892
525,58	6,978
525,79	6,644
526,00	6,939
526,20	7,090
526,41	6,873
526,61	6,890
526,82	7,193
527,03	6,692
527,23	6,923
527,44	7,130
527,64	7,156
527,85	7,295
528,06	7,163
528,26	6,903
528,47	7,405
528,68	7,340
528,88	7,153
529,09	7,548
529,29	7,320
529,50	7,537
529,70	7,392
529,91	7,458
530,12	7,657
530,32	7,508
530,53	7,965
530,73	7,511
530,94	7,392
531,15	7,692
531,35	7,614
531,56	7,486
531,76	7,939
531,97	7,393
532,17	8,012
532,38	7,823
532,59	8,019
532,79	8,214
533,00	8,088
533,20	8,079
533,41	7,913
533,61	7,602
533,82	8,171
534,03	8,238
534,23	8,090
534,44	8,238
534,64	8,100
534,85	8,505
535,05	8,357
535,26	8,320
535,46	8,672
535,67	8,953
535,88	8,583
536,08	8,601
536,29	8,616
536,49	8,839
536,70	8,270
536,90	8,729
537,11	8,690
537,31	8,339
537,52	8,749
537,72	8,795
537,93	8,519
538,13	8,862
538,34	8,897
538,55	9,290
538,75	8,509
538,96	8,878
539,16	9,042
539,37	8,947
539,57	8,268
539,78	8,799
539,98	8,869
540,19	9,063
540,39	8,906
540,60	8,910
540,80	9,235
541,01	9,361
541,21	9,296
541,42	9,386
541,62	9,351
541,83	9,070
542,03	9,260
542,24	9,089
542,44	9,223
542,65	9,593
542,85	9,419
543,06	9,493
543,26	9,382
543,47	9,760
543,67	9,868
543,88	9,713
544,08	9,656
544,29	9,723
544,49	9,683
544,70	9,424
544,90	9,620
545,11	9,696
545,31	10,086
545,52	9,707
545,72	10,415
545,93	9,588
546,13	9,959
546,34	9,795
546,54	10,268
546,75	10,021
546,95	9,569
547,15	10,261
547,36	9,856
547,56	9,936
547,77	10,211
547,97	10,110
548,18	9,968
548,38	10,410
548,59	10,184
548,79	9,909
549,00	10,577
549,20	10,017
549,41	10,368
549,61	9,983
549,81	10,183
550,02	10,208
550,22	10,502
550,43	10,608
550,63	10,718
550,84	11,213
551,04	10,583
551,25	10,237
551,45	10,798
551,65	10,529
551,86	10,225
552,06	10,324
552,27	10,618
552,47	10,657
552,68	10,523
552,88	10,342
553,08	10,439
553,29	9,967
553,49	10,338
553,70	10,118
553,90	10,367
554,11	10,417
554,31	10,622
554,51	10,782
554,72	11,135
554,92	10,536
555,13	11,213
555,33	10,690
555,53	10,067
555,74	10,740
555,94	11,179
556,15	10,939
556,35	11,088
556,56	11,048
556,76	11,029
556,96	10,789
557,17	10,599
557,37	10,918
557,58	10,708
557,78	11,007
557,98	10,552
558,19	10,889
558,39	10,609
558,59	10,836
558,80	10,933
559,00	11,271
559,21	11,487
559,41	10,738
559,61	10,904
559,82	11,359
560,02	10,894
560,23	10,882
560,43	10,664
560,63	10,874
560,84	10,813
561,04	10,762
561,24	10,343
561,45	11,212
561,65	11,019
561,85	11,158
562,06	11,017
562,26	10,607
562,47	10,925
562,67	11,240
562,87	11,047
563,08	11,086
563,28	11,336
563,48	11,098
563,69	11,096
563,89	11,316
564,09	11,229
564,30	10,555
564,50	10,858
564,70	11,033
564,91	11,073
565,11	11,160
565,31	11,498
565,52	11,281
565,72	11,436
565,92	11,272
566,13	11,025
566,33	11,017
566,53	11,200
566,74	10,905
566,94	10,915
567,14	11,505
567,35	10,847
567,55	11,237
567,75	10,890
567,96	11,096
568,16	11,000
568,36	11,290
568,57	11,270
568,77	11,111
568,97	11,176
569,18	11,031
569,38	11,724
569,58	11,130
569,79	11,523
569,99	11,876
570,19	11,362
570,39	11,535
570,60	11,569
570,80	11,390
571,00	11,059
571,21	11,149
571,41	11,482
571,61	11,158
571,82	11,723
572,02	11,792
572,22	11,302
572,42	11,534
572,63	11,239
572,83	11,098
573,03	11,135
573,24	10,800
573,44	11,050
573,64	11,186
573,84	11,340
574,05	10,936
574,25	11,588
574,45	11,178
574,66	11,400
574,86	11,305
575,06	11,106
575,26	11,411
575,47	11,357
575,67	11,682
575,87	11,619
576,07	11,208
576,28	11,481
576,48	11,730
576,68	11,399
576,88	10,927
577,09	11,028
577,29	10,606
577,49	10,632
577,69	11,691
577,90	11,233
578,10	10,998
578,30	10,745
578,50	11,027
578,71	11,103
578,91	10,949
579,11	11,050
579,31	11,149
579,52	10,642
579,72	11,337
579,92	10,775
580,12	10,929
580,33	10,649
580,53	11,217
580,73	10,936
580,93	11,213
581,13	10,993
581,34	10,838
581,54	10,721
581,74	10,903
581,94	11,215
582,15	10,944
582,35	10,883
582,55	10,873
582,75	10,911
582,95	10,574
583,16	10,666
583,36	10,607
583,56	10,684
583,76	11,056
583,96	10,796
584,17	11,282
584,37	10,899
584,57	10,855
584,77	10,627
584,97	10,887
585,18	10,985
585,38	10,374
585,58	10,466
585,78	10,757
585,98	10,807
586,19	10,769
586,39	11,031
586,59	10,620
586,79	10,315
586,99	10,740
587,20	10,570
587,40	10,668
587,60	10,300
587,80	10,392
588,00	10,035
588,20	10,351
588,41	10,094
588,61	10,327
588,81	9,823
589,01	10,173
589,21	10,357
589,41	10,275
589,62	10,644
589,82	10,717
590,02	10,241
590,22	10,014
590,42	9,932
590,62	10,271
590,83	10,255
591,03	10,348
591,23	9,887
591,43	10,185
591,63	10,276
591,83	9,675
592,03	9,744
592,24	10,172
592,44	9,701
592,64	9,598
592,84	9,396
593,04	9,950
593,24	10,177
593,44	9,607
593,65	9,801
593,85	9,076
594,05	9,382
594,25	9,412
594,45	9,502
594,65	9,605
594,85	9,424
595,06	9,777
595,26	9,268
595,46	9,145
595,66	9,898
595,86	9,397
596,06	9,400
596,26	9,542
596,46	9,702
596,66	9,786
596,87	9,474
597,07	9,625
597,27	9,524
597,47	9,455
597,67	9,346
597,87	9,485
598,07	9,461
598,27	9,754
598,47	9,806
598,67	9,478
598,88	9,432
599,08	9,908
599,28	9,969
599,48	9,968
599,68	10,130
599,88	10,298
600,08	10,264
600,28	10,477
600,48	10,360
600,68	10,311
600,88	10,733
601,09	10,083
601,29	10,072
601,49	10,623
601,69	10,521
601,89	10,837
602,09	11,134
602,29	10,617
602,49	11,144
602,69	11,005
602,89	10,981
603,09	11,149
603,29	10,746
603,49	10,850
603,69	10,926
603,90	10,609
604,10	10,684
604,30	10,893
604,50	10,975
604,70	10,613
604,90	10,898
605,10	11,059
605,30	10,895
605,50	11,398
605,70	11,105
605,90	11,546
606,10	11,743
606,30	11,450
606,50	11,859
606,70	11,169
606,90	11,133
607,10	11,326
607,30	11,419
607,50	11,520
607,70	11,929
607,90	11,158
608,10	11,018
608,30	11,693
608,50	10,927
608,70	11,171
608,90	11,391
609,11	11,149
609,31	11,600
609,51	11,525
609,71	11,493
609,91	11,380
610,11	11,168
610,31	11,704
610,51	11,007
610,71	11,115
610,91	11,318
611,11	11,297
611,31	11,578
611,51	11,446
611,71	11,297
611,91	11,404
612,11	11,310
612,31	11,029
612,51	11,729
612,71	11,743
612,91	11,817
613,11	11,550
613,31	11,785
613,51	11,596
613,71	11,505
613,91	11,873
614,11	12,042
614,31	11,943
614,50	11,908
614,70	11,585
614,90	11,883
615,10	11,729
615,30	11,255
615,50	12,167
615,70	11,598
615,90	11,500
616,10	11,365
616,30	11,586
616,50	11,463
616,70	11,610
616,90	11,920
617,10	11,898
617,30	11,897
617,50	11,726
617,70	11,847
617,90	11,964
618,10	11,454
618,30	11,720
618,50	11,420
618,70	11,571
618,90	12,014
619,10	11,768
619,30	11,568
619,49	11,824
619,69	11,867
619,89	11,780
620,09	12,124
620,29	12,026
620,49	12,050
620,69	11,994
620,89	12,304
621,09	12,265
621,29	12,167
621,49	12,253
621,69	12,443
621,89	12,508
622,09	12,529
622,29	12,050
622,48	12,431
622,68	12,580
622,88	12,268
623,08	12,486
623,28	12,558
623,48	12,741
623,68	12,628
623,88	12,636
624,08	12,568
624,28	12,888
624,48	12,944
624,67	12,721
624,87	12,683
625,07	12,807
625,27	12,865
625,47	12,871
625,67	13,040
625,87	13,160
626,07	13,028
626,27	13,033
626,47	13,536
626,66	13,143
626,86	13,115
627,06	13,236
627,26	13,140
627,46	13,371
627,66	13,365
627,86	13,191
628,06	13,749
628,25	13,503
628,45	13,589
628,65	13,523
628,85	13,824
629,05	13,995
629,25	14,091
629,45	14,165
629,65	14,465
629,84	14,769
630,04	14,924
630,24	15,462
630,44	15,420
630,64	16,563
630,84	17,031
631,04	17,589
631,23	18,591
631,43	19,126
631,63	20,304
631,83	21,546
632,03	23,331
632,23	24,172
632,42	25,313
632,62	26,801
632,82	28,188
633,02	30,284
633,22	31,519
633,42	32,754
633,62	34,661
633,81	35,572
634,01	37,214
634,21	38,128
634,41	39,778
634,61	40,881
634,80	41,548
635,00	41,383
635,20	42,841
635,40	43,753
635,60	44,305
635,80	46,183
635,99	46,965
636,19	47,622
636,39	49,432
636,59	50,274
636,79	52,393
636,98	54,642
637,18	55,544
637,38	57,385
637,58	58,160
637,78	60,316
637,97	62,147
638,17	64,337
638,37	66,907
638,57	69,244
638,77	71,975
638,96	73,190
639,16	75,579
639,36	76,097
639,56	77,548
639,76	78,538
639,95	80,960
640,15	80,387
640,35	82,977
640,55	82,515
640,75	82,947
640,94	84,021
641,14	84,323
641,34	84,566
641,54	83,904
641,73	84,023
641,93	85,059
642,13	84,208
642,33	85,024
642,53	84,693
642,72	83,767
642,92	84,251
643,12	82,353
643,32	81,232
643,51	81,293
643,71	80,519
643,91	78,711
644,11	78,100
644,30	77,013
644,50	75,654
644,70	74,234
644,90	73,248
645,09	72,270
645,29	70,278
645,49	69,209
645,69	67,914
645,88	64,955
646,08	64,096
646,28	63,686
646,48	62,794
646,67	60,804
646,87	59,433
647,07	56,970
647,26	56,013
647,46	54,974
647,66	52,622
647,86	51,356
648,05	49,907
648,25	48,567
648,45	46,152
648,65	44,481
648,84	42,039
649,04	40,056
649,24	37,729
649,43	35,442
649,63	33,607
649,83	31,641
650,03	29,216
650,22	27,178
650,42	25,207
650,62	23,659
650,81	21,915
651,01	20,417
651,21	19,915
651,40	18,448
651,60	17,747
651,80	16,838
652,00	16,401
652,19	15,844
652,39	15,214
652,59	15,250
652,78	14,656
652,98	14,602
653,18	14,359
653,37	13,750
653,57	13,486
653,77	13,145
653,96	13,104
654,16	13,359
654,36	13,059
654,55	12,438
654,75	12,855
654,95	12,744
655,14	12,642
655,34	12,420
655,54	12,643
655,73	12,997
655,93	12,710
656,13	12,182
656,32	12,515
656,52	12,565
656,72	12,313
656,91	12,495
657,11	12,297
657,31	12,471
657,50	12,236
657,70	12,227
657,90	11,986
658,09	11,936
658,29	12,037
658,49	11,872
658,68	11,442
658,88	11,566
659,07	11,619
659,27	11,517
659,47	11,610
659,66	11,593
659,86	12,136
660,06	12,294
660,25	12,015
660,45	12,011
660,64	11,808
660,84	12,014
661,04	12,099
661,23	11,670
661,43	11,777
661,63	11,306
661,82	11,725
662,02	11,882
662,21	11,638
662,41	11,865
662,61	11,565
662,80	11,680
663,00	11,437
663,19	11,727
663,39	11,710
663,59	12,165
663,78	11,865
663,98	11,833
664,17	11,502
664,37	12,314
664,57	11,512
664,76	11,701
664,96	11,798
665,15	11,975
665,35	11,634
665,55	11,601
665,74	12,122
665,94	11,977
666,13	11,904
666,33	11,792
666,53	12,081
666,72	11,872
666,92	11,916
667,11	11,963
667,31	11,878
667,50	11,985
667,70	12,140
667,90	11,559
668,09	11,831
668,29	11,215
668,48	11,917
668,68	11,374
668,87	11,296
669,07	11,346
669,26	11,287
669,46	11,732
669,66	11,340
669,85	11,431
670,05	11,631
670,24	11,444
670,44	11,331
670,63	11,693
670,83	11,609
671,02	11,315
671,22	11,615
671,42	11,359
671,61	11,654
671,81	11,976
672,00	11,437
672,20	11,448
672,39	11,766
672,59	11,601
672,78	11,837
672,98	11,269
673,17	11,272
673,37	11,687
673,56	11,700
673,76	11,693
673,95	11,509
674,15	11,620
674,34	11,293
674,54	11,585
674,73	11,764
674,93	11,271
675,13	11,109
675,32	11,205
675,52	11,117
675,71	11,842
675,91	11,379
676,10	11,337
676,30	11,763
676,49	11,846
676,69	11,771
676,88	11,864
677,08	11,579
677,27	11,229
677,47	11,901
677,66	11,731
677,86	11,657
678,05	11,739
678,24	11,503
678,44	11,614
678,63	11,476
678,83	11,531
679,02	11,477
679,22	11,684
679,41	11,666
679,61	11,648
679,80	11,427
680,00	11,923
680,19	11,413
680,39	11,539
680,58	11,409
680,78	12,142
680,97	11,916
681,17	11,555
681,36	11,930
681,56	11,430
681,75	11,761
681,94	11,680
682,14	11,468
682,33	11,183
682,53	11,448
682,72	11,768
682,92	11,496
683,11	11,485
683,31	11,876
683,50	11,593
683,69	11,739
683,89	11,649
684,08	11,849
684,28	11,422
684,47	11,645
684,67	11,033
684,86	11,169
685,06	11,375
685,25	11,170
685,44	11,806
685,64	11,506
685,83	11,494
686,03	11,413
686,22	11,356
686,42	11,532
686,61	11,600
686,80	11,667
687,00	11,287
687,19	11,725
687,39	11,457
687,58	11,654
687,77	11,611
687,97	11,413
688,16	11,651
688,36	11,489
688,55	11,570
688,74	11,799
688,94	11,635
689,13	11,563
689,33	11,374
689,52	11,435
689,71	11,531
689,91	11,641
690,10	11,456
690,30	11,541
690,49	11,507
690,68	11,541
690,88	11,268
691,07	11,346
691,27	11,157
691,46	11,433
691,65	11,353
691,85	11,439
692,04	11,259
692,23	11,598
692,43	11,492
692,62	11,357
692,82	11,605
693,01	11,294
693,20	11,337
693,40	10,931
693,59	11,159
693,78	11,450
693,98	11,467
694,17	11,273
694,36	11,239
694,56	11,546
694,75	11,284
694,94	11,564
695,14	11,636
695,33	11,500
695,53	11,320
695,72	11,590
695,91	11,564
696,11	11,648
696,30	11,250
696,49	11,566
696,69	11,162
696,88	11,135
697,07	11,358
697,27	11,320
697,46	11,540
697,65	11,867
697,85	11,628
698,04	11,789
698,23	11,500
698,43	11,375
698,62	11,438
698,81	11,693
699,01	11,322
699,20	10,939
699,39	11,532
699,58	11,069
699,78	11,003
699,97	11,234
700,16	11,511
700,36	11,270
700,55	11,294
700,74	11,075
700,94	11,617
701,13	11,440
701,32	11,304
701,52	11,364
701,71	11,376
701,90	11,493
702,09	11,694
702,29	11,533
702,48	11,427
702,67	11,804
702,87	11,390
703,06	11,821
703,25	11,573
703,44	11,550
703,64	11,518
703,83	11,624
704,02	11,342
704,22	11,640
704,41	11,658
704,60	11,317
704,79	11,572
704,99	11,371
705,18	11,299
705,37	11,884
705,56	11,360
705,76	11,534
705,95	11,469
706,14	11,375
706,33	11,537
706,53	11,431
706,72	11,335
706,91	11,268
707,11	11,298
707,30	11,429
707,49	11,445
707,68	11,685
707,88	11,238
708,07	11,011
708,26	11,717
708,45	10,971
708,64	11,155
708,84	11,045
709,03	11,160
709,22	11,393
709,41	11,881
709,61	11,706
709,80	11,837
709,99	11,509
710,18	11,868
710,38	11,469
710,57	11,734
710,76	11,421
710,95	11,568
711,14	11,334
711,34	11,647
711,53	11,668
711,72	11,287
711,91	11,522
712,11	10,996
712,30	11,517
712,49	11,086
712,68	11,016
712,87	10,853
713,07	11,165
713,26	11,080
713,45	11,701
713,64	11,395
713,83	11,690
714,03	11,533
714,22	11,288
714,41	11,658
714,60	11,468
714,79	11,488
714,99	11,800
715,18	11,497
715,37	11,302
715,56	11,584
715,75	11,290
715,94	11,352
716,14	11,292
716,33	11,390
716,52	11,201
716,71	11,037
716,90	11,138
717,10	11,349
717,29	10,889
717,48	11,277
717,67	11,556
717,86	11,126
718,05	11,282
718,24	11,395
718,44	11,402
718,63	11,055
718,82	11,843
719,01	10,886
719,20	10,863
719,39	11,113
719,59	10,789
719,78	11,237
719,97	11,052
720,16	11,424
720,35	11,411
720,54	11,239
720,73	11,249
720,93	11,093
721,12	11,054
721,31	11,039
721,50	11,240
721,69	11,431
721,88	10,921
722,07	11,430
722,27	11,229
722,46	11,239
722,65	11,185
722,84	11,325
723,03	11,401
723,22	11,031
723,41	11,007
723,60	10,894
723,79	11,421
723,99	11,302
724,18	11,271
724,37	11,232
724,56	11,920
724,75	11,323
724,94	11,407
725,13	11,215
725,32	11,193
725,51	11,277
725,71	11,949
725,90	11,553
726,09	11,407
726,28	11,349
726,47	11,376
726,66	11,319
726,85	11,132
727,04	11,148
727,23	11,295
727,42	10,829
727,61	10,838
727,81	11,070
728,00	11,322
728,19	11,454
728,38	11,182
728,57	10,864
728,76	11,651
728,95	11,098
729,14	11,005
729,33	11,661
729,52	11,195
729,71	11,289
729,90	11,004
730,09	11,200
730,28	11,040
730,48	11,008
730,67	11,450
730,86	11,349
731,05	11,088
731,24	11,246
731,43	11,184
731,62	11,287
731,81	11,316
732,00	11,196
732,19	11,278
732,38	10,879
732,57	11,564
732,76	10,735
732,95	10,662
733,14	10,973
733,33	11,067
733,52	11,399
733,71	11,033
733,90	11,193
734,09	11,535
734,28	11,403
734,47	11,005
734,66	11,012
734,85	11,077
735,04	11,388
735,23	11,255
735,42	11,105
735,61	10,784
735,81	11,266
736,00	11,001
736,19	11,216
736,38	11,061
736,57	11,204
736,76	10,870
736,95	10,678
737,14	11,195
737,33	10,904
737,52	11,333
737,71	11,080
737,90	10,805
738,09	11,221
738,28	11,104
738,47	11,255
738,66	11,148
738,85	11,212
739,04	11,394
739,22	11,136
739,41	11,360
739,60	11,155
739,79	11,098
739,98	10,865
740,17	11,154
740,36	11,237
740,55	11,009
740,74	11,451
740,93	10,925
741,12	11,522
741,31	11,277
741,50	11,438
741,69	11,325
741,88	11,316
742,07	11,455
742,26	11,638
742,45	11,367
742,64	11,763
742,83	11,784
743,02	11,923
743,21	11,735
743,40	11,662
743,59	11,623
743,78	11,620
743,97	11,534
744,16	12,064
744,34	11,294
744,53	11,725
744,72	11,913
744,91	11,511
745,10	11,983
745,29	11,971
745,48	11,975
745,67	12,160
745,86	12,336
746,05	11,953
746,24	12,169
746,43	12,427
746,62	12,757
746,81	12,430
747,00	11,975
747,18	12,277
747,37	12,592
747,56	12,745
747,75	12,783
747,94	12,456
748,13	12,575
748,32	12,710
748,51	12,406
748,70	12,577
748,89	12,454
749,08	12,990
749,26	12,414
749,45	12,602
749,64	12,716
749,83	12,299
750,02	12,735
750,21	13,001
750,40	12,765
750,59	13,093
750,78	13,420
750,96	13,674
751,15	13,096
751,34	13,600
751,53	13,456
751,72	13,760
751,91	13,582
752,10	13,858
752,29	14,195
752,47	14,296
752,66	14,428
752,85	14,686
753,04	15,687
753,23	15,399
753,42	15,619
753,61	15,788
753,80	16,451
753,98	16,577
754,17	16,976
754,36	16,851
754,55	17,620
754,74	17,849
754,93	18,951
755,12	18,753
755,30	19,235
755,49	19,381
755,68	20,405
755,87	20,427
756,06	20,175
756,25	21,227
756,43	22,789
756,62	22,993
756,81	23,691
757,00	24,640
757,19	24,407
757,38	25,677
757,56	26,218
757,75	26,818
757,94	27,340
758,13	28,649
758,32	29,668
758,51	30,040
758,69	30,941
758,88	32,686
759,07	34,830
759,26	35,723
759,45	37,698
759,63	40,042
759,82	40,709
760,01	42,253
760,20	44,553
760,39	46,479
760,57	47,674
760,76	49,482
760,95	52,116
761,14	54,181
761,33	57,170
761,51	58,669
761,70	60,847
761,89	63,411
762,08	64,910
762,27	66,672
762,45	69,907
762,64	72,051
762,83	73,903
763,02	75,618
763,21	76,078
763,39	78,708
763,58	79,627
763,77	82,261
763,96	82,783
764,14	83,366
764,33	84,411
764,52	86,536
764,71	85,867
764,89	88,110
765,08	88,627
765,27	87,792
765,46	88,332
765,65	89,305
765,83	88,850
766,02	89,960
766,21	91,042
766,40	90,562
766,58	91,505
766,77	90,211
766,96	90,319
767,15	90,325
767,33	88,845
767,52	90,541
767,71	89,698
767,90	89,102
768,08	90,662
768,27	91,240
768,46	88,500
768,64	87,878
768,83	88,958
769,02	89,877
769,21	88,759
769,39	88,231
769,58	87,121
769,77	86,526
769,96	85,538
770,14	84,448
770,33	83,972
770,52	84,008
770,70	83,295
770,89	81,128
771,08	80,153
771,27	80,896
771,45	78,626
771,64	77,764
771,83	77,005
772,01	75,547
772,20	74,147
772,39	72,403
772,57	71,548
772,76	70,356
772,95	68,150
773,14	67,105
773,32	66,049
773,51	65,390
773,70	63,909
773,88	61,908
774,07	62,681
774,26	60,188
774,44	58,688
774,63	56,933
774,82	57,730
775,00	55,112
775,19	54,137
775,38	53,053
775,56	51,404
775,75	50,135
775,94	49,658
776,12	47,634
776,31	46,654
776,50	44,516
776,68	43,945
776,87	42,286
777,06	41,733
777,24	39,990
777,43	38,124
777,62	36,476
777,80	35,493
777,99	34,892
778,18	32,148
778,36	30,730
778,55	30,078
778,74	29,068
778,92	27,592
779,11	25,971
779,29	25,293
779,48	24,783
779,67	23,768
779,85	23,207
780,04	21,222
780,23	20,479
780,41	19,457
780,60	18,610
780,79	18,693
780,97	18,010
781,16	17,298
781,34	16,683
781,53	16,463
781,72	15,710
781,90	15,429
782,09	15,077
782,28	14,341
782,46	14,248
782,65	13,617
782,83	13,165
783,02	13,073
783,21	13,129
783,39	13,465
783,58	12,792
783,76	12,803
783,95	12,237
784,14	12,301
784,32	12,049
784,51	12,857
784,69	11,840
784,88	12,512
785,06	12,053
785,25	11,748
785,44	11,520
785,62	11,909
785,81	11,678
785,99	11,944
786,18	11,887
786,37	12,066
786,55	11,597
786,74	12,053
786,92	12,047
787,11	11,203
787,29	11,408
787,48	11,290
787,67	11,168
787,85	11,259
788,04	10,914
788,22	11,343
788,41	11,640
788,59	11,237
788,78	11,242
788,96	10,984
789,15	11,248
789,34	11,476
789,52	11,864
789,71	11,761
789,89	11,768
790,08	11,517
790,26	12,064
790,45	11,380
790,63	11,993
790,82	11,452
791,00	11,491
791,19	11,734
791,38	11,086
791,56	11,675
791,75	11,482
791,93	11,715
792,12	11,919
792,30	11,968
792,49	11,632
792,67	11,569
792,86	11,617
793,04	11,407
793,23	11,539
793,41	11,543
793,60	11,947
793,78	11,724
793,97	11,670
794,15	11,402
794,34	11,629
794,52	11,613
794,71	11,470
794,89	11,396
795,08	12,074
795,26	11,790
795,45	11,644
795,63	11,452
795,82	10,911
796,00	11,259
796,19	11,830
796,37	11,030
796,56	11,228
796,74	11,173
796,93	11,064
797,11	10,852
797,30	10,804
797,48	11,046
797,67	11,237
797,85	10,858
798,04	11,243
798,22	11,415
798,41	11,292
798,59	10,915
798,77	11,205
798,96	11,122
799,14	11,475
799,33	11,444
799,51	10,884
799,70	11,414
799,88	10,656
800,07	10,588
800,25	11,075
800,44	10,418
800,62	10,335
800,80	10,834
800,99	11,116
801,17	11,132
801,36	10,978
801,54	10,883
801,73	10,722
801,91	11,296
802,10	11,676
802,28	11,595
802,46	11,544
802,65	11,456
802,83	11,378
803,02	11,667
803,20	11,308
803,39	11,785
803,57	11,263
803,75	11,164
803,94	11,641
804,12	11,516
804,31	11,401
804,49	11,238
804,67	10,905
804,86	10,817
805,04	10,823
805,23	10,994
805,41	11,154
805,59	11,025
805,78	11,225
805,96	10,748
806,15	11,767
806,33	11,101
806,51	10,483
806,70	10,487
806,88	11,176
807,07	11,210
807,25	10,817
807,43	10,898
807,62	10,753
807,80	10,758
807,99	10,758
808,17	11,194
808,35	11,124
808,54	10,904
808,72	10,797
808,90	11,393
809,09	11,114
809,27	10,987
809,46	11,277
809,64	11,314
809,82	10,821
810,01	11,069
810,19	10,376
810,37	10,852
810,56	11,120
810,74	10,566
810,92	10,925
811,11	10,877
811,29	10,894
811,48	11,198
811,66	11,608
811,84	11,469
812,03	11,028
812,21	11,271
812,39	11,209
812,58	10,746
812,76	10,978
812,94	10,938
813,13	10,920
813,31	11,890
813,49	11,527
813,68	11,347
813,86	10,844
814,04	10,656
814,23	10,703
814,41	10,575
814,59	10,387
814,78	10,315
814,96	10,564
815,14	10,527
815,33	10,665
815,51	11,265
815,69	10,804
815,87	11,140
816,06	11,403
816,24	10,844
816,42	10,663
816,61	10,813
816,79	11,404
816,97	11,114
817,16	10,659
817,34	10,906
817,52	10,898
817,70	10,825
817,89	10,721
818,07	10,329
818,25	10,535
818,44	10,549
818,62	10,772
818,80	10,365
818,98	10,187
819,17	10,495
819,35	10,535
819,53	10,740
819,72	10,750
819,90	11,155
820,08	10,821
820,26	11,029
820,45	10,494
820,63	10,853
820,81	11,057
820,99	11,175
821,18	10,866
821,36	10,731
821,54	11,171
821,73	10,480
821,91	10,565
822,09	10,988
822,27	11,126
822,46	11,209
822,64	11,164
822,82	11,124
823,00	10,993
823,19	10,951
823,37	10,901
823,55	11,116
823,73	10,692
823,91	10,965
824,10	10,721
824,28	10,637
824,46	11,168
824,64	10,887
824,83	11,151
825,01	11,011
825,19	10,753
825,37	10,871
825,56	10,748
825,74	11,094
825,92	10,844
826,10	11,266
826,28	11,387
826,47	10,971
826,65	11,879
826,83	11,203
827,01	11,788
827,19	11,833
827,38	11,421
827,56	11,877
827,74	11,365
827,92	10,961
828,10	11,190
828,29	11,424
828,47	10,535
828,65	10,595
828,83	10,653
829,01	11,234
829,20	10,983
829,38	11,073
829,56	10,860
829,74	10,848
829,92	10,536
830,10	10,956
830,29	10,575
830,47	10,505
830,65	10,369
830,83	11,156
831,01	11,185
831,20	10,303
831,38	10,536
831,56	11,873
831,74	11,321
831,92	11,051
832,10	11,270
832,29	11,931
832,47	10,951
832,65	11,309
832,83	10,985
833,01	11,594
833,19	11,001
833,37	11,564
833,56	11,088
833,74	11,099
833,92	11,247
834,10	11,326
834,28	10,610
834,46	11,494
834,64	10,913
834,83	10,771
835,01	11,046
835,19	11,537
835,37	10,580
835,55	10,779
835,73	11,333
835,91	10,996
836,09	11,306
836,28	11,283
836,46	11,253
836,64	11,053
836,82	11,507
837,00	11,437
837,18	11,625
837,36	11,152
837,54	11,428
837,72	11,554
837,91	11,943
838,09	11,815
838,27	11,360
838,45	11,730
838,63	11,339
838,81	11,583
838,99	11,635
839,17	12,052
839,35	12,340
839,53	12,299
839,72	12,232
839,90	12,255
840,08	12,602
840,26	12,099
840,44	12,388
840,62	12,362
840,80	13,033
840,98	12,378
841,16	12,691
841,34	12,542
841,52	12,710
841,70	12,760
841,89	12,217
842,07	12,338
842,25	12,047
842,43	11,904
842,61	12,749
842,79	12,382
842,97	12,543
843,15	12,211
843,33	12,558
843,51	12,636
843,69	12,339
843,87	13,421
844,05	12,872
844,23	13,187
844,41	13,052
844,59	12,956
844,77	13,045
844,95	13,287
845,13	13,443
845,31	12,742
845,50	13,330
845,68	13,767
845,86	13,646
846,04	14,424
846,22	14,144
846,40	13,717
846,58	13,663
846,76	14,686
846,94	14,358
847,12	14,355
847,30	14,336
847,48	14,758
847,66	15,109
847,84	14,838
848,02	15,178
848,20	15,547
848,38	15,382
848,56	15,845
848,74	15,817
848,92	15,699
849,10	15,371
849,28	15,948
849,46	16,301
849,64	16,792
849,82	16,862
850,00	17,412
850,18	16,842
850,36	18,182
850,54	18,662
850,72	17,547
850,90	18,811
851,08	19,351
851,26	19,139
851,44	19,481
851,62	20,198
851,80	19,890
851,98	20,421
852,16	21,102
852,34	20,665
852,52	20,550
852,70	21,153
852,87	21,832
853,05	22,171
853,23	22,291
853,41	22,726
853,59	22,230
853,77	23,873
853,95	24,279
854,13	24,624
854,31	25,586
854,49	25,922
854,67	25,700
854,85	26,820
855,03	27,753
855,21	28,972
855,39	28,154
855,57	30,082
855,75	30,346
855,93	31,127
856,11	30,882
856,28	32,250
856,46	33,232
856,64	34,051
856,82	35,011
857,00	35,396
857,18	37,024
857,36	38,755
857,54	39,285
857,72	40,332
857,90	42,184
858,08	43,329
858,26	46,545
858,44	46,656
858,61	47,890
858,79	49,752
858,97	51,946
859,15	53,802
859,33	54,974
859,51	57,189
859,69	58,830
859,87	58,738
860,05	61,471
860,23	63,673
860,40	64,780
860,58	65,832
860,76	67,542
860,94	68,745
861,12	69,561
861,30	70,585
861,48	72,922
861,66	73,515
861,84	75,117
862,01	75,424
862,19	76,893
862,37	77,666
862,55	78,340
862,73	78,179
862,91	79,681
863,09	80,891
863,27	80,435
863,44	80,056
863,62	82,057
863,80	81,445
863,98	80,507
864,16	81,168
864,34	82,494
864,52	82,915
864,69	81,253
864,87	82,161
865,05	81,274
865,23	80,862
865,41	80,816
865,59	80,887
865,76	82,275
865,94	80,646
866,12	80,655
866,30	78,987
866,48	78,572
866,66	78,130
866,83	77,301
867,01	76,630
867,19	76,048
867,37	74,912
867,55	74,618
867,73	71,592
867,90	70,659
868,08	70,391
868,26	68,989
868,44	67,590
868,62	67,483
868,79	65,617
868,97	63,722
869,15	62,852
869,33	60,095
869,51	60,715
869,69	56,804
869,86	57,741
870,04	54,462
870,22	54,138
870,40	53,117
870,57	50,960
870,75	49,261
870,93	49,098
871,11	48,115
871,29	45,957
871,46	45,607
871,64	44,506
871,82	42,582
872,00	40,590
872,18	40,034
872,35	38,379
872,53	36,727
872,71	35,714
872,89	33,783
873,06	31,983
873,24	30,536
873,42	29,997
873,60	28,311
873,77	28,212
873,95	26,233
874,13	23,891
874,31	24,775
874,49	22,327
874,66	21,833
874,84	21,815
875,02	19,350
875,20	19,880
875,37	19,272
875,55	18,329
875,73	17,261
875,91	17,231
876,08	16,253
876,26	15,978
876,44	15,242
876,61	14,601
876,79	14,485
876,97	13,986
877,15	13,060
877,32	12,467
877,50	12,542
877,68	12,727
877,86	12,332
878,03	13,032
878,21	11,440
878,39	11,411
878,56	11,701
878,74	12,126
878,92	11,131
879,10	10,725
879,27	11,731
879,45	11,453
879,63	11,675
879,80	10,872
879,98	11,065
880,16	11,081
880,34	10,898
880,51	10,399
880,69	11,080
880,87	10,857
881,04	10,964
881,22	10,569
881,40	10,455
881,57	10,919
881,75	10,717
881,93	10,276
882,10	10,746
882,28	10,705
882,46	11,071
882,63	10,458
882,81	10,066
882,99	10,131
883,16	9,637
883,34	10,301
883,52	10,061
883,69	10,034
883,87	10,041
884,05	9,850
884,22	9,613
884,40	9,820
884,58	10,228
884,75	10,058
884,93	10,007
885,11	9,633
885,28	9,274
885,46	9,247
885,64	9,349
885,81	9,426
885,99	9,400
886,17	9,248
886,34	9,387
886,52	10,055
886,70	9,314
886,87	9,019
887,05	9,801
887,22	9,543
887,40	10,056
887,58	9,122
887,75	9,880
887,93	9,763
888,11	9,083
888,28	8,941
888,46	9,012
888,63	9,378
888,81	8,825
888,99	9,436
889,16	8,702
889,34	9,267
889,51	9,134
889,69	9,145
889,87	9,098
890,04	9,407
890,22	9,629
890,39	9,380
890,57	9,756
890,75	9,229
890,92	8,929
891,10	8,720
891,27	8,903
891,45	8,923
891,63	9,348
891,80	8,828
891,98	8,771
892,15	9,049
892,33	8,588
892,51	8,630
892,68	8,426
892,86	8,956
893,03	9,216
893,21	8,860
893,38	8,878
893,56	8,885
893,74	8,921
893,91	9,409
894,09	8,799
894,26	8,567
894,44	8,389
894,61	8,382
894,79	9,332
894,96	9,079
895,14	8,634
895,32	9,138
895,49	8,290
895,67	8,742
895,84	7,789
896,02	8,814
896,19	8,135
896,37	8,660
896,54	8,435
896,72	8,193
896,89	8,613
897,07	8,520
897,25	8,951
897,42	8,404
897,60	8,787
897,77	9,114
897,95	8,094
898,12	8,120
898,30	8,394
898,47	7,900
898,65	8,584
898,82	7,896
899,00	8,089
899,17	7,767
899,35	7,909
899,52	8,629
899,70	8,841
899,87	8,719
900,05	8,669
900,22	8,350
900,40	8,359
900,57	8,693
900,75	7,735
900,92	8,286
901,10	8,075
901,27	7,821
901,45	8,417
901,62	8,287
901,80	8,115
901,97	8,628
902,15	8,149
902,32	8,315
902,50	7,838
902,67	8,155
902,85	7,970
903,02	8,122
903,20	8,367
903,37	8,839
903,54	7,743
903,72	7,935
903,89	7,791
904,07	7,639
904,24	7,902
904,42	7,204
904,59	8,501
904,77	7,956
904,94	7,806
905,12	8,033
905,29	8,699
905,47	7,909
905,64	8,665
905,81	7,416
905,99	8,333
906,16	8,714
906,34	7,666
906,51	8,309
906,69	8,471
906,86	7,773
907,03	8,050
907,21	7,899
907,38	8,064
907,56	7,799
907,73	8,191
907,91	8,144
908,08	7,768
908,25	7,635
908,43	8,210
908,60	7,355
908,78	7,991
908,95	7,897
909,13	7,567
909,30	6,995
909,47	7,934
909,65	7,466
909,82	7,654
910,00	7,578
910,17	7,299
910,34	7,455
910,52	7,886
910,69	7,447
910,87	7,223
911,04	7,530
911,21	7,552
911,39	7,306
911,56	7,460
911,73	7,316
911,91	7,587
912,08	6,897
912,26	7,132
912,43	7,431
912,60	7,772
912,78	6,777
912,95	7,353
913,13	6,882
913,30	7,161
913,47	7,112
913,65	7,132
913,82	7,490
913,99	6,940
914,17	7,679
914,34	6,828
914,51	7,126
914,69	7,363
914,86	7,018
915,03	7,108
915,21	6,839
915,38	7,461
915,56	6,968
915,73	6,687
915,90	7,292
916,08	7,501
916,25	6,803
916,42	7,295
916,60	7,112
916,77	6,827
916,94	6,479
917,12	6,701
917,29	7,163
917,46	7,035
917,64	7,232
917,81	6,889
917,98	7,193
918,16	6,839
918,33	6,769
918,50	6,865
918,67	7,296
918,85	6,863
919,02	6,538
919,19	6,916
919,37	6,744
919,54	6,452
919,71	6,282
919,89	6,558
920,06	6,192
920,23	6,007
920,41	7,140
920,58	7,023
920,75	6,601
920,92	6,383
921,10	5,991
921,27	5,842
921,44	6,841
921,62	6,326
921,79	6,538
921,96	7,378
922,13	6,738
922,31	7,290
922,48	6,628
922,65	6,462
922,82	6,965
923,00	5,763
923,17	5,763
923,34	6,221
923,52	6,410
923,69	6,113
923,86	6,704
924,03	5,918
924,21	6,428
924,38	5,967
924,55	5,681
924,72	6,020
924,90	5,998
925,07	6,419
925,24	5,472
925,41	6,300
925,59	5,947
925,76	5,443
925,93	6,024
926,10	5,329
926,28	6,261
926,45	5,459
926,62	5,144
926,79	5,507
926,96	5,460
927,14	6,240
927,31	5,654
927,48	5,637
927,65	5,627
927,83	5,841
928,00	5,875
928,17	6,324
928,34	5,256
928,51	5,806
928,69	5,851
928,86	5,729
929,03	5,855
929,20	5,619
929,37	5,525
929,55	6,352
929,72	5,340
929,89	4,932
930,06	4,803
930,23	5,839
930,41	5,430
930,58	5,844
930,75	5,132
930,92	6,072
931,09	5,311
931,27	5,459
931,44	6,168
931,61	5,311
931,78	5,653
931,95	5,996
932,12	5,638
932,30	6,288
932,47	5,822
932,64	5,265
932,81	5,188
932,98	5,704
933,16	5,348
933,33	5,121
933,50	4,880
933,67	5,473
933,84	4,766
934,01	4,356
934,18	4,717
934,36	4,949
934,53	5,498
934,70	5,804
934,87	6,018
935,04	5,968
935,21	5,770
935,38	5,592
935,56	5,843
935,73	5,125
935,90	5,054
936,07	5,356
936,24	5,333
936,41	5,304
936,58	5,308
936,76	5,135
936,93	4,180
937,10	4,941
937,27	4,869
937,44	5,501
937,61	5,455
937,78	5,013
937,95	5,540
938,13	5,138
938,30	4,745
938,47	5,015
938,64	4,571
938,81	5,112
938,98	4,827
939,15	4,981
939,32	5,021
939,49	4,908
939,66	4,916
939,84	4,971
940,01	4,343
940,18	4,607
940,35	4,804
940,52	4,192
940,69	4,984
940,86	5,576
941,03	4,628
941,20	5,273
941,37	5,098
941,54	4,661
941,71	5,373
941,89	5,035
942,06	5,197
942,23	5,352
942,40	5,486
942,57	5,354
942,74	5,336
942,91	5,373
943,08	4,982
943,25	5,195
943,42	3,925
943,59	5,396
943,76	5,085
943,93	4,928
944,10	5,007
944,27	4,603
944,44	5,324
944,61	5,479
944,79	5,058
944,96	4,794
945,13	4,490
945,30	5,055
945,47	5,011
945,64	5,253
945,81	4,467
945,98	5,119
946,15	4,731
946,32	4,864
946,49	4,725
946,66	4,751
946,83	4,328
947,00	5,190
947,17	5,281
947,34	5,268
947,51	5,327
947,68	5,338
947,85	4,683
948,02	5,461
948,19	4,584
948,36	5,902
948,53	4,808
948,70	5,070
948,87	4,285
949,04	4,494
949,21	5,108
949,38	5,443
949,55	5,616
949,72	4,954
949,89	5,481
950,06	4,743
950,23	4,844
950,40	5,926
950,57	4,539
950,74	4,261
950,91	4,691
951,08	5,538
951,25	5,825
951,42	5,332
951,59	5,192
951,76	5,599
951,93	4,653
952,10	6,202
952,27	6,080
952,44	5,673
952,61	5,883
952,77	6,437
952,94	6,404
953,11	5,655
953,28	5,590
953,45	5,116
953,62	5,835
953,79	5,428
953,96	5,979
954,13	6,411
954,30	6,905
954,47	5,556
954,64	5,798
954,81	6,426
954,98	6,215
955,15	5,430
955,32	5,249
955,49	6,327
955,65	6,393
955,82	6,313
955,99	5,811
956,16	6,426
956,33	6,948
956,50	5,806
956,67	6,419
956,84	6,551
957,01	6,559
957,18	5,594
957,35	6,967
957,52	6,500
957,68	6,574
957,85	7,047
958,02	6,890
958,19	6,217
958,36	7,259
958,53	6,673
958,70	6,984
958,87	7,705
959,04	7,346
959,21	6,800
959,37	7,932
959,54	7,183
959,71	7,175
959,88	7,625
960,05	7,034
960,22	6,860
960,39	7,492
960,56	6,560
960,72	8,250
960,89	8,814
961,06	6,875
961,23	7,590
961,40	8,208
961,57	5,826
961,74	6,609
961,90	7,014
962,07	8,013
962,24	7,128
962,41	6,101
962,58	6,974
962,75	6,728
962,92	6,583
963,08	6,678
963,25	8,555
963,42	8,705
963,59	5,635
963,76	7,606
963,93	8,791
964,10	9,360
964,26	9,935
964,43	6,938
964,60	6,386
964,77	7,569
964,94	8,344
965,10	7,366
965,27	8,120
965,44	8,018
965,61	8,934
965,78	7,937
965,95	8,803
966,11	8,830
966,28	9,019
966,45	8,238
966,62	7,949
966,79	7,962
966,95	7,627
967,12	9,259
967,29	7,641
967,46	7,716
967,63	7,973
967,79	10,144
967,96	8,120
968,13	7,588
968,30	7,389
968,47	6,714
968,63	9,365
968,80	8,049
968,97	8,001
969,14	6,315
969,31	7,577
969,47	8,302
969,64	8,118
969,81	7,659
969,98	7,467
970,14	8,664
970,31	8,479
970,48	7,926
970,65	7,104
970,81	7,907
970,98	8,302
971,15	8,896
971,32	9,449
971,48	7,162
971,65	9,778
971,82	9,382
971,99	8,728
972,15	6,600
972,32	8,011
972,49	8,353
972,66	9,291
972,82	9,578
972,99	7,946
973,16	8,735
973,33	8,864
973,49	9,036
973,66	8,680
973,83	9,553
974,00	7,758
974,16	12,037
974,33	8,976
974,50	8,732
974,67	9,920
974,83	8,810
975,00	9,524
975,17	8,391
975,33	9,224
975,50	11,383
975,67	6,787
975,84	6,085
976,00	10,032
976,17	7,781
976,34	7,233
976,50	10,588
976,67	7,967
976,84	8,175
977,00	8,288
977,17	7,360
977,34	6,825
977,50	8,599
977,67	9,723
977,84	9,991
978,01	9,639
978,17	10,090
978,34	7,801
978,51	7,509
978,67	8,512
978,84	8,873
979,01	8,454
979,17	10,184
979,34	9,789
979,51	10,365
979,67	8,379
979,84	9,432
980,01	9,454
980,17	8,983
980,34	9,460
980,51	7,312
980,67	10,353
980,84	8,317
981,01	6,697
981,17	8,021
981,34	9,573
981,50	8,211
981,67	8,386
981,84	9,403
982,00	4,053
982,17	8,584
982,34	10,954
982,50	9,165
982,67	9,928
982,84	8,281
983,00	8,119
983,17	8,104
983,33	8,691
983,50	7,988
983,67	10,093
983,83	6,794
984,00	9,331
984,17	10,283
984,33	5,920
984,50	8,140
984,66	10,309
984,83	8,763
985,00	7,781
985,16	11,537
985,33	10,515
985,49	10,087
985,66	8,622
985,83	8,158
985,99	8,204
986,16	11,277
986,32	9,805
986,49	10,947
986,66	10,535
986,82	11,153
986,99	9,336
987,15	11,362
987,32	6,407
987,49	8,303
987,65	8,812
987,82	8,812
987,98	8,527
988,15	10,237
988,31	9,812
988,48	12,024
988,65	9,110
988,81	11,148
988,98	9,155
989,14	9,581
989,31	11,963
989,47	9,408
989,64	7,003
989,80	8,781
989,97	11,337
990,14	7,773
990,30	11,919
990,47	11,631
990,63	12,624
990,80	9,383
990,96	10,708
991,13	7,447
991,29	8,110
991,46	8,367
991,62	10,319
991,79	6,327
991,95	10,622
992,12	8,486
992,29	11,042
992,45	7,184
992,62	11,443
992,78	7,113
992,95	8,246
993,11	10,606
993,28	11,960
993,44	6,091
993,61	9,069
993,77	9,135
993,94	8,430
994,10	9,700
994,27	11,067
994,43	9,472
994,60	8,410
994,76	7,593
994,93	7,238
995,09	10,568
995,26	10,213
995,42	7,205
995,59	8,575
995,75	10,179
995,92	7,668
996,08	15,153
996,25	9,296
996,41	10,696
996,58	8,187
996,74	13,924
996,91	3,914
997,07	10,385
997,23	9,524
997,40	11,575
997,56	7,536
997,73	10,020
997,89	8,664
998,06	11,318
998,22	7,941
998,39	8,019
998,55	12,952
998,72	6,027
998,88	11,824
999,05	10,609
999,21	6,694
999,37	10,573
999,54	10,362
999,70	7,069
999,87	10,575
1000,03	7,351
1000,20	9,097
1000,36	4,678
1000,52	9,143
1000,69	12,163
1000,85	12,915
1001,02	12,729
1001,18	9,371
1001,35	11,715
1001,51	12,706
1001,67	6,894
1001,84	8,351
1002,00	4,235
1002,17	11,676
1002,33	8,040
1002,50	9,431
1002,66	11,493
1002,82	5,896
1002,99	8,668
1003,15	12,320
1003,32	10,627
1003,48	5,851
1003,64	8,484
1003,81	13,281
1003,97	8,828
1004,14	11,016
1004,30	4,672
1004,46	7,565
1004,63	6,838
1004,79	14,182
1004,95	9,604
1005,12	8,313
1005,28	15,210
1005,45	10,846
1005,61	9,211
1005,77	9,630
1005,94	8,115
1006,10	9,346
1006,26	9,492
1006,43	12,601
1006,59	10,499
1006,76	5,822
1006,92	10,509
1007,08	11,445
1007,25	8,406
1007,41	10,816
1007,57	11,345
1007,74	10,549
1007,90	8,433
1008,06	11,659
1008,23	9,511
1008,39	10,290
1008,55	9,904
1008,72	9,704
1008,88	6,475
1009,04	8,685
1009,21	4,332
1009,37	7,011
1009,53	7,194
1009,70	8,297
1009,86	12,319
1010,02	4,774
1010,19	10,088
1010,35	10,545
1010,51	7,616
1010,68	10,492
1010,84	6,708
1011,00	11,983
1011,17	10,073
1011,33	9,747
1011,49	11,052
1011,66	9,492
1011,82	4,638
1011,98	9,009
1012,14	8,397
1012,31	11,880
1012,47	8,775
1012,63	10,238
1012,80	8,475
1012,96	9,355
1013,12	8,016
1013,29	11,133
1013,45	6,745
1013,61	13,820
1013,77	10,840
1013,94	8,853
1014,10	10,634
1014,26	2,688
1014,43	12,040
1014,59	9,897
1014,75	7,646
1014,91	8,866
1015,08	13,897
1015,24	13,821
1015,40	6,723
1015,56	7,668
1015,73	8,081
1015,89	7,611
1016,05	8,478
1016,21	8,245
1016,38	8,960
1016,54	10,094
1016,70	9,489
1016,86	9,295
1017,03	5,978
1017,19	6,366
1017,35	9,120
1017,51	9,769
1017,68	8,682
1017,84	4,604
1018,00	6,051
1018,16	10,204
1018,33	13,578
1018,49	7,832
1018,65	8,096
1018,81	13,793
1018,97	9,091
1019,14	7,175
1019,30	7,134
1019,46	8,314
1019,62	6,186
1019,79	7,060
1019,95	13,993
1020,11	9,834
1020,27	4,364
1020,43	9,917
1020,60	4,282
1020,76	12,857
1020,92	12,791
1021,08	3,663
1021,24	14,007
1021,41	5,606
1021,57	7,510
1021,73	6,435
1021,89	9,912
1022,05	13,976
1022,21	9,079
1022,38	8,000
1022,54	9,383
1022,70	11,966
1022,86	6,633
1023,02	10,091
1023,19	7,692
1023,35	0,545
1023,51	13,235
1023,67	9,449
1023,83	15,348
1023,99	14,139
1024,16	10,739
1024,32	2,033
1024,48	16,996
1024,64	13,352
1024,80	8,276
1024,96	-0,395
1025,12	12,278
1025,29	3,960
1025,45	15,894
1025,61	10,596
1025,77	2,754
1025,93	10,081
1026,09	11,491
1026,26	9,064
1026,42	12,221
1026,58	9,117
1026,74	9,605
1026,90	3,490
1027,06	8,455
1027,22	10,984
1027,38	10,969
1027,55	11,647
1027,71	8,178
1027,87	13,947
1028,03	8,501
1028,19	4,985
1028,35	6,719
1028,51	6,997
1028,67	1,657
1028,83	9,049
1029,00	9,787
1029,16	8,789
1029,32	13,582
1029,48	6,953
1029,64	6,456
1029,80	11,111
1029,96	8,576
1030,12	9,404
1030,28	3,697
1030,44	10,128
1030,61	8,703
1030,77	6,656
1030,93	6,486
1031,09	12,239
1031,25	1,513
1031,41	10,436
1031,57	5,977
1031,73	2,764
1031,89	5,298
1032,05	6,539
1032,21	6,500
1032,37	1,103
1032,53	14,217
1032,69	10,309
1032,86	1,560
1033,02	3,035
1033,18	0,000
1033,34	8,406
1033,50	13,356
1033,66	11,957
1033,82	13,333
1033,98	4,505
1034,14	6,480
1034,30	5,609
1034,46	8,945
1034,62	8,190
1034,78	14,261
1034,94	7,558
1035,10	9,041
1035,26	11,628
1035,42	9,312
1035,58	12,218
1035,74	3,200
1035,90	13,786
1036,06	5,361
1036,22	11,607
1036,38	9,827
1036,54	10,139
1036,70	6,212
1036,86	7,471
1037,02	3,619
1037,18	5,472
1037,34	14,815
1037,50	0,620
1037,66	11,243
1037,82	10,616
1037,98	11,195
1038,14	10,021
1038,30	12,377
1038,46	7,648
1038,62	3,151
1038,78	2,449
1038,94	6,342
1039,10	5,642
1039,26	8,817
1039,42	18,838
1039,58	15,299
1039,74	7,373
1039,90	9,073
1040,06	0,798
>>>>>End Processed Spectral Data<<<<<
