SpectraSuite Data File
++++++++++++++++++++++++++++++++++++
Date: Thu Feb 02 18:52:47 EET 2017
User: optolab
Dark Spectrum Present: Yes
Reference Spectrum Present: Yes
Number of Sampled Component Spectra: 1
Spectrometers: USB4C02475
Integration Time (usec): 151411 (USB4C02475)
Spectra Averaged: 1 (USB4C02475)
Boxcar Smoothing: 0 (USB4C02475)
Correct for Electrical Dark: No (USB4C02475)
Strobe/Lamp Enabled: No (USB4C02475)
Correct for Detector Non-linearity: No (USB4C02475)
Correct for Stray Light: No (USB4C02475)
Number of Pixels in Processed Spectrum: 3648
>>>>>Begin Processed Spectral Data<<<<<
344,91	218,519
345,13	218,519
345,35	218,519
345,57	-320,000
345,79	-46,154
346,00	-120,000
346,22	-18,919
346,44	-30,769
346,66	-133,333
346,87	80,000
347,09	600,000
347,31	2000,000
347,53	10,256
347,74	100,000
347,96	366,667
348,18	34,146
348,40	-193,333
348,61	58,824
348,83	91,667
349,05	-47,273
349,27	76,471
349,48	66,667
349,70	94,545
349,92	100,000
350,14	-750,000
350,35	57,692
350,57	10,294
350,79	21,277
351,01	183,871
351,22	114,286
351,44	95,556
351,66	39,024
351,87	45,455
352,09	59,615
352,31	130,435
352,53	91,935
352,74	-59,375
352,96	31,633
353,18	-77,273
353,40	225,000
353,61	36,667
353,83	72,000
354,05	3,448
354,26	-4,545
354,48	154,545
354,70	92,500
354,92	57,143
355,13	93,878
355,35	-450,000
355,57	83,117
355,78	87,500
356,00	-51,163
356,22	74,627
356,44	0,000
356,65	87,179
356,87	44,444
357,09	-46,377
357,30	56,757
357,52	-5,714
357,74	120,000
357,95	138,889
358,17	-30,556
358,39	625,000
358,60	37,895
358,82	44,444
359,04	5,556
359,26	-2,222
359,47	106,897
359,69	1400,000
359,91	-21,875
360,12	3,175
360,34	189,474
360,56	20,000
360,77	27,778
360,99	80,000
361,21	61,538
361,42	-15,000
361,64	74,242
361,86	16,484
362,07	48,515
362,29	-128,571
362,51	62,963
362,72	65,000
362,94	0,000
363,16	84,058
363,37	76,563
363,59	40,659
363,81	37,288
364,02	54,545
364,24	101,538
364,46	-26,000
364,67	-33,333
364,89	12,162
365,11	-466,667
365,32	122,807
365,54	73,913
365,76	27,500
365,97	10,000
366,19	47,368
366,41	53,846
366,62	64,286
366,84	113,333
367,05	29,167
367,27	27,273
367,49	46,970
367,70	15,217
367,92	77,215
368,14	36,559
368,35	45,679
368,57	-2,222
368,79	22,973
369,00	65,714
369,22	44,792
369,43	27,551
369,65	86,905
369,87	39,506
370,08	23,188
370,30	35,294
370,51	45,802
370,73	7,937
370,95	-27,835
371,16	45,455
371,38	31,507
371,60	-12,791
371,81	67,368
372,03	40,000
372,24	-26,316
372,46	-6,667
372,68	55,696
372,89	19,298
373,11	-31,481
373,32	19,048
373,54	79,687
373,76	21,008
373,97	-10,569
374,19	65,556
374,40	43,478
374,62	54,545
374,84	-14,563
375,05	27,368
375,27	16,667
375,48	37,662
375,70	43,243
375,92	1,087
376,13	35,238
376,35	15,854
376,56	60,256
376,78	13,846
376,99	5,195
377,21	36,508
377,43	32,292
377,64	50,000
377,86	15,054
378,07	55,789
378,29	39,091
378,51	32,812
378,72	-4,630
378,94	1,399
379,15	15,493
379,37	37,226
379,58	54,701
379,80	33,702
380,01	32,000
380,23	14,925
380,45	24,000
380,66	21,528
380,88	6,471
381,09	19,318
381,31	33,529
381,52	6,757
381,74	11,321
381,95	-10,526
382,17	17,416
382,39	37,952
382,60	19,424
382,82	13,475
383,03	30,000
383,25	29,078
383,46	1,739
383,68	9,494
383,89	37,363
384,11	15,476
384,32	47,143
384,54	7,619
384,76	38,728
384,97	25,568
385,19	13,600
385,40	27,381
385,62	22,340
385,83	12,258
386,05	11,189
386,26	40,741
386,48	40,260
386,69	12,000
386,91	13,514
387,12	30,319
387,34	10,497
387,55	-2,941
387,77	21,925
387,98	29,630
388,20	39,286
388,41	31,727
388,63	23,810
388,84	31,544
389,06	28,415
389,27	35,484
389,49	16,990
389,70	37,234
389,92	11,823
390,13	26,351
390,35	8,929
390,56	23,770
390,78	33,473
390,99	13,990
391,21	36,765
391,42	23,887
391,64	3,145
391,85	19,487
392,07	18,681
392,28	48,413
392,50	25,769
392,71	23,618
392,93	-0,830
393,14	21,311
393,36	36,486
393,57	39,914
393,79	17,808
394,00	-2,353
394,22	-2,010
394,43	11,894
394,65	24,066
394,86	28,897
395,08	-15,607
395,29	3,111
395,50	22,807
395,72	11,489
395,93	17,769
396,15	21,818
396,36	19,307
396,58	28,700
396,79	8,562
397,01	7,595
397,22	23,596
397,44	31,646
397,65	21,555
397,87	35,907
398,08	18,447
398,29	25,589
398,51	24,484
398,72	26,471
398,94	16,897
399,15	20,312
399,37	22,260
399,58	32,549
399,80	31,897
400,01	21,884
400,22	23,077
400,44	-5,858
400,65	8,667
400,87	19,935
401,08	14,478
401,30	16,724
401,51	24,719
401,72	13,235
401,94	14,336
402,15	15,000
402,37	12,088
402,58	5,017
402,80	25,068
403,01	13,158
403,22	23,295
403,44	27,211
403,65	18,531
403,87	3,077
404,08	9,211
404,30	14,607
404,51	19,437
404,72	20,489
404,94	19,098
405,15	21,429
405,37	19,668
405,58	23,284
405,79	15,957
406,01	17,827
406,22	15,990
406,44	4,199
406,65	21,550
406,86	15,116
407,08	18,384
407,29	11,732
407,51	21,053
407,72	19,894
407,93	25,066
408,15	20,048
408,36	18,780
408,58	21,429
408,79	19,481
409,00	15,632
409,22	8,750
409,43	14,750
409,64	6,652
409,86	18,794
410,07	16,594
410,29	18,222
410,50	24,082
410,71	22,438
410,93	17,045
411,14	9,978
411,35	22,717
411,57	5,251
411,78	15,743
412,00	14,687
412,21	19,221
412,42	10,465
412,64	12,848
412,85	4,270
413,06	9,592
413,28	20,668
413,49	9,554
413,70	15,709
413,92	14,000
414,13	14,053
414,34	18,990
414,56	13,077
414,77	25,532
414,98	18,505
415,20	8,755
415,41	18,987
415,63	9,865
415,84	10,830
416,05	18,020
416,27	16,058
416,48	14,549
416,69	8,726
416,91	13,465
417,12	11,048
417,33	6,554
417,55	9,660
417,76	15,466
417,97	16,291
418,19	3,933
418,40	9,201
418,61	17,614
418,83	17,978
419,04	16,520
419,25	13,968
419,46	13,173
419,68	21,452
419,89	13,074
420,10	18,885
420,32	12,056
420,53	8,306
420,74	16,946
420,96	13,839
421,17	15,689
421,38	20,282
421,60	14,420
421,81	14,394
422,02	7,201
422,23	16,105
422,45	10,294
422,66	7,120
422,87	15,865
423,09	10,188
423,30	8,879
423,51	9,783
423,73	14,511
423,94	13,223
424,15	17,275
424,36	11,078
424,58	13,643
424,79	14,286
425,00	14,774
425,22	4,937
425,43	6,166
425,64	10,870
425,85	18,289
426,07	9,946
426,28	10,278
426,49	13,969
426,71	14,342
426,92	13,520
427,13	8,619
427,34	16,420
427,56	12,471
427,77	16,649
427,98	13,082
428,19	15,574
428,41	14,932
428,62	9,815
428,83	11,525
429,04	12,269
429,26	14,095
429,47	14,147
429,68	7,739
429,89	11,245
430,11	13,598
430,32	9,408
430,53	12,340
430,74	9,621
430,96	15,297
431,17	14,151
431,38	12,430
431,59	11,070
431,81	15,302
432,02	13,859
432,23	14,198
432,44	9,139
432,66	12,831
432,87	14,111
433,08	8,373
433,29	12,139
433,51	11,667
433,72	6,339
433,93	10,688
434,14	11,416
434,35	11,693
434,57	9,560
434,78	7,440
434,99	12,283
435,20	14,033
435,42	11,626
435,63	12,306
435,84	12,087
436,05	8,322
436,26	10,347
436,48	9,860
436,69	11,027
436,90	7,588
437,11	10,523
437,32	10,796
437,54	6,667
437,75	10,209
437,96	9,433
438,17	11,055
438,38	8,822
438,60	6,319
438,81	8,397
439,02	10,753
439,23	8,992
439,44	8,824
439,66	8,187
439,87	5,187
440,08	8,204
440,29	8,499
440,50	8,455
440,72	6,027
440,93	8,182
441,14	7,309
441,35	8,625
441,56	7,420
441,77	7,010
441,99	7,899
442,20	5,426
442,41	8,259
442,62	7,425
442,83	7,634
443,04	6,637
443,26	5,505
443,47	6,695
443,68	5,928
443,89	8,603
444,10	6,241
444,31	6,941
444,53	5,836
444,74	4,691
444,95	7,005
445,16	5,487
445,37	6,267
445,58	7,104
445,80	5,376
446,01	6,421
446,22	5,179
446,43	4,680
446,64	4,955
446,85	5,403
447,06	4,869
447,28	4,661
447,49	6,331
447,70	3,450
447,91	4,772
448,12	4,733
448,33	5,217
448,54	5,164
448,76	5,819
448,97	5,519
449,18	4,523
449,39	3,492
449,60	4,349
449,81	4,782
450,02	4,696
450,23	4,405
450,45	3,526
450,66	4,266
450,87	3,983
451,08	3,890
451,29	4,216
451,50	3,423
451,71	3,206
451,92	3,721
452,13	4,147
452,35	3,056
452,56	3,984
452,77	2,579
452,98	4,006
453,19	3,520
453,40	3,330
453,61	2,801
453,82	2,638
454,03	3,180
454,25	3,728
454,46	2,562
454,67	2,674
454,88	3,022
455,09	1,929
455,30	3,103
455,51	2,327
455,72	2,410
455,93	2,775
456,14	3,105
456,35	2,568
456,56	2,701
456,78	2,797
456,99	2,686
457,20	2,102
457,41	2,520
457,62	2,512
457,83	2,070
458,04	2,215
458,25	1,894
458,46	1,909
458,67	2,293
458,88	2,083
459,09	1,755
459,30	2,079
459,51	2,218
459,73	1,627
459,94	1,848
460,15	2,231
460,36	1,951
460,57	1,989
460,78	1,900
460,99	1,765
461,20	1,809
461,41	1,653
461,62	1,358
461,83	2,124
462,04	1,607
462,25	1,647
462,46	1,775
462,67	1,796
462,88	1,560
463,09	1,905
463,30	1,851
463,51	1,923
463,72	1,769
463,93	1,972
464,15	1,558
464,36	1,864
464,57	1,761
464,78	1,702
464,99	1,629
465,20	1,632
465,41	1,775
465,62	1,736
465,83	1,747
466,04	1,509
466,25	1,719
466,46	1,832
466,67	1,917
466,88	1,658
467,09	1,670
467,30	1,456
467,51	1,414
467,72	1,674
467,93	1,690
468,14	1,815
468,35	1,721
468,56	1,536
468,77	1,782
468,98	1,927
469,19	1,707
469,40	1,627
469,61	1,566
469,82	1,696
470,03	1,628
470,24	1,802
470,45	2,051
470,66	1,740
470,87	1,985
471,08	2,066
471,29	1,793
471,50	1,775
471,71	2,098
471,92	2,143
472,13	2,036
472,34	2,070
472,55	2,092
472,76	1,984
472,97	2,017
473,18	2,130
473,39	2,045
473,60	2,229
473,81	2,319
474,01	2,217
474,22	2,081
474,43	2,433
474,64	2,313
474,85	2,531
475,06	2,300
475,27	2,109
475,48	2,396
475,69	2,726
475,90	2,636
476,11	2,871
476,32	2,720
476,53	2,717
476,74	2,833
476,95	2,613
477,16	2,923
477,37	2,914
477,58	2,847
477,79	2,885
478,00	2,593
478,21	3,131
478,41	2,889
478,62	2,712
478,83	3,156
479,04	3,070
479,25	3,116
479,46	2,988
479,67	3,173
479,88	3,191
480,09	3,144
480,30	3,454
480,51	3,099
480,72	3,297
480,93	3,418
481,14	3,215
481,34	3,199
481,55	3,467
481,76	3,150
481,97	3,301
482,18	3,342
482,39	3,416
482,60	3,413
482,81	3,276
483,02	3,535
483,23	3,625
483,44	3,509
483,65	3,436
483,85	3,496
484,06	3,797
484,27	3,743
484,48	3,709
484,69	3,664
484,90	3,850
485,11	3,590
485,32	3,602
485,53	3,944
485,73	3,862
485,94	3,956
486,15	3,551
486,36	3,799
486,57	4,025
486,78	4,113
486,99	3,690
487,20	4,158
487,41	3,999
487,61	3,761
487,82	3,625
488,03	3,739
488,24	3,982
488,45	4,081
488,66	3,841
488,87	3,835
489,08	3,517
489,28	4,298
489,49	3,683
489,70	4,058
489,91	3,975
490,12	4,051
490,33	3,846
490,54	3,889
490,74	4,312
490,95	4,265
491,16	4,201
491,37	4,231
491,58	4,311
491,79	4,168
492,00	4,273
492,20	4,337
492,41	4,034
492,62	4,460
492,83	4,153
493,04	4,384
493,25	4,168
493,45	4,335
493,66	4,384
493,87	4,188
494,08	4,213
494,29	4,354
494,50	4,362
494,70	4,422
494,91	4,576
495,12	4,228
495,33	4,327
495,54	4,529
495,75	4,445
495,95	4,624
496,16	4,491
496,37	4,539
496,58	4,402
496,79	4,560
496,99	4,712
497,20	4,744
497,41	4,885
497,62	4,513
497,83	4,778
498,04	4,648
498,24	4,663
498,45	4,639
498,66	4,806
498,87	4,741
499,08	4,819
499,28	4,685
499,49	4,580
499,70	4,713
499,91	4,590
500,12	4,768
500,32	4,798
500,53	4,685
500,74	4,942
500,95	5,023
501,15	5,086
501,36	5,211
501,57	4,642
501,78	5,104
501,99	5,042
502,19	4,769
502,40	4,763
502,61	5,140
502,82	5,066
503,02	4,916
503,23	4,877
503,44	5,127
503,65	5,266
503,86	5,145
504,06	5,089
504,27	5,045
504,48	5,288
504,69	5,053
504,89	5,303
505,10	5,136
505,31	5,299
505,52	5,480
505,72	5,325
505,93	5,652
506,14	5,622
506,35	5,443
506,55	5,167
506,76	5,225
506,97	5,429
507,18	5,573
507,38	5,623
507,59	5,591
507,80	5,591
508,01	5,554
508,21	5,527
508,42	5,451
508,63	5,651
508,84	5,373
509,04	5,858
509,25	5,689
509,46	6,000
509,67	5,669
509,87	5,593
510,08	5,610
510,29	5,547
510,49	5,662
510,70	5,881
510,91	5,821
511,12	5,510
511,32	5,865
511,53	5,867
511,74	5,671
511,94	5,820
512,15	5,941
512,36	6,084
512,57	5,917
512,77	6,017
512,98	5,613
513,19	5,773
513,39	6,009
513,60	5,884
513,81	5,937
514,01	5,931
514,22	6,105
514,43	5,837
514,64	5,906
514,84	6,112
515,05	6,222
515,26	6,053
515,46	6,283
515,67	6,640
515,88	6,385
516,08	6,170
516,29	6,420
516,50	6,436
516,70	6,403
516,91	6,480
517,12	6,767
517,32	6,199
517,53	6,688
517,74	6,759
517,95	6,580
518,15	6,619
518,36	6,522
518,57	6,611
518,77	6,661
518,98	6,893
519,19	6,909
519,39	6,669
519,60	6,892
519,80	6,646
520,01	6,895
520,22	6,794
520,42	6,630
520,63	7,072
520,84	7,011
521,04	6,970
521,25	7,043
521,46	7,160
521,66	6,798
521,87	6,846
522,08	7,175
522,28	6,965
522,49	7,052
522,70	7,059
522,90	6,902
523,11	7,223
523,31	7,442
523,52	7,401
523,73	7,249
523,93	7,432
524,14	7,100
524,35	7,650
524,55	7,638
524,76	7,597
524,97	7,411
525,17	7,720
525,38	7,875
525,58	8,185
525,79	7,876
526,00	8,169
526,20	7,906
526,41	7,943
526,61	7,690
526,82	8,449
527,03	7,735
527,23	8,274
527,44	8,008
527,64	8,325
527,85	8,414
528,06	8,080
528,26	8,402
528,47	8,434
528,68	8,223
528,88	8,405
529,09	8,425
529,29	8,517
529,50	8,445
529,70	8,245
529,91	8,677
530,12	8,343
530,32	8,738
530,53	8,945
530,73	8,542
530,94	8,486
531,15	8,445
531,35	8,637
531,56	8,841
531,76	9,092
531,97	8,854
532,17	8,751
532,38	9,266
532,59	9,185
532,79	9,457
533,00	9,232
533,20	9,305
533,41	9,141
533,61	9,082
533,82	9,542
534,03	8,934
534,23	9,166
534,44	9,581
534,64	9,663
534,85	9,638
535,05	9,799
535,26	9,760
535,46	9,946
535,67	9,717
535,88	9,858
536,08	10,078
536,29	9,800
536,49	9,840
536,70	10,017
536,90	10,136
537,11	9,809
537,31	10,191
537,52	10,226
537,72	10,358
537,93	10,051
538,13	10,124
538,34	10,166
538,55	10,428
538,75	10,133
538,96	10,075
539,16	10,191
539,37	10,056
539,57	9,573
539,78	9,775
539,98	10,105
540,19	10,132
540,39	9,918
540,60	11,041
540,80	10,657
541,01	10,655
541,21	10,609
541,42	10,562
541,62	10,637
541,83	10,450
542,03	10,830
542,24	10,887
542,44	10,743
542,65	11,139
542,85	10,659
543,06	10,924
543,26	11,193
543,47	11,287
543,67	11,191
543,88	10,925
544,08	11,293
544,29	11,152
544,49	11,260
544,70	10,746
544,90	11,323
545,11	11,038
545,31	11,106
545,52	10,847
545,72	11,430
545,93	11,429
546,13	11,432
546,34	11,623
546,54	10,770
546,75	11,425
546,95	11,042
547,15	11,524
547,36	11,340
547,56	11,698
547,77	11,508
547,97	11,553
548,18	11,791
548,38	11,622
548,59	11,681
548,79	11,637
549,00	11,977
549,20	11,596
549,41	12,130
549,61	12,377
549,81	11,644
550,02	12,008
550,22	12,067
550,43	12,051
550,63	11,964
550,84	12,221
551,04	11,990
551,25	11,871
551,45	12,024
551,65	12,050
551,86	11,826
552,06	12,211
552,27	12,033
552,47	12,389
552,68	12,051
552,88	12,220
553,08	12,304
553,29	11,857
553,49	11,744
553,70	12,390
553,90	11,989
554,11	12,008
554,31	12,240
554,51	12,831
554,72	12,724
554,92	12,586
555,13	12,540
555,33	12,499
555,53	12,757
555,74	12,526
555,94	12,445
556,15	12,640
556,35	12,505
556,56	12,370
556,76	12,532
556,96	12,393
557,17	12,654
557,37	11,919
557,58	12,169
557,78	12,108
557,98	12,726
558,19	12,450
558,39	12,143
558,59	12,516
558,80	12,310
559,00	12,491
559,21	13,084
559,41	12,345
559,61	13,219
559,82	12,635
560,02	12,622
560,23	12,828
560,43	12,636
560,63	12,206
560,84	12,418
561,04	12,710
561,24	12,248
561,45	12,346
561,65	12,161
561,85	12,834
562,06	12,680
562,26	12,556
562,47	12,278
562,67	12,742
562,87	12,654
563,08	12,873
563,28	13,108
563,48	13,017
563,69	12,787
563,89	13,159
564,09	12,501
564,30	12,691
564,50	12,974
564,70	12,336
564,91	12,622
565,11	12,679
565,31	12,898
565,52	12,713
565,72	13,356
565,92	12,779
566,13	12,842
566,33	12,583
566,53	12,709
566,74	12,761
566,94	12,549
567,14	12,770
567,35	12,678
567,55	12,348
567,75	12,436
567,96	13,033
568,16	12,550
568,36	12,610
568,57	12,862
568,77	13,027
568,97	13,105
569,18	12,561
569,38	13,483
569,58	13,018
569,79	12,969
569,99	13,142
570,19	12,801
570,39	13,304
570,60	12,979
570,80	12,923
571,00	12,566
571,21	12,810
571,41	12,717
571,61	12,882
571,82	13,366
572,02	13,652
572,22	13,244
572,42	13,126
572,63	12,717
572,83	13,227
573,03	12,910
573,24	12,747
573,44	12,396
573,64	12,967
573,84	12,923
574,05	12,610
574,25	12,886
574,45	13,229
574,66	12,722
574,86	12,928
575,06	12,769
575,26	13,283
575,47	13,356
575,67	13,136
575,87	13,246
576,07	12,816
576,28	12,848
576,48	13,064
576,68	13,453
576,88	12,695
577,09	12,753
577,29	12,891
577,49	12,820
577,69	13,097
577,90	13,317
578,10	12,752
578,30	12,958
578,50	12,510
578,71	12,582
578,91	12,877
579,11	12,666
579,31	12,628
579,52	12,587
579,72	12,946
579,92	12,732
580,12	12,765
580,33	12,530
580,53	12,643
580,73	12,612
580,93	12,642
581,13	12,921
581,34	12,356
581,54	12,613
581,74	12,892
581,94	13,184
582,15	12,490
582,35	12,468
582,55	12,717
582,75	12,558
582,95	12,343
583,16	12,379
583,36	12,701
583,56	12,228
583,76	12,155
583,96	12,498
584,17	12,512
584,37	12,171
584,57	12,329
584,77	12,791
584,97	12,539
585,18	12,457
585,38	12,485
585,58	12,520
585,78	12,003
585,98	12,295
586,19	12,251
586,39	12,737
586,59	12,124
586,79	11,965
586,99	12,113
587,20	12,220
587,40	12,056
587,60	11,629
587,80	11,713
588,00	11,657
588,20	11,484
588,41	12,316
588,61	11,613
588,81	12,001
589,01	12,432
589,21	11,662
589,41	11,647
589,62	12,109
589,82	12,041
590,02	11,904
590,22	11,628
590,42	11,379
590,62	11,906
590,83	11,791
591,03	11,554
591,23	11,740
591,43	11,886
591,63	11,405
591,83	11,091
592,03	11,287
592,24	11,443
592,44	11,506
592,64	11,555
592,84	11,041
593,04	11,446
593,24	10,979
593,44	10,985
593,65	11,099
593,85	11,032
594,05	11,225
594,25	10,984
594,45	11,075
594,65	10,718
594,85	10,972
595,06	10,928
595,26	10,936
595,46	10,971
595,66	11,264
595,86	10,896
596,06	11,138
596,26	11,210
596,46	10,873
596,66	10,893
596,87	11,123
597,07	10,877
597,27	10,532
597,47	10,826
597,67	11,317
597,87	11,210
598,07	11,274
598,27	11,066
598,47	11,377
598,67	11,163
598,88	11,336
599,08	11,511
599,28	11,690
599,48	12,010
599,68	11,858
599,88	11,951
600,08	12,068
600,28	12,229
600,48	11,918
600,68	12,177
600,88	12,798
601,09	12,286
601,29	12,345
601,49	12,671
601,69	12,942
601,89	12,983
602,09	13,413
602,29	13,318
602,49	13,763
602,69	14,245
602,89	14,108
603,09	14,602
603,29	14,688
603,49	14,399
603,69	14,433
603,90	14,877
604,10	14,947
604,30	14,712
604,50	14,799
604,70	14,583
604,90	14,698
605,10	15,192
605,30	15,481
605,50	15,001
605,70	15,437
605,90	15,532
606,10	15,693
606,30	15,469
606,50	15,164
606,70	15,422
606,90	14,614
607,10	15,083
607,30	14,968
607,50	15,321
607,70	15,111
607,90	15,357
608,10	14,889
608,30	14,463
608,50	14,173
608,70	14,665
608,90	14,739
609,11	14,312
609,31	14,571
609,51	14,490
609,71	14,882
609,91	15,103
610,11	14,354
610,31	14,395
610,51	14,313
610,71	14,319
610,91	14,466
611,11	14,668
611,31	14,595
611,51	14,505
611,71	14,416
611,91	14,306
612,11	14,719
612,31	14,483
612,51	15,226
612,71	15,096
612,91	15,166
613,11	14,932
613,31	14,879
613,51	14,771
613,71	15,140
613,91	15,033
614,11	15,299
614,31	15,562
614,50	15,931
614,70	15,751
614,90	16,139
615,10	17,274
615,30	17,387
615,50	17,763
615,70	18,735
615,90	19,434
616,10	20,276
616,30	21,246
616,50	21,805
616,70	23,243
616,90	24,006
617,10	25,310
617,30	26,009
617,50	27,435
617,70	28,015
617,90	29,450
618,10	30,072
618,30	31,164
618,50	31,547
618,70	33,420
618,90	33,578
619,10	34,969
619,30	35,709
619,49	36,517
619,69	36,938
619,89	38,349
620,09	38,882
620,29	39,255
620,49	39,894
620,69	40,785
620,89	41,343
621,09	41,082
621,29	41,535
621,49	42,780
621,69	41,923
621,89	42,996
622,09	42,325
622,29	43,619
622,48	43,198
622,68	43,648
622,88	43,832
623,08	44,499
623,28	44,633
623,48	44,170
623,68	43,949
623,88	42,893
624,08	43,745
624,28	43,408
624,48	44,274
624,67	44,109
624,87	45,112
625,07	45,163
625,27	44,529
625,47	43,918
625,67	45,353
625,87	45,414
626,07	43,901
626,27	45,346
626,47	45,409
626,66	44,830
626,86	45,225
627,06	45,339
627,26	46,318
627,46	46,794
627,66	47,352
627,86	48,782
628,06	48,649
628,25	48,833
628,45	50,181
628,65	50,534
628,85	51,021
629,05	51,522
629,25	53,045
629,45	53,383
629,65	53,515
629,84	54,071
630,04	54,713
630,24	54,291
630,44	54,904
630,64	55,671
630,84	55,245
631,04	55,419
631,23	54,780
631,43	55,475
631,63	54,577
631,83	54,317
632,03	54,279
632,23	52,721
632,42	52,503
632,62	51,814
632,82	51,691
633,02	51,071
633,22	50,245
633,42	49,864
633,62	49,378
633,81	49,750
634,01	49,032
634,21	48,101
634,41	48,347
634,61	47,696
634,80	48,398
635,00	47,469
635,20	46,995
635,40	46,757
635,60	47,217
635,80	46,655
635,99	46,121
636,19	45,806
636,39	45,843
636,59	44,982
636,79	44,786
636,98	44,410
637,18	43,218
637,38	42,405
637,58	41,397
637,78	39,798
637,97	38,670
638,17	37,886
638,37	36,630
638,57	35,074
638,77	34,111
638,96	33,304
639,16	31,474
639,36	29,539
639,56	28,319
639,76	27,105
639,95	25,759
640,15	24,646
640,35	23,731
640,55	22,067
640,75	21,460
640,94	20,545
641,14	19,544
641,34	18,805
641,54	18,127
641,73	17,464
641,93	16,886
642,13	16,693
642,33	16,196
642,53	16,040
642,72	15,925
642,92	15,730
643,12	15,337
643,32	14,690
643,51	14,832
643,71	14,737
643,91	14,661
644,11	14,599
644,30	14,767
644,50	14,841
644,70	14,679
644,90	14,563
645,09	14,592
645,29	14,316
645,49	14,879
645,69	14,539
645,88	14,642
646,08	14,428
646,28	14,378
646,48	14,535
646,67	14,317
646,87	14,705
647,07	14,428
647,26	14,522
647,46	14,386
647,66	14,351
647,86	14,291
648,05	14,574
648,25	14,418
648,45	14,555
648,65	14,461
648,84	14,406
649,04	14,731
649,24	14,323
649,43	14,506
649,63	14,505
649,83	14,441
650,03	14,331
650,22	14,429
650,42	14,365
650,62	14,230
650,81	14,021
651,01	13,910
651,21	13,861
651,40	14,023
651,60	14,189
651,80	14,113
652,00	14,389
652,19	13,851
652,39	14,178
652,59	14,545
652,78	14,147
652,98	14,363
653,18	14,160
653,37	14,017
653,57	14,074
653,77	14,469
653,96	13,954
654,16	14,211
654,36	13,787
654,55	13,972
654,75	13,829
654,95	14,099
655,14	13,870
655,34	13,931
655,54	13,845
655,73	13,952
655,93	13,863
656,13	13,385
656,32	13,832
656,52	13,846
656,72	14,047
656,91	13,614
657,11	13,455
657,31	14,091
657,50	13,964
657,70	13,091
657,90	13,912
658,09	13,789
658,29	13,755
658,49	13,173
658,68	13,302
658,88	13,213
659,07	13,146
659,27	13,448
659,47	13,484
659,66	12,879
659,86	13,716
660,06	13,596
660,25	13,757
660,45	13,736
660,64	13,928
660,84	13,525
661,04	13,674
661,23	13,496
661,43	13,269
661,63	13,343
661,82	13,505
662,02	13,579
662,21	13,158
662,41	13,067
662,61	13,388
662,80	13,668
663,00	13,579
663,19	13,381
663,39	13,287
663,59	13,578
663,78	13,559
663,98	13,668
664,17	13,453
664,37	13,459
664,57	13,533
664,76	13,809
664,96	13,317
665,15	13,560
665,35	13,360
665,55	13,168
665,74	13,896
665,94	13,337
666,13	13,840
666,33	13,443
666,53	14,172
666,72	14,058
666,92	13,624
667,11	13,861
667,31	14,305
667,50	13,987
667,70	13,576
667,90	12,820
668,09	13,841
668,29	13,401
668,48	13,892
668,68	13,145
668,87	13,170
669,07	13,207
669,26	13,124
669,46	12,759
669,66	13,031
669,85	12,966
670,05	13,688
670,24	13,069
670,44	13,154
670,63	13,420
670,83	13,584
671,02	12,846
671,22	13,611
671,42	13,574
671,61	13,732
671,81	13,379
672,00	13,665
672,20	13,293
672,39	13,914
672,59	13,565
672,78	13,703
672,98	13,171
673,17	13,357
673,37	13,501
673,56	13,438
673,76	13,251
673,95	12,923
674,15	13,515
674,34	13,063
674,54	13,346
674,73	13,158
674,93	13,318
675,13	13,303
675,32	12,991
675,52	12,981
675,71	13,260
675,91	13,177
676,10	13,439
676,30	13,755
676,49	13,553
676,69	13,539
676,88	13,260
677,08	13,129
677,27	13,248
677,47	13,568
677,66	13,604
677,86	13,241
678,05	13,852
678,24	13,575
678,44	13,105
678,63	13,920
678,83	13,576
679,02	13,383
679,22	13,424
679,41	13,820
679,61	13,558
679,80	13,483
680,00	13,656
680,19	13,630
680,39	13,450
680,58	13,502
680,78	13,487
680,97	13,979
681,17	13,502
681,36	13,581
681,56	13,677
681,75	13,765
681,94	13,557
682,14	13,460
682,33	13,231
682,53	13,240
682,72	13,435
682,92	13,351
683,11	13,771
683,31	13,258
683,50	13,363
683,69	13,479
683,89	13,493
684,08	13,290
684,28	13,667
684,47	13,812
684,67	13,145
684,86	13,536
685,06	13,359
685,25	13,330
685,44	13,369
685,64	13,419
685,83	13,210
686,03	13,246
686,22	13,442
686,42	13,454
686,61	13,099
686,80	13,437
687,00	13,452
687,19	13,240
687,39	13,142
687,58	13,705
687,77	13,244
687,97	13,852
688,16	13,824
688,36	13,669
688,55	13,339
688,74	13,412
688,94	13,434
689,13	13,624
689,33	13,532
689,52	13,413
689,71	13,377
689,91	13,392
690,10	13,362
690,30	12,883
690,49	13,547
690,68	13,557
690,88	13,821
691,07	13,507
691,27	13,498
691,46	13,333
691,65	13,053
691,85	13,613
692,04	13,347
692,23	13,447
692,43	13,267
692,62	13,602
692,82	13,817
693,01	13,510
693,20	13,123
693,40	13,439
693,59	13,439
693,78	13,604
693,98	13,675
694,17	13,385
694,36	13,393
694,56	13,189
694,75	13,509
694,94	13,622
695,14	13,258
695,33	13,640
695,53	13,421
695,72	13,667
695,91	13,428
696,11	13,613
696,30	13,194
696,49	13,493
696,69	13,110
696,88	12,908
697,07	13,086
697,27	13,071
697,46	13,786
697,65	14,002
697,85	13,428
698,04	13,924
698,23	13,723
698,43	13,417
698,62	13,131
698,81	13,793
699,01	13,342
699,20	13,434
699,39	13,093
699,58	13,169
699,78	13,098
699,97	13,218
700,16	12,861
700,36	13,102
700,55	13,325
700,74	13,039
700,94	13,530
701,13	13,418
701,32	13,169
701,52	13,233
701,71	13,455
701,90	13,762
702,09	13,206
702,29	13,144
702,48	13,549
702,67	13,703
702,87	13,054
703,06	13,645
703,25	13,426
703,44	13,478
703,64	13,529
703,83	13,266
704,02	13,561
704,22	13,263
704,41	13,272
704,60	13,688
704,79	13,683
704,99	13,323
705,18	13,543
705,37	13,606
705,56	12,746
705,76	13,562
705,95	12,995
706,14	13,284
706,33	13,600
706,53	13,213
706,72	13,309
706,91	12,938
707,11	12,878
707,30	13,305
707,49	13,142
707,68	13,101
707,88	13,121
708,07	12,995
708,26	13,082
708,45	13,220
708,64	13,168
708,84	12,860
709,03	13,459
709,22	13,705
709,41	13,659
709,61	13,523
709,80	13,737
709,99	13,646
710,18	13,830
710,38	13,447
710,57	13,298
710,76	13,163
710,95	13,619
711,14	13,321
711,34	13,199
711,53	13,358
711,72	13,106
711,91	13,172
712,11	13,559
712,30	13,214
712,49	13,060
712,68	12,942
712,87	12,605
713,07	13,001
713,26	12,942
713,45	12,905
713,64	13,459
713,83	13,084
714,03	13,107
714,22	13,042
714,41	13,335
714,60	12,977
714,79	13,248
714,99	13,574
715,18	12,891
715,37	13,271
715,56	13,297
715,75	12,925
715,94	13,586
716,14	12,921
716,33	13,172
716,52	13,320
716,71	12,777
716,90	12,789
717,10	13,025
717,29	13,288
717,48	13,421
717,67	13,763
717,86	13,089
718,05	13,450
718,24	13,378
718,44	13,594
718,63	13,017
718,82	13,676
719,01	13,323
719,20	13,039
719,39	12,785
719,59	13,052
719,78	12,906
719,97	13,267
720,16	13,370
720,35	13,416
720,54	13,431
720,73	13,208
720,93	13,320
721,12	13,619
721,31	13,689
721,50	13,414
721,69	13,299
721,88	13,213
722,07	13,353
722,27	13,763
722,46	13,063
722,65	13,391
722,84	13,731
723,03	12,880
723,22	13,077
723,41	13,274
723,60	12,966
723,79	13,457
723,99	13,310
724,18	13,420
724,37	13,376
724,56	13,351
724,75	13,627
724,94	13,925
725,13	13,560
725,32	13,107
725,51	13,379
725,71	13,801
725,90	13,234
726,09	13,416
726,28	13,589
726,47	13,147
726,66	13,248
726,85	13,870
727,04	13,125
727,23	13,495
727,42	12,825
727,61	12,967
727,81	13,708
728,00	13,318
728,19	12,959
728,38	13,343
728,57	13,242
728,76	13,444
728,95	13,791
729,14	13,605
729,33	13,936
729,52	13,607
729,71	13,188
729,90	13,352
730,09	13,673
730,28	13,531
730,48	14,062
730,67	13,611
730,86	13,356
731,05	13,854
731,24	13,933
731,43	13,549
731,62	13,992
731,81	13,936
732,00	13,766
732,19	14,119
732,38	13,911
732,57	14,077
732,76	14,117
732,95	13,904
733,14	13,915
733,33	13,799
733,52	14,182
733,71	13,996
733,90	13,947
734,09	13,953
734,28	14,562
734,47	14,052
734,66	13,984
734,85	14,457
735,04	14,427
735,23	14,438
735,42	14,924
735,61	14,554
735,81	14,991
736,00	14,613
736,19	14,679
736,38	14,849
736,57	14,842
736,76	15,189
736,95	14,873
737,14	15,406
737,33	15,342
737,52	15,466
737,71	15,628
737,90	16,382
738,09	16,446
738,28	16,128
738,47	16,099
738,66	16,354
738,85	16,432
739,04	16,567
739,22	16,666
739,41	16,166
739,60	16,823
739,79	17,020
739,98	17,073
740,17	16,779
740,36	17,462
740,55	17,562
740,74	17,289
740,93	17,226
741,12	17,784
741,31	17,819
741,50	18,400
741,69	18,277
741,88	18,380
742,07	19,150
742,26	19,556
742,45	19,693
742,64	20,059
742,83	20,384
743,02	21,091
743,21	21,789
743,40	22,087
743,59	22,831
743,78	23,650
743,97	24,409
744,16	25,350
744,34	25,403
744,53	26,984
744,72	28,029
744,91	28,938
745,10	30,052
745,29	32,352
745,48	33,295
745,67	33,985
745,86	36,076
746,05	37,695
746,24	38,772
746,43	40,410
746,62	41,622
746,81	44,851
747,00	45,292
747,18	47,110
747,37	47,680
747,56	49,565
747,75	51,665
747,94	52,735
748,13	54,544
748,32	55,801
748,51	57,872
748,70	58,232
748,89	59,841
749,08	60,603
749,26	62,530
749,45	64,112
749,64	64,285
749,83	65,159
750,02	66,173
750,21	67,773
750,40	67,605
750,59	68,493
750,78	68,640
750,96	67,929
751,15	67,505
751,34	67,809
751,53	68,076
751,72	68,746
751,91	69,236
752,10	69,720
752,29	69,460
752,47	68,999
752,66	68,083
752,85	67,872
753,04	67,877
753,23	66,104
753,42	66,297
753,61	66,224
753,80	66,538
753,98	63,850
754,17	63,177
754,36	62,007
754,55	60,913
754,74	60,921
754,93	61,254
755,12	58,789
755,30	58,989
755,49	57,771
755,68	57,021
755,87	55,729
756,06	54,305
756,25	53,801
756,43	54,400
756,62	52,199
756,81	53,261
757,00	52,392
757,19	50,870
757,38	51,226
757,56	49,608
757,75	49,889
757,94	49,307
758,13	48,906
758,32	48,815
758,51	47,934
758,69	46,767
758,88	47,324
759,07	47,068
759,26	45,823
759,45	46,353
759,63	46,008
759,82	45,495
760,01	45,240
760,20	44,272
760,39	43,968
760,57	43,235
760,76	42,944
760,95	42,682
761,14	43,387
761,33	42,177
761,51	42,372
761,70	41,855
761,89	41,358
762,08	41,639
762,27	40,840
762,45	39,944
762,64	40,000
762,83	39,286
763,02	38,774
763,21	38,200
763,39	36,894
763,58	36,010
763,77	34,966
763,96	33,987
764,14	33,111
764,33	32,621
764,52	31,707
764,71	31,014
764,89	29,833
765,08	29,054
765,27	28,062
765,46	27,047
765,65	26,194
765,83	26,096
766,02	24,954
766,21	23,728
766,40	23,163
766,58	22,614
766,77	21,770
766,96	20,311
767,15	20,431
767,33	19,539
767,52	18,975
767,71	17,782
767,90	17,729
768,08	17,253
768,27	17,376
768,46	16,125
768,64	15,867
768,83	15,749
769,02	16,012
769,21	15,565
769,39	15,224
769,58	14,862
769,77	14,938
769,96	14,845
770,14	14,800
770,33	14,786
770,52	14,372
770,70	14,749
770,89	13,756
771,08	14,313
771,27	14,696
771,45	14,357
771,64	13,876
771,83	14,013
772,01	14,070
772,20	14,150
772,39	13,775
772,57	14,081
772,76	14,261
772,95	14,023
773,14	13,857
773,32	14,074
773,51	14,183
773,70	13,793
773,88	13,919
774,07	14,435
774,26	14,673
774,44	14,505
774,63	14,548
774,82	14,855
775,00	14,009
775,19	14,049
775,38	14,481
775,56	14,216
775,75	13,760
775,94	14,272
776,12	13,897
776,31	14,121
776,50	14,015
776,68	13,668
776,87	13,772
777,06	14,010
777,24	13,923
777,43	14,396
777,62	13,786
777,80	13,896
777,99	13,717
778,18	13,087
778,36	13,474
778,55	13,094
778,74	14,053
778,92	13,150
779,11	13,591
779,29	13,550
779,48	13,817
779,67	14,083
779,85	13,958
780,04	13,772
780,23	13,536
780,41	13,292
780,60	13,299
780,79	13,565
780,97	13,535
781,16	13,560
781,34	13,656
781,53	13,557
781,72	13,363
781,90	13,535
782,09	13,845
782,28	13,553
782,46	13,161
782,65	13,364
782,83	13,291
783,02	13,271
783,21	13,423
783,39	13,672
783,58	13,811
783,76	13,310
783,95	13,088
784,14	13,572
784,32	13,253
784,51	12,647
784,69	12,357
784,88	12,638
785,06	13,117
785,25	12,604
785,44	12,869
785,62	12,885
785,81	13,478
785,99	13,792
786,18	13,254
786,37	13,767
786,55	13,456
786,74	13,268
786,92	13,435
787,11	12,597
787,29	12,921
787,48	13,353
787,67	12,934
787,85	12,671
788,04	12,947
788,22	12,676
788,41	13,121
788,59	12,886
788,78	13,127
788,96	13,171
789,15	13,075
789,34	12,767
789,52	13,223
789,71	12,903
789,89	13,392
790,08	13,386
790,26	13,537
790,45	13,323
790,63	13,088
790,82	13,426
791,00	13,499
791,19	13,545
791,38	13,318
791,56	13,787
791,75	12,991
791,93	14,014
792,12	13,365
792,30	13,337
792,49	13,598
792,67	13,239
792,86	13,470
793,04	13,189
793,23	13,757
793,41	13,029
793,60	13,505
793,78	13,139
793,97	13,908
794,15	13,607
794,34	13,210
794,52	13,859
794,71	13,321
794,89	13,462
795,08	13,957
795,26	13,499
795,45	13,873
795,63	13,716
795,82	13,060
796,00	13,103
796,19	14,010
796,37	12,803
796,56	12,612
796,74	13,311
796,93	12,971
797,11	13,173
797,30	13,017
797,48	13,395
797,67	12,920
797,85	13,131
798,04	12,929
798,22	13,764
798,41	12,816
798,59	13,566
798,77	13,227
798,96	13,324
799,14	13,362
799,33	12,808
799,51	12,459
799,70	13,102
799,88	13,093
800,07	13,020
800,25	13,432
800,44	12,547
800,62	12,671
800,80	13,054
800,99	12,852
801,17	12,476
801,36	12,729
801,54	12,788
801,73	13,166
801,91	12,783
802,10	13,178
802,28	13,511
802,46	13,381
802,65	13,380
802,83	12,867
803,02	13,509
803,20	13,095
803,39	13,553
803,57	12,627
803,75	12,909
803,94	13,251
804,12	13,293
804,31	13,462
804,49	13,299
804,67	12,771
804,86	13,113
805,04	12,931
805,23	13,015
805,41	13,503
805,59	12,680
805,78	13,134
805,96	13,021
806,15	13,166
806,33	13,080
806,51	12,968
806,70	12,504
806,88	12,804
807,07	13,069
807,25	13,354
807,43	12,831
807,62	12,431
807,80	12,801
807,99	12,845
808,17	12,343
808,35	13,288
808,54	12,561
808,72	13,035
808,90	13,339
809,09	13,254
809,27	12,958
809,46	13,451
809,64	12,907
809,82	12,956
810,01	13,082
810,19	12,504
810,37	12,938
810,56	12,815
810,74	12,307
810,92	13,098
811,11	12,968
811,29	13,543
811,48	13,090
811,66	13,957
811,84	13,375
812,03	12,569
812,21	12,892
812,39	13,869
812,58	12,941
812,76	13,424
812,94	13,038
813,13	12,445
813,31	13,488
813,49	13,284
813,68	12,960
813,86	12,970
814,04	12,591
814,23	12,864
814,41	12,694
814,59	12,552
814,78	12,283
814,96	12,754
815,14	12,262
815,33	12,296
815,51	13,310
815,69	12,355
815,87	13,044
816,06	12,753
816,24	13,711
816,42	13,491
816,61	13,307
816,79	13,403
816,97	13,332
817,16	13,374
817,34	12,956
817,52	13,603
817,70	12,995
817,89	12,983
818,07	12,480
818,25	12,883
818,44	12,353
818,62	12,812
818,80	12,815
818,98	12,848
819,17	13,292
819,35	12,660
819,53	13,657
819,72	12,844
819,90	13,424
820,08	13,171
820,26	13,354
820,45	13,457
820,63	13,518
820,81	12,967
820,99	13,196
821,18	13,124
821,36	13,510
821,54	13,891
821,73	13,242
821,91	13,315
822,09	13,349
822,27	13,983
822,46	13,317
822,64	14,230
822,82	13,636
823,00	13,503
823,19	13,301
823,37	13,758
823,55	13,485
823,73	13,846
823,91	13,628
824,10	13,354
824,28	13,470
824,46	13,917
824,64	13,806
824,83	14,372
825,01	13,952
825,19	13,627
825,37	14,306
825,56	14,223
825,74	13,954
825,92	14,215
826,10	14,646
826,28	15,271
826,47	14,554
826,65	15,566
826,83	15,669
827,01	15,668
827,19	15,577
827,38	16,380
827,56	15,574
827,74	15,671
827,92	15,356
828,10	15,972
828,29	15,223
828,47	15,334
828,65	16,384
828,83	15,826
829,01	15,640
829,20	15,807
829,38	16,173
829,56	15,686
829,74	15,294
829,92	15,266
830,10	15,987
830,29	15,382
830,47	15,705
830,65	15,628
830,83	16,245
831,01	16,812
831,20	16,254
831,38	16,238
831,56	17,359
831,74	17,056
831,92	17,077
832,10	17,345
832,29	18,687
832,47	16,969
832,65	17,487
832,83	18,360
833,01	18,019
833,19	18,193
833,37	16,949
833,56	17,417
833,74	17,794
833,92	17,336
834,10	18,015
834,28	17,527
834,46	17,969
834,64	18,027
834,83	18,389
835,01	17,674
835,19	17,723
835,37	18,239
835,55	18,373
835,73	19,022
835,91	18,203
836,09	18,657
836,28	19,261
836,46	19,024
836,64	19,447
836,82	19,621
837,00	20,370
837,18	20,748
837,36	21,294
837,54	22,491
837,72	23,237
837,91	22,693
838,09	23,728
838,27	24,344
838,45	25,706
838,63	25,844
838,81	25,811
838,99	28,714
839,17	29,514
839,35	29,396
839,53	30,813
839,72	31,482
839,90	31,998
840,08	34,135
840,26	34,496
840,44	35,166
840,62	35,320
840,80	37,574
840,98	38,372
841,16	38,830
841,34	40,819
841,52	40,528
841,70	42,535
841,89	42,702
842,07	46,084
842,25	46,156
842,43	46,710
842,61	48,504
842,79	49,257
842,97	49,498
843,15	51,568
843,33	51,720
843,51	52,189
843,69	54,153
843,87	56,057
844,05	56,613
844,23	57,628
844,41	57,842
844,59	59,353
844,77	60,194
844,95	60,763
845,13	61,112
845,31	60,727
845,50	60,936
845,68	61,542
845,86	60,730
846,04	61,183
846,22	61,203
846,40	61,814
846,58	62,453
846,76	62,256
846,94	62,641
847,12	61,257
847,30	61,437
847,48	61,668
847,66	62,021
847,84	61,627
848,02	60,132
848,20	61,161
848,38	59,163
848,56	58,705
848,74	59,068
848,92	56,858
849,10	56,307
849,28	56,637
849,46	54,482
849,64	54,258
849,82	53,903
850,00	53,253
850,18	51,318
850,36	52,487
850,54	50,594
850,72	50,070
850,90	49,034
851,08	49,299
851,26	48,634
851,44	48,276
851,62	47,503
851,80	46,459
851,98	47,600
852,16	47,704
852,34	45,403
852,52	44,197
852,70	44,532
852,87	43,924
853,05	44,265
853,23	43,029
853,41	42,422
853,59	42,372
853,77	42,357
853,95	42,690
854,13	42,244
854,31	41,061
854,49	40,618
854,67	39,932
854,85	39,376
855,03	39,858
855,21	38,829
855,39	37,742
855,57	38,209
855,75	36,989
855,93	35,261
856,11	33,843
856,28	33,274
856,46	33,144
856,64	31,271
856,82	30,878
857,00	29,785
857,18	28,591
857,36	28,336
857,54	27,454
857,72	25,970
857,90	25,147
858,08	24,623
858,26	24,164
858,44	22,722
858,61	22,234
858,79	22,069
858,97	20,694
859,15	20,051
859,33	20,668
859,51	19,628
859,69	18,026
859,87	18,265
860,05	17,655
860,23	17,244
860,40	17,312
860,58	16,605
860,76	16,368
860,94	16,441
861,12	15,776
861,30	14,758
861,48	15,411
861,66	14,026
861,84	15,021
862,01	14,727
862,19	14,090
862,37	13,967
862,55	13,697
862,73	13,898
862,91	13,612
863,09	12,911
863,27	13,402
863,44	13,293
863,62	12,852
863,80	12,783
863,98	13,090
864,16	12,427
864,34	12,859
864,52	12,732
864,69	13,047
864,87	12,445
865,05	12,689
865,23	12,117
865,41	13,053
865,59	12,824
865,76	11,745
865,94	13,089
866,12	12,948
866,30	12,052
866,48	12,875
866,66	12,583
866,83	13,005
867,01	12,509
867,19	13,277
867,37	12,421
867,55	12,213
867,73	12,172
867,90	11,956
868,08	12,248
868,26	12,611
868,44	11,868
868,62	12,622
868,79	12,428
868,97	11,985
869,15	11,950
869,33	12,246
869,51	12,504
869,69	12,375
869,86	12,442
870,04	11,542
870,22	12,305
870,40	12,313
870,57	12,579
870,75	11,158
870,93	12,443
871,11	12,325
871,29	12,362
871,46	12,473
871,64	12,417
871,82	12,431
872,00	12,478
872,18	12,570
872,35	12,335
872,53	12,363
872,71	12,621
872,89	12,422
873,06	12,723
873,24	11,121
873,42	11,940
873,60	11,372
873,77	12,578
873,95	12,205
874,13	12,225
874,31	12,216
874,49	11,988
874,66	12,209
874,84	12,480
875,02	12,787
875,20	11,636
875,37	12,695
875,55	12,352
875,73	12,074
875,91	12,115
876,08	11,778
876,26	12,195
876,44	11,939
876,61	12,044
876,79	12,089
876,97	11,910
877,15	11,528
877,32	11,321
877,50	11,302
877,68	11,917
877,86	11,691
878,03	12,978
878,21	11,815
878,39	12,176
878,56	12,262
878,74	11,737
878,92	10,777
879,10	12,076
879,27	12,559
879,45	12,148
879,63	12,145
879,80	11,773
879,98	11,716
880,16	12,499
880,34	11,980
880,51	11,712
880,69	11,752
880,87	12,092
881,04	12,423
881,22	12,269
881,40	11,659
881,57	11,179
881,75	12,612
881,93	11,930
882,10	11,448
882,28	12,112
882,46	12,024
882,63	11,672
882,81	11,650
882,99	11,942
883,16	10,965
883,34	11,847
883,52	11,333
883,69	11,243
883,87	11,333
884,05	10,943
884,22	10,927
884,40	11,413
884,58	11,443
884,75	11,328
884,93	11,272
885,11	11,516
885,28	10,665
885,46	10,471
885,64	11,203
885,81	11,120
885,99	11,461
886,17	11,466
886,34	10,986
886,52	10,608
886,70	11,172
886,87	11,333
887,05	11,078
887,22	11,383
887,40	11,256
887,58	10,262
887,75	10,816
887,93	11,608
888,11	10,904
888,28	10,662
888,46	10,566
888,63	10,414
888,81	11,067
888,99	10,596
889,16	10,136
889,34	10,902
889,51	10,488
889,69	11,006
889,87	11,030
890,04	10,510
890,22	10,685
890,39	10,943
890,57	11,226
890,75	11,226
890,92	10,827
891,10	10,744
891,27	10,123
891,45	10,509
891,63	11,149
891,80	11,035
891,98	10,339
892,15	11,300
892,33	10,563
892,51	10,412
892,68	10,111
892,86	10,933
893,03	10,661
893,21	11,104
893,38	10,713
893,56	10,519
893,74	10,723
893,91	11,031
894,09	11,083
894,26	10,367
894,44	10,060
894,61	9,464
894,79	10,852
894,96	10,859
895,14	10,377
895,32	10,883
895,49	10,268
895,67	9,760
895,84	9,749
896,02	10,024
896,19	9,416
896,37	10,258
896,54	10,173
896,72	10,418
896,89	10,739
897,07	10,028
897,25	9,217
897,42	9,446
897,60	10,213
897,77	10,404
897,95	9,978
898,12	9,863
898,30	10,021
898,47	9,150
898,65	9,443
898,82	8,986
899,00	9,500
899,17	9,363
899,35	9,800
899,52	10,453
899,70	10,024
899,87	10,206
900,05	9,272
900,22	9,773
900,40	9,947
900,57	9,303
900,75	9,614
900,92	9,196
901,10	8,747
901,27	9,474
901,45	9,361
901,62	9,238
901,80	9,333
901,97	9,211
902,15	10,196
902,32	10,191
902,50	9,919
902,67	9,566
902,85	9,201
903,02	9,223
903,20	9,745
903,37	9,267
903,54	9,019
903,72	9,924
903,89	9,741
904,07	9,978
904,24	9,338
904,42	9,239
904,59	9,167
904,77	9,378
904,94	9,849
905,12	9,309
905,29	9,574
905,47	9,681
905,64	9,661
905,81	9,229
905,99	9,751
906,16	9,671
906,34	9,049
906,51	9,810
906,69	9,530
906,86	9,014
907,03	8,806
907,21	9,284
907,38	9,709
907,56	9,017
907,73	9,244
907,91	9,283
908,08	8,873
908,25	9,260
908,43	9,108
908,60	9,379
908,78	8,873
908,95	8,780
909,13	9,150
909,30	8,071
909,47	9,079
909,65	8,465
909,82	8,663
910,00	9,221
910,17	8,499
910,34	8,687
910,52	9,196
910,69	9,103
910,87	8,760
911,04	8,975
911,21	8,997
911,39	8,435
911,56	8,903
911,73	8,724
911,91	8,515
912,08	9,069
912,26	8,656
912,43	9,082
912,60	9,279
912,78	8,864
912,95	8,691
913,13	8,219
913,30	8,519
913,47	8,620
913,65	8,407
913,82	8,912
913,99	7,992
914,17	9,098
914,34	7,998
914,51	8,985
914,69	8,800
914,86	9,212
915,03	8,754
915,21	8,176
915,38	9,164
915,56	8,658
915,73	7,608
915,90	8,252
916,08	8,790
916,25	7,737
916,42	8,921
916,60	8,500
916,77	7,350
916,94	7,870
917,12	7,751
917,29	7,726
917,46	8,676
917,64	8,167
917,81	8,481
917,98	7,723
918,16	7,683
918,33	8,525
918,50	8,037
918,67	7,744
918,85	7,514
919,02	8,150
919,19	8,822
919,37	7,989
919,54	8,132
919,71	7,292
919,89	7,491
920,06	7,723
920,23	7,957
920,41	8,577
920,58	7,818
920,75	7,745
920,92	7,501
921,10	7,528
921,27	7,183
921,44	8,012
921,62	8,009
921,79	7,561
921,96	8,424
922,13	8,555
922,31	7,634
922,48	8,016
922,65	7,849
922,82	7,534
923,00	7,539
923,17	7,474
923,34	8,233
923,52	7,721
923,69	7,314
923,86	7,347
924,03	6,917
924,21	7,597
924,38	6,674
924,55	8,017
924,72	7,068
924,90	6,854
925,07	7,550
925,24	6,333
925,41	7,629
925,59	6,439
925,76	6,763
925,93	6,447
926,10	6,511
926,28	7,057
926,45	6,885
926,62	7,019
926,79	6,812
926,96	6,608
927,14	7,438
927,31	6,866
927,48	7,143
927,65	7,130
927,83	6,858
928,00	6,837
928,17	6,725
928,34	6,206
928,51	6,531
928,69	6,482
928,86	6,637
929,03	7,052
929,20	6,633
929,37	7,145
929,55	6,583
929,72	6,438
929,89	6,073
930,06	5,920
930,23	6,460
930,41	6,182
930,58	6,746
930,75	7,346
930,92	6,615
931,09	7,279
931,27	6,269
931,44	7,234
931,61	6,334
931,78	6,504
931,95	6,659
932,12	6,890
932,30	6,653
932,47	6,271
932,64	6,416
932,81	6,202
932,98	7,023
933,16	6,384
933,33	6,638
933,50	6,805
933,67	6,589
933,84	5,462
934,01	6,184
934,18	5,517
934,36	5,657
934,53	6,667
934,70	6,242
934,87	6,515
935,04	6,529
935,21	5,782
935,38	6,995
935,56	6,331
935,73	6,238
935,90	6,572
936,07	6,987
936,24	6,451
936,41	6,436
936,58	6,131
936,76	6,654
936,93	5,651
937,10	5,992
937,27	5,847
937,44	6,116
937,61	6,690
937,78	6,478
937,95	6,424
938,13	6,100
938,30	5,330
938,47	6,002
938,64	6,240
938,81	6,161
938,98	5,616
939,15	6,510
939,32	6,300
939,49	5,583
939,66	5,889
939,84	6,945
940,01	6,044
940,18	5,511
940,35	5,512
940,52	5,691
940,69	5,879
940,86	5,940
941,03	6,312
941,20	6,023
941,37	5,864
941,54	5,510
941,71	6,131
941,89	6,353
942,06	6,490
942,23	5,552
942,40	5,874
942,57	6,440
942,74	6,301
942,91	6,776
943,08	5,613
943,25	5,813
943,42	5,418
943,59	6,034
943,76	6,198
943,93	6,681
944,10	5,559
944,27	5,609
944,44	6,345
944,61	6,500
944,79	5,872
944,96	6,265
945,13	5,316
945,30	5,781
945,47	5,938
945,64	5,894
945,81	5,677
945,98	6,097
946,15	6,422
946,32	6,503
946,49	5,862
946,66	6,195
946,83	6,484
947,00	6,323
947,17	6,832
947,34	5,559
947,51	6,217
947,68	6,557
947,85	5,541
948,02	6,060
948,19	5,260
948,36	6,671
948,53	5,332
948,70	6,216
948,87	6,198
949,04	5,725
949,21	5,425
949,38	5,833
949,55	6,188
949,72	6,518
949,89	6,351
950,06	5,136
950,23	5,508
950,40	6,817
950,57	5,596
950,74	5,981
950,91	5,425
951,08	5,538
951,25	6,980
951,42	6,492
951,59	6,316
951,76	6,179
951,93	6,226
952,10	7,377
952,27	6,097
952,44	6,708
952,61	6,526
952,77	7,289
952,94	7,597
953,11	7,345
953,28	6,264
953,45	6,303
953,62	7,042
953,79	7,273
953,96	7,197
954,13	7,065
954,30	7,301
954,47	6,552
954,64	6,320
954,81	7,144
954,98	7,817
955,15	7,097
955,32	6,518
955,49	7,083
955,65	7,318
955,82	7,406
955,99	6,500
956,16	7,977
956,33	7,486
956,50	6,356
956,67	8,635
956,84	7,338
957,01	6,796
957,18	6,896
957,35	7,446
957,52	7,495
957,68	7,187
957,85	8,070
958,02	7,978
958,19	7,249
958,36	8,225
958,53	8,036
958,70	7,953
958,87	7,852
959,04	8,615
959,21	8,625
959,37	8,964
959,54	8,376
959,71	8,434
959,88	9,364
960,05	8,260
960,22	8,852
960,39	8,193
960,56	7,955
960,72	9,732
960,89	9,811
961,06	8,521
961,23	9,885
961,40	10,047
961,57	7,971
961,74	8,621
961,90	9,803
962,07	9,642
962,24	9,103
962,41	7,632
962,58	8,214
962,75	8,340
962,92	7,528
963,08	9,532
963,25	9,226
963,42	9,997
963,59	9,168
963,76	8,967
963,93	9,504
964,10	9,742
964,26	9,280
964,43	7,457
964,60	8,269
964,77	9,771
964,94	10,202
965,10	9,935
965,27	9,495
965,44	9,859
965,61	10,981
965,78	10,462
965,95	10,083
966,11	10,030
966,28	10,386
966,45	10,141
966,62	11,519
966,79	9,514
966,95	9,942
967,12	8,855
967,29	7,537
967,46	12,332
967,63	11,516
967,79	10,947
967,96	10,065
968,13	8,778
968,30	8,860
968,47	9,164
968,63	9,811
968,80	9,786
968,97	10,126
969,14	8,420
969,31	10,614
969,47	8,539
969,64	9,057
969,81	8,728
969,98	9,177
970,14	9,315
970,31	11,191
970,48	10,926
970,65	9,448
970,81	10,408
970,98	9,977
971,15	10,661
971,32	9,717
971,48	10,286
971,65	11,612
971,82	9,459
971,99	11,155
972,15	11,280
972,32	11,077
972,49	10,745
972,66	11,084
972,82	12,022
972,99	10,171
973,16	9,832
973,33	11,886
973,49	9,996
973,66	9,680
973,83	10,988
974,00	11,637
974,16	12,363
974,33	11,710
974,50	9,278
974,67	10,383
974,83	11,206
975,00	10,311
975,17	9,988
975,33	10,449
975,50	10,632
975,67	8,268
975,84	11,063
976,00	10,554
976,17	10,238
976,34	7,479
976,50	10,882
976,67	11,088
976,84	9,784
977,00	10,758
977,17	10,936
977,34	8,436
977,50	10,430
977,67	10,716
977,84	9,648
978,01	13,468
978,17	10,218
978,34	11,150
978,51	11,285
978,67	11,926
978,84	10,774
979,01	10,579
979,17	10,408
979,34	12,132
979,51	10,365
979,67	9,945
979,84	11,712
980,01	12,070
980,17	8,840
980,34	11,629
980,51	10,446
980,67	15,200
980,84	10,994
981,01	12,044
981,17	10,807
981,34	12,666
981,50	9,445
981,67	11,555
981,84	10,578
982,00	6,970
982,17	10,572
982,34	12,029
982,50	10,413
982,67	9,785
982,84	9,782
983,00	8,702
983,17	9,082
983,33	10,547
983,50	10,587
983,67	11,612
983,83	10,997
984,00	9,431
984,17	11,028
984,33	11,294
984,50	9,884
984,66	10,947
984,83	8,663
985,00	10,894
985,16	11,990
985,33	10,515
985,49	11,717
985,66	12,632
985,83	8,055
985,99	9,242
986,16	9,629
986,32	9,959
986,49	12,004
986,66	11,117
986,82	10,233
986,99	9,660
987,15	11,901
987,32	9,290
987,49	8,721
987,65	10,892
987,82	9,031
987,98	9,856
988,15	10,567
988,31	10,349
988,48	11,218
988,65	10,129
988,81	11,869
988,98	11,117
989,14	11,013
989,31	10,819
989,47	11,437
989,64	11,079
989,80	7,228
989,97	13,043
990,14	8,701
990,30	9,178
990,47	13,669
990,63	11,809
990,80	10,926
990,96	14,453
991,13	11,407
991,29	12,164
991,46	13,261
991,62	11,403
991,79	9,183
991,95	9,742
992,12	11,296
992,29	11,611
992,45	8,161
992,62	8,568
992,78	8,054
992,95	11,731
993,11	13,112
993,28	11,844
993,44	7,747
993,61	11,263
993,77	7,572
993,94	10,812
994,10	10,855
994,27	9,989
994,43	9,592
994,60	11,091
994,76	11,296
994,93	7,847
995,09	14,493
995,26	9,681
995,42	10,932
995,59	12,421
995,75	13,636
995,92	9,062
996,08	15,592
996,25	13,686
996,41	10,245
996,58	13,060
996,74	10,393
996,91	11,269
997,07	10,729
997,23	9,323
997,40	13,997
997,56	9,504
997,73	10,020
997,89	9,819
998,06	14,714
998,22	11,174
998,39	11,862
998,55	9,680
998,72	12,964
998,88	13,716
999,05	11,853
999,21	10,587
999,37	14,464
999,54	11,214
999,70	14,433
999,87	10,291
1000,03	10,957
1000,20	11,319
1000,36	10,673
1000,52	13,967
1000,69	13,269
1000,85	9,315
1001,02	13,094
1001,18	10,443
1001,35	7,269
1001,51	13,378
1001,67	8,599
1001,84	10,748
1002,00	10,475
1002,17	13,040
1002,33	8,423
1002,50	12,350
1002,66	11,337
1002,82	10,473
1002,99	9,929
1003,15	13,440
1003,32	11,697
1003,48	11,178
1003,64	11,548
1003,81	13,360
1003,97	11,250
1004,14	13,437
1004,30	10,000
1004,46	10,008
1004,63	13,675
1004,79	13,215
1004,95	8,256
1005,12	11,029
1005,28	13,997
1005,45	14,544
1005,61	15,132
1005,77	12,124
1005,94	13,852
1006,10	10,195
1006,26	11,186
1006,43	13,762
1006,59	5,594
1006,76	9,484
1006,92	13,761
1007,08	9,193
1007,25	13,778
1007,41	12,323
1007,57	11,162
1007,74	12,990
1007,90	11,824
1008,06	9,865
1008,23	11,780
1008,39	10,906
1008,55	9,470
1008,72	9,793
1008,88	5,935
1009,04	9,949
1009,21	12,365
1009,37	9,728
1009,53	12,433
1009,70	4,325
1009,86	10,875
1010,02	11,725
1010,19	7,281
1010,35	10,545
1010,51	12,455
1010,68	13,370
1010,84	10,912
1011,00	11,552
1011,17	10,889
1011,33	10,650
1011,49	14,324
1011,66	10,808
1011,82	8,998
1011,98	6,396
1012,14	10,878
1012,31	10,477
1012,47	11,426
1012,63	10,969
1012,80	13,183
1012,96	11,225
1013,12	10,068
1013,29	14,680
1013,45	7,625
1013,61	11,451
1013,77	10,547
1013,94	12,676
1014,10	10,736
1014,26	5,591
1014,43	10,149
1014,59	10,103
1014,75	12,115
1014,91	12,268
1015,08	10,171
1015,24	11,382
1015,40	7,563
1015,56	13,161
1015,73	12,626
1015,89	9,302
1016,05	11,747
1016,21	10,782
1016,38	9,887
1016,54	13,215
1016,70	12,617
1016,86	8,013
1017,03	5,326
1017,19	8,227
1017,35	15,164
1017,51	10,294
1017,68	7,931
1017,84	7,495
1018,00	8,801
1018,16	8,617
1018,33	13,362
1018,49	7,491
1018,65	8,753
1018,81	14,009
1018,97	16,818
1019,14	14,238
1019,30	11,772
1019,46	12,415
1019,62	11,469
1019,79	10,764
1019,95	9,891
1020,11	15,877
1020,27	11,030
1020,43	10,744
1020,60	4,398
1020,76	15,325
1020,92	8,527
1021,08	11,600
1021,24	9,379
1021,41	8,467
1021,57	8,564
1021,73	5,148
1021,89	8,030
1022,05	16,265
1022,21	10,971
1022,38	12,000
1022,54	7,407
1022,70	17,827
1022,86	7,259
1023,02	14,101
1023,19	9,151
1023,35	4,223
1023,51	17,034
1023,67	14,829
1023,83	10,153
1023,99	17,481
1024,16	8,229
1024,32	5,556
1024,48	12,253
1024,64	5,256
1024,80	8,690
1024,96	2,503
1025,12	11,139
1025,29	11,315
1025,45	13,377
1025,61	11,391
1025,77	4,348
1025,93	11,694
1026,09	11,902
1026,26	6,871
1026,42	13,115
1026,58	7,265
1026,74	12,853
1026,90	11,141
1027,06	13,557
1027,22	12,553
1027,38	11,254
1027,55	7,764
1027,71	7,030
1027,87	11,297
1028,03	16,571
1028,19	4,399
1028,35	6,406
1028,51	10,058
1028,67	11,747
1028,83	13,804
1029,00	13,475
1029,16	6,468
1029,32	2,687
1029,48	7,249
1029,64	8,108
1029,80	12,458
1029,96	6,149
1030,12	10,188
1030,28	6,555
1030,44	15,264
1030,61	7,911
1030,77	9,253
1030,93	12,066
1031,09	10,896
1031,25	9,748
1031,41	12,461
1031,57	6,462
1031,73	10,407
1031,89	1,987
1032,05	15,311
1032,21	5,667
1032,37	5,515
1032,53	9,425
1032,69	11,929
1032,86	10,572
1033,02	3,710
1033,18	9,589
1033,34	10,158
1033,50	11,018
1033,66	5,978
1033,82	14,017
1033,98	11,892
1034,14	3,678
1034,30	3,095
1034,46	9,839
1034,62	9,905
1034,78	12,715
1034,94	12,016
1035,10	11,993
1035,26	14,132
1035,42	8,502
1035,58	14,474
1035,74	12,200
1035,90	5,243
1036,06	3,299
1036,22	16,250
1036,38	10,597
1036,54	5,368
1036,70	-2,204
1036,86	14,176
1037,02	-0,381
1037,18	12,642
1037,34	6,318
1037,50	6,818
1037,66	14,004
1037,82	5,945
1037,98	10,057
1038,14	15,352
1038,30	14,538
1038,46	7,457
1038,62	0,210
1038,78	5,714
1038,94	8,245
1039,10	9,533
1039,26	4,408
1039,42	21,844
1039,58	6,652
1039,74	0,000
1039,90	16,532
1040,06	6,383
>>>>>End Processed Spectral Data<<<<<
