SpectraSuite Data File
++++++++++++++++++++++++++++++++++++
Date: Thu Feb 02 18:53:40 EET 2017
User: optolab
Dark Spectrum Present: Yes
Reference Spectrum Present: Yes
Number of Sampled Component Spectra: 1
Spectrometers: USB4C02475
Integration Time (usec): 151411 (USB4C02475)
Spectra Averaged: 1 (USB4C02475)
Boxcar Smoothing: 0 (USB4C02475)
Correct for Electrical Dark: No (USB4C02475)
Strobe/Lamp Enabled: No (USB4C02475)
Correct for Detector Non-linearity: No (USB4C02475)
Correct for Stray Light: No (USB4C02475)
Number of Pixels in Processed Spectrum: 3648
>>>>>Begin Processed Spectral Data<<<<<
344,91	218,519
345,13	218,519
345,35	218,519
345,57	70,000
345,79	-192,308
346,00	208,000
346,22	-29,730
346,44	69,231
346,66	266,667
346,87	10,000
347,09	-250,000
347,31	2200,000
347,53	71,795
347,74	62,500
347,96	222,222
348,18	95,122
348,40	-20,000
348,61	35,294
348,83	172,222
349,05	-65,455
349,27	123,529
349,48	66,667
349,70	30,909
349,92	-14,634
350,14	100,000
350,35	111,538
350,57	77,941
350,79	6,383
351,01	103,226
351,22	528,571
351,44	51,111
351,66	68,293
351,87	-13,636
352,09	1,923
352,31	8,696
352,53	61,290
352,74	-59,375
352,96	27,551
353,18	245,455
353,40	78,571
353,61	85,000
353,83	8,000
354,05	168,966
354,26	-38,636
354,48	13,636
354,70	76,250
354,92	19,048
355,13	81,633
355,35	550,000
355,57	101,299
355,78	150,000
356,00	6,977
356,22	62,687
356,44	0,000
356,65	69,231
356,87	20,988
357,09	15,942
357,30	18,919
357,52	-20,000
357,74	87,692
357,95	27,778
358,17	-38,889
358,39	1225,000
358,60	50,526
358,82	13,889
359,04	27,778
359,26	24,444
359,47	63,793
359,69	775,000
359,91	-28,125
360,12	-23,810
360,34	147,368
360,56	40,000
360,77	127,778
360,99	-220,000
361,21	71,795
361,42	-52,500
361,64	60,606
361,86	39,560
362,07	60,396
362,29	-192,857
362,51	77,778
362,72	82,500
362,94	75,000
363,16	44,928
363,37	25,000
363,59	48,352
363,81	61,017
364,02	39,394
364,24	20,000
364,46	10,000
364,67	72,222
364,89	13,514
365,11	-233,333
365,32	15,789
365,54	160,870
365,76	68,750
365,97	81,429
366,19	73,684
366,41	12,308
366,62	94,286
366,84	36,667
367,05	30,556
367,27	54,545
367,49	45,455
367,70	66,304
367,92	75,949
368,14	55,914
368,35	30,864
368,57	70,000
368,79	47,297
369,00	75,714
369,22	41,667
369,43	39,796
369,65	25,000
369,87	13,580
370,08	123,188
370,30	23,529
370,51	48,092
370,73	-7,937
370,95	32,990
371,16	31,818
371,38	-17,808
371,60	-15,116
371,81	73,684
372,03	90,909
372,24	-28,947
372,46	28,333
372,68	96,203
372,89	40,351
373,11	1,852
373,32	36,508
373,54	-10,938
373,76	15,966
373,97	27,642
374,19	51,111
374,40	15,652
374,62	43,182
374,84	-12,621
375,05	17,895
375,27	17,857
375,48	33,766
375,70	27,027
375,92	23,913
376,13	52,381
376,35	26,829
376,56	26,923
376,78	10,000
376,99	-3,896
377,21	26,190
377,43	58,333
377,64	69,492
377,86	49,462
378,07	51,579
378,29	16,364
378,51	26,563
378,72	47,222
378,94	23,077
379,15	4,225
379,37	57,664
379,58	19,658
379,80	41,989
380,01	-15,000
380,23	9,701
380,45	31,000
380,66	66,667
380,88	26,471
381,09	-27,273
381,31	34,706
381,52	25,000
381,74	21,384
381,95	-53,947
382,17	21,348
382,39	44,578
382,60	0,000
382,82	15,603
383,03	20,000
383,25	22,695
383,46	-16,522
383,68	18,354
383,89	64,286
384,11	11,310
384,32	49,286
384,54	31,429
384,76	29,480
384,97	31,250
385,19	15,200
385,40	16,071
385,62	2,660
385,83	10,323
386,05	26,573
386,26	34,921
386,48	44,805
386,69	16,000
386,91	13,514
387,12	28,191
387,34	15,470
387,55	-1,961
387,77	22,460
387,98	20,370
388,20	35,714
388,41	32,932
388,63	25,714
388,84	25,503
389,06	16,940
389,27	41,475
389,49	27,670
389,70	25,000
389,92	27,094
390,13	25,000
390,35	20,982
390,56	24,180
390,78	18,410
390,99	15,026
391,21	23,039
391,42	31,984
391,64	44,025
391,85	30,769
392,07	21,978
392,28	43,254
392,50	24,231
392,71	32,663
392,93	-1,660
393,14	5,464
393,36	36,937
393,57	25,322
393,79	2,283
394,00	-14,706
394,22	15,578
394,43	14,097
394,65	38,589
394,86	23,194
395,08	16,763
395,29	11,556
395,50	24,561
395,72	7,234
395,93	16,529
396,15	41,455
396,36	21,287
396,58	26,906
396,79	10,616
397,01	25,316
397,22	14,981
397,44	13,924
397,65	25,088
397,87	34,749
398,08	32,686
398,29	28,620
398,51	29,204
398,72	23,529
398,94	19,310
399,15	17,188
399,37	17,466
399,58	16,471
399,80	37,931
400,01	31,915
400,22	9,365
400,44	1,255
400,65	12,000
400,87	24,837
401,08	20,202
401,30	14,676
401,51	18,539
401,72	8,088
401,94	10,490
402,15	11,765
402,37	19,780
402,58	13,378
402,80	11,989
403,01	18,684
403,22	32,670
403,44	34,014
403,65	6,993
403,87	12,308
404,08	24,013
404,30	13,202
404,51	21,972
404,72	17,737
404,94	14,324
405,15	22,449
405,37	18,283
405,58	32,843
405,79	34,840
406,01	19,499
406,22	19,036
406,44	11,286
406,65	31,719
406,86	33,023
407,08	28,969
407,29	18,436
407,51	23,158
407,72	17,507
407,93	25,066
408,15	21,957
408,36	25,366
408,58	26,498
408,79	22,078
409,00	18,415
409,22	5,208
409,43	16,250
409,64	17,295
409,86	24,362
410,07	23,362
410,29	22,222
410,50	26,122
410,71	17,175
410,93	10,682
411,14	22,777
411,35	12,881
411,57	13,014
411,78	18,404
412,00	21,598
412,21	13,869
412,42	18,140
412,64	8,137
412,85	8,764
413,06	15,348
413,28	15,866
413,49	13,800
413,70	22,222
413,92	14,182
414,13	16,497
414,34	13,939
414,56	10,577
414,77	27,466
414,98	18,505
415,20	11,089
415,41	19,349
415,63	12,766
415,84	22,022
416,05	23,168
416,27	20,438
416,48	13,260
416,69	16,405
416,91	11,485
417,12	15,048
417,33	11,798
417,55	11,449
417,76	11,599
417,97	14,211
418,19	11,049
418,40	20,660
418,61	19,318
418,83	15,356
419,04	15,817
419,25	18,571
419,46	19,109
419,68	18,710
419,89	15,371
420,10	23,375
420,32	15,301
420,53	12,215
420,74	14,933
420,96	19,940
421,17	19,810
421,38	20,845
421,60	18,339
421,81	14,848
422,02	18,003
422,23	20,059
422,45	14,216
422,66	12,945
422,87	16,125
423,09	16,928
423,30	14,642
423,51	15,528
423,73	14,224
423,94	20,661
424,15	17,135
424,36	10,629
424,58	18,847
424,79	14,947
425,00	12,859
425,22	21,266
425,43	12,869
425,64	13,623
425,85	24,079
426,07	13,488
426,28	12,817
426,49	15,274
426,71	12,777
426,92	14,373
427,13	13,054
427,34	14,937
427,56	16,166
427,77	17,285
427,98	11,308
428,19	18,384
428,41	17,308
428,62	16,513
428,83	16,949
429,04	17,940
429,26	14,428
429,47	17,711
429,68	11,558
429,89	14,056
430,11	18,886
430,32	12,051
430,53	12,833
430,74	9,314
430,96	15,297
431,17	12,736
431,38	12,801
431,59	11,619
431,81	13,256
432,02	13,315
432,23	15,074
432,44	11,624
432,66	10,430
432,87	14,199
433,08	12,164
433,29	14,007
433,51	14,583
433,72	9,113
433,93	11,930
434,14	13,394
434,35	11,314
434,57	12,443
434,78	9,774
434,99	10,188
435,20	15,025
435,42	9,273
435,63	13,536
435,84	10,040
436,05	9,904
436,26	12,366
436,48	12,525
436,69	11,531
436,90	9,192
437,11	12,366
437,32	8,850
437,54	10,298
437,75	9,745
437,96	10,127
438,17	11,841
438,38	12,749
438,60	9,176
438,81	10,130
439,02	11,221
439,23	12,058
439,44	8,215
439,66	9,436
439,87	7,830
440,08	9,236
440,29	8,591
440,50	8,314
440,72	9,041
440,93	7,696
441,14	7,008
441,35	7,625
441,56	8,727
441,77	6,804
441,99	7,701
442,20	7,034
442,41	8,492
442,62	8,955
442,83	9,647
443,04	7,148
443,26	7,316
443,47	8,155
443,68	6,865
443,89	8,469
444,10	5,897
444,31	7,103
444,53	5,506
444,74	5,374
444,95	6,783
445,16	4,850
445,37	7,128
445,58	5,828
445,80	5,719
446,01	6,142
446,22	5,262
446,43	5,937
446,64	6,041
446,85	5,558
447,06	4,717
447,28	5,475
447,49	5,180
447,70	4,756
447,91	4,941
448,12	5,026
448,33	5,847
448,54	4,874
448,76	4,370
448,97	6,317
449,18	4,544
449,39	4,901
449,60	4,167
449,81	4,882
450,02	5,340
450,23	4,898
450,45	3,049
450,66	4,266
450,87	4,846
451,08	4,489
451,29	4,777
451,50	4,097
451,71	4,063
451,92	3,341
452,13	4,385
452,35	3,870
452,56	3,674
452,77	3,558
452,98	3,613
453,19	4,428
453,40	3,410
453,61	3,576
453,82	3,563
454,03	3,292
454,25	3,303
454,46	3,084
454,67	3,092
454,88	3,337
455,09	3,208
455,30	3,314
455,51	2,884
455,72	2,704
455,93	3,308
456,14	3,813
456,35	2,850
456,56	2,419
456,78	3,057
456,99	2,649
457,20	2,761
457,41	2,338
457,62	2,785
457,83	2,749
458,04	2,371
458,25	2,751
458,46	2,451
458,67	2,465
458,88	2,217
459,09	2,071
459,30	2,030
459,51	1,817
459,73	2,134
459,94	2,192
460,15	2,121
460,36	2,387
460,57	1,814
460,78	2,068
460,99	1,682
461,20	1,619
461,41	1,809
461,62	1,962
461,83	2,277
462,04	2,036
462,25	1,779
462,46	1,944
462,67	2,042
462,88	2,222
463,09	1,860
463,30	2,018
463,51	1,909
463,72	1,669
463,93	2,066
464,15	1,887
464,36	1,986
464,57	1,712
464,78	1,975
464,99	1,746
465,20	1,856
465,41	1,880
465,62	1,849
465,83	1,946
466,04	1,653
466,25	1,949
466,46	1,907
466,67	1,808
466,88	1,886
467,09	1,840
467,30	1,777
467,51	1,666
467,72	1,788
467,93	1,984
468,14	1,872
468,35	1,785
468,56	1,957
468,77	2,031
468,98	1,975
469,19	1,959
469,40	1,794
469,61	2,139
469,82	1,935
470,03	1,876
470,24	2,058
470,45	2,106
470,66	1,996
470,87	2,230
471,08	2,090
471,29	1,991
471,50	2,092
471,71	2,343
471,92	2,103
472,13	2,223
472,34	2,257
472,55	2,233
472,76	2,088
472,97	2,309
473,18	2,371
473,39	2,351
473,60	2,413
473,81	2,380
474,01	2,437
474,22	2,346
474,43	2,637
474,64	2,620
474,85	2,747
475,06	2,831
475,27	2,562
475,48	3,009
475,69	2,910
475,90	2,855
476,11	2,821
476,32	2,950
476,53	3,147
476,74	3,261
476,95	2,987
477,16	3,056
477,37	3,116
477,58	3,409
477,79	3,120
478,00	3,192
478,21	3,113
478,41	3,417
478,62	3,031
478,83	3,183
479,04	3,416
479,25	3,322
479,46	3,362
479,67	3,725
479,88	3,390
480,09	3,606
480,30	3,612
480,51	3,728
480,72	3,847
480,93	3,592
481,14	3,560
481,34	3,765
481,55	3,714
481,76	3,409
481,97	3,721
482,18	3,908
482,39	3,686
482,60	3,921
482,81	3,831
483,02	3,795
483,23	4,127
483,44	3,915
483,65	4,179
483,85	3,990
484,06	3,969
484,27	3,927
484,48	4,143
484,69	4,064
484,90	4,142
485,11	3,696
485,32	4,042
485,53	4,011
485,73	4,100
485,94	4,227
486,15	3,721
486,36	4,268
486,57	4,389
486,78	4,551
486,99	4,081
487,20	4,364
487,41	4,439
487,61	3,962
487,82	4,346
488,03	4,242
488,24	4,223
488,45	4,171
488,66	4,140
488,87	4,549
489,08	4,132
489,28	4,354
489,49	4,221
489,70	4,744
489,91	4,213
490,12	4,701
490,33	4,346
490,54	4,193
490,74	4,618
490,95	4,661
491,16	4,472
491,37	4,722
491,58	4,818
491,79	4,455
492,00	4,457
492,20	4,802
492,41	4,588
492,62	4,701
492,83	4,859
493,04	4,792
493,25	4,864
493,45	4,907
493,66	5,115
493,87	4,815
494,08	4,880
494,29	4,968
494,50	5,007
494,70	4,884
494,91	4,681
495,12	4,845
495,33	5,002
495,54	5,129
495,75	4,921
495,95	5,071
496,16	4,936
496,37	5,069
496,58	4,934
496,79	4,907
496,99	5,004
497,20	4,973
497,41	5,118
497,62	4,967
497,83	5,015
498,04	4,709
498,24	5,086
498,45	5,097
498,66	5,400
498,87	5,153
499,08	5,318
499,28	5,268
499,49	5,263
499,70	5,376
499,91	5,135
500,12	5,303
500,32	5,292
500,53	5,254
500,74	5,479
500,95	5,542
501,15	5,400
501,36	5,563
501,57	5,260
501,78	5,224
501,99	5,430
502,19	5,279
502,40	5,606
502,61	5,802
502,82	5,534
503,02	5,543
503,23	5,591
503,44	5,583
503,65	5,838
503,86	5,918
504,06	5,393
504,27	5,817
504,48	5,782
504,69	6,039
504,89	5,641
505,10	5,984
505,31	5,914
505,52	6,091
505,72	6,134
505,93	6,141
506,14	5,985
506,35	5,813
506,55	5,717
506,76	6,024
506,97	6,038
507,18	6,224
507,38	6,180
507,59	6,026
507,80	6,094
508,01	6,182
508,21	6,291
508,42	6,280
508,63	6,575
508,84	6,023
509,04	6,352
509,25	6,285
509,46	6,286
509,67	6,504
509,87	6,331
510,08	6,381
510,29	6,120
510,49	6,183
510,70	6,462
510,91	6,846
511,12	6,364
511,32	6,638
511,53	6,396
511,74	6,658
511,94	6,646
512,15	6,514
512,36	6,665
512,57	6,574
512,77	6,470
512,98	6,556
513,19	6,316
513,39	6,595
513,60	6,364
513,81	6,445
514,01	6,461
514,22	6,704
514,43	6,729
514,64	6,391
514,84	7,089
515,05	6,907
515,26	6,403
515,46	6,808
515,67	6,875
515,88	7,312
516,08	6,834
516,29	7,201
516,50	7,188
516,70	7,127
516,91	7,091
517,12	7,005
517,32	7,054
517,53	7,218
517,74	7,348
517,95	7,153
518,15	7,301
518,36	7,116
518,57	7,512
518,77	7,265
518,98	7,243
519,19	7,611
519,39	7,314
519,60	7,583
519,80	7,347
520,01	7,457
520,22	7,524
520,42	7,785
520,63	7,499
520,84	7,520
521,04	8,020
521,25	7,774
521,46	7,356
521,66	7,736
521,87	7,765
522,08	8,191
522,28	8,203
522,49	8,346
522,70	8,093
522,90	8,071
523,11	8,340
523,31	8,168
523,52	8,461
523,73	8,022
523,93	8,544
524,14	8,092
524,35	8,354
524,55	8,811
524,76	8,503
524,97	8,374
525,17	8,444
525,38	8,318
525,58	8,630
525,79	8,640
526,00	9,114
526,20	8,957
526,41	8,809
526,61	9,035
526,82	9,075
527,03	9,096
527,23	8,952
527,44	8,972
527,64	9,313
527,85	9,224
528,06	9,108
528,26	9,034
528,47	9,228
528,68	9,110
528,88	9,202
529,09	9,086
529,29	9,274
529,50	9,545
529,70	9,422
529,91	9,334
530,12	9,490
530,32	9,774
530,53	9,699
530,73	9,663
530,94	9,637
531,15	9,786
531,35	9,784
531,56	10,101
531,76	10,193
531,97	9,779
532,17	9,879
532,38	10,334
532,59	9,985
532,79	10,294
533,00	10,382
533,20	10,385
533,41	9,877
533,61	10,280
533,82	10,502
534,03	10,319
534,23	10,094
534,44	10,588
534,64	10,507
534,85	10,733
535,05	10,794
535,26	10,483
535,46	10,966
535,67	10,607
535,88	11,008
536,08	11,481
536,29	10,796
536,49	11,624
536,70	11,135
536,90	11,335
537,11	11,294
537,31	10,930
537,52	11,421
537,72	11,083
537,93	10,803
538,13	11,414
538,34	11,379
538,55	11,380
538,75	11,227
538,96	11,770
539,16	11,032
539,37	11,837
539,57	11,230
539,78	11,248
539,98	11,368
540,19	11,275
540,39	11,598
540,60	11,709
540,80	11,734
541,01	12,089
541,21	11,130
541,42	11,904
541,62	11,262
541,83	11,910
542,03	11,711
542,24	11,815
542,44	12,270
542,65	12,326
542,85	11,623
543,06	12,037
543,26	12,105
543,47	12,698
543,67	12,404
543,88	12,202
544,08	12,375
544,29	12,226
544,49	12,290
544,70	12,260
544,90	12,768
545,11	12,381
545,31	12,652
545,52	12,777
545,72	12,667
545,93	12,356
546,13	12,502
546,34	12,736
546,54	13,148
546,75	12,718
546,95	12,801
547,15	12,758
547,36	12,483
547,56	12,541
547,77	12,704
547,97	12,799
548,18	12,705
548,38	13,109
548,59	12,963
548,79	12,586
549,00	13,069
549,20	13,294
549,41	13,464
549,61	13,106
549,81	13,401
550,02	13,049
550,22	13,420
550,43	13,350
550,63	13,703
550,84	13,679
551,04	13,630
551,25	13,280
551,45	12,972
551,65	13,320
551,86	12,879
552,06	13,491
552,27	13,472
552,47	13,910
552,68	14,124
552,88	13,293
553,08	13,704
553,29	13,580
553,49	13,323
553,70	13,345
553,90	13,215
554,11	13,217
554,31	14,418
554,51	13,499
554,72	14,182
554,92	13,653
555,13	13,794
555,33	14,236
555,53	14,192
555,74	14,078
555,94	13,782
556,15	14,138
556,35	14,275
556,56	13,884
556,76	13,829
556,96	14,120
557,17	13,691
557,37	13,898
557,58	13,995
557,78	14,008
557,98	13,753
558,19	13,731
558,39	13,993
558,59	13,988
558,80	13,879
559,00	14,235
559,21	14,746
559,41	14,197
559,61	14,394
559,82	13,888
560,02	14,101
560,23	14,185
560,43	13,891
560,63	14,086
560,84	14,300
561,04	13,943
561,24	13,801
561,45	14,038
561,65	13,920
561,85	14,038
562,06	14,221
562,26	14,291
562,47	14,232
562,67	14,509
562,87	14,555
563,08	14,325
563,28	14,379
563,48	14,199
563,69	14,109
563,89	14,628
564,09	14,292
564,30	14,505
564,50	13,910
564,70	13,634
564,91	14,466
565,11	14,232
565,31	13,962
565,52	14,484
565,72	14,456
565,92	13,989
566,13	14,478
566,33	13,967
566,53	14,457
566,74	14,555
566,94	14,211
567,14	14,582
567,35	14,144
567,55	14,182
567,75	14,383
567,96	14,404
568,16	14,044
568,36	14,371
568,57	14,460
568,77	14,342
568,97	14,177
569,18	14,416
569,38	14,586
569,58	14,596
569,79	14,673
569,99	14,696
570,19	14,740
570,39	14,848
570,60	14,648
570,80	14,568
571,00	14,452
571,21	13,879
571,41	14,221
571,61	14,600
571,82	14,975
572,02	14,828
572,22	15,061
572,42	14,674
572,63	14,458
572,83	14,511
573,03	14,132
573,24	13,931
573,44	14,049
573,64	14,583
573,84	14,439
574,05	14,157
574,25	14,660
574,45	14,301
574,66	14,259
574,86	14,657
575,06	14,538
575,26	14,525
575,47	14,542
575,67	15,045
575,87	14,783
576,07	14,469
576,28	14,321
576,48	14,425
576,68	14,475
576,88	14,182
577,09	13,589
577,29	14,180
577,49	14,562
577,69	14,744
577,90	14,994
578,10	14,452
578,30	13,823
578,50	14,067
578,71	14,265
578,91	14,263
579,11	14,249
579,31	14,556
579,52	14,018
579,72	14,219
579,92	14,031
580,12	14,629
580,33	13,422
580,53	14,352
580,73	14,053
580,93	14,126
581,13	14,417
581,34	13,810
581,54	13,984
581,74	14,263
581,94	14,032
582,15	14,338
582,35	14,286
582,55	13,993
582,75	13,894
582,95	13,993
583,16	14,014
583,36	14,017
583,56	13,823
583,76	13,721
583,96	13,923
584,17	14,631
584,37	13,883
584,57	13,736
584,77	14,390
584,97	13,964
585,18	13,817
585,38	13,596
585,58	14,007
585,78	13,877
585,98	13,486
586,19	13,804
586,39	14,681
586,59	13,604
586,79	13,443
586,99	14,152
587,20	13,955
587,40	13,384
587,60	13,747
587,80	13,522
588,00	13,298
588,20	13,087
588,41	13,742
588,61	13,363
588,81	13,363
589,01	13,754
589,21	13,747
589,41	13,885
589,62	13,959
589,82	13,637
590,02	13,697
590,22	13,902
590,42	14,156
590,62	14,625
590,83	14,736
591,03	14,609
591,23	14,433
591,43	14,888
591,63	15,277
591,83	15,159
592,03	15,881
592,24	16,622
592,44	16,468
592,64	17,131
592,84	16,931
593,04	17,715
593,24	17,923
593,44	17,593
593,65	18,726
593,85	18,195
594,05	18,632
594,25	18,876
594,45	18,700
594,65	18,736
594,85	18,900
595,06	19,151
595,26	18,964
595,46	18,912
595,66	19,376
595,86	19,305
596,06	19,033
596,26	18,862
596,46	18,897
596,66	18,664
596,87	18,999
597,07	19,210
597,27	18,560
597,47	18,974
597,67	18,687
597,87	18,535
598,07	18,949
598,27	18,920
598,47	18,257
598,67	18,247
598,88	18,248
599,08	18,669
599,28	18,834
599,48	17,894
599,68	18,631
599,88	18,529
600,08	18,174
600,28	18,499
600,48	17,600
600,68	17,911
600,88	18,000
601,09	17,921
601,29	17,782
601,49	17,862
601,69	17,597
601,89	17,782
602,09	17,458
602,29	17,795
602,49	17,248
602,69	17,870
602,89	17,554
603,09	17,940
603,29	17,881
603,49	17,250
603,69	17,266
603,90	17,410
604,10	17,437
604,30	17,764
604,50	17,203
604,70	17,402
604,90	18,275
605,10	18,731
605,30	19,368
605,50	19,992
605,70	20,144
605,90	21,499
606,10	22,207
606,30	22,249
606,50	23,505
606,70	24,261
606,90	24,450
607,10	25,820
607,30	27,123
607,50	27,666
607,70	28,105
607,90	29,656
608,10	30,439
608,30	30,010
608,50	31,010
608,70	31,954
608,90	32,581
609,11	33,281
609,31	34,576
609,51	34,870
609,71	35,531
609,91	35,946
610,11	35,789
610,31	36,328
610,51	36,399
610,71	36,885
610,91	37,254
611,11	37,786
611,31	38,391
611,51	38,634
611,71	39,227
611,91	38,907
612,11	39,225
612,31	38,820
612,51	40,110
612,71	39,445
612,91	39,673
613,11	39,054
613,31	39,568
613,51	39,709
613,71	39,474
613,91	39,410
614,11	39,242
614,31	39,572
614,50	40,641
614,70	40,286
614,90	41,014
615,10	40,684
615,30	40,513
615,50	40,509
615,70	40,218
615,90	40,925
616,10	40,348
616,30	40,005
616,50	40,408
616,70	40,284
616,90	40,190
617,10	39,564
617,30	39,612
617,50	39,266
617,70	38,417
617,90	38,451
618,10	38,031
618,30	37,584
618,50	36,421
618,70	35,671
618,90	35,313
619,10	34,629
619,30	33,591
619,49	33,034
619,69	32,557
619,89	31,657
620,09	30,876
620,29	31,519
620,49	30,217
620,69	29,649
620,89	29,350
621,09	28,433
621,29	28,395
621,49	28,492
621,69	28,232
621,89	28,578
622,09	28,569
622,29	29,181
622,48	30,361
622,68	30,560
622,88	32,240
623,08	31,780
623,28	32,907
623,48	33,660
623,68	34,383
623,88	34,915
624,08	36,114
624,28	37,066
624,48	37,632
624,67	38,339
624,87	39,130
625,07	39,334
625,27	40,343
625,47	40,298
625,67	40,364
625,87	41,573
626,07	41,081
626,27	41,246
626,47	41,636
626,66	41,474
626,86	41,162
627,06	41,740
627,26	41,422
627,46	41,575
627,66	41,694
627,86	42,273
628,06	42,040
628,25	41,532
628,45	41,613
628,65	41,534
628,85	41,089
629,05	40,603
629,25	40,755
629,45	40,616
629,65	41,513
629,84	39,889
630,04	39,995
630,24	39,110
630,44	37,727
630,64	37,801
630,84	37,045
631,04	36,257
631,23	35,609
631,43	34,556
631,63	33,300
631,83	32,276
632,03	31,430
632,23	29,332
632,42	28,768
632,62	27,240
632,82	26,300
633,02	25,107
633,22	23,790
633,42	24,061
633,62	22,331
633,81	21,137
634,01	20,517
634,21	19,662
634,41	19,024
634,61	18,933
634,80	18,356
635,00	17,878
635,20	17,563
635,40	17,213
635,60	16,942
635,80	16,953
635,99	16,263
636,19	16,230
636,39	16,431
636,59	16,286
636,79	16,549
636,98	16,385
637,18	15,953
637,38	15,888
637,58	15,429
637,78	15,590
637,97	15,866
638,17	15,810
638,37	16,495
638,57	15,479
638,77	15,931
638,96	16,110
639,16	16,162
639,36	15,581
639,56	16,231
639,76	16,144
639,95	16,153
640,15	16,237
640,35	16,386
640,55	16,091
640,75	16,069
640,94	15,657
641,14	15,747
641,34	15,859
641,54	15,664
641,73	15,824
641,93	15,934
642,13	16,074
642,33	16,435
642,53	15,578
642,72	15,710
642,92	15,679
643,12	15,780
643,32	15,439
643,51	15,692
643,71	15,762
643,91	15,599
644,11	15,620
644,30	15,852
644,50	16,019
644,70	15,599
644,90	15,937
645,09	15,902
645,29	16,119
645,49	15,731
645,69	15,697
645,88	15,739
646,08	15,708
646,28	15,228
646,48	15,973
646,67	15,563
646,87	15,868
647,07	15,236
647,26	15,755
647,46	15,670
647,66	16,007
647,86	15,398
648,05	15,560
648,25	15,658
648,45	15,527
648,65	15,766
648,84	16,139
649,04	16,076
649,24	16,106
649,43	15,556
649,63	16,272
649,83	15,494
650,03	15,841
650,22	15,438
650,42	15,499
650,62	15,068
650,81	15,270
651,01	15,477
651,21	14,879
651,40	15,414
651,60	14,866
651,80	15,198
652,00	15,129
652,19	15,598
652,39	15,307
652,59	15,222
652,78	15,433
652,98	15,609
653,18	15,522
653,37	15,337
653,57	15,774
653,77	15,025
653,96	15,498
654,16	15,160
654,36	15,060
654,55	14,910
654,75	15,041
654,95	15,444
655,14	15,163
655,34	15,147
655,54	15,461
655,73	15,312
655,93	15,502
656,13	14,988
656,32	15,641
656,52	15,122
656,72	15,246
656,91	15,042
657,11	15,220
657,31	15,341
657,50	15,386
657,70	14,823
657,90	14,924
658,09	15,423
658,29	15,574
658,49	15,074
658,68	14,491
658,88	14,783
659,07	14,496
659,27	14,602
659,47	14,935
659,66	14,769
659,86	14,971
660,06	14,870
660,25	15,247
660,45	15,233
660,64	14,849
660,84	15,206
661,04	15,198
661,23	15,100
661,43	14,957
661,63	15,021
661,82	15,373
662,02	14,828
662,21	14,705
662,41	15,019
662,61	14,909
662,80	14,726
663,00	15,003
663,19	15,062
663,39	14,887
663,59	14,964
663,78	15,271
663,98	14,869
664,17	15,206
664,37	14,727
664,57	15,230
664,76	15,223
664,96	15,176
665,15	15,195
665,35	15,458
665,55	14,998
665,74	15,367
665,94	15,440
666,13	14,922
666,33	15,334
666,53	15,261
666,72	15,511
666,92	15,412
667,11	15,142
667,31	15,580
667,50	15,457
667,70	15,017
667,90	14,856
668,09	15,308
668,29	14,972
668,48	15,029
668,68	14,787
668,87	14,440
669,07	14,329
669,26	14,859
669,46	14,526
669,66	14,866
669,85	14,986
670,05	14,663
670,24	14,641
670,44	15,017
670,63	14,959
670,83	14,986
671,02	14,353
671,22	15,208
671,42	14,630
671,61	15,375
671,81	14,819
672,00	15,229
672,20	15,069
672,39	15,392
672,59	15,026
672,78	15,177
672,98	14,916
673,17	15,061
673,37	14,974
673,56	14,733
673,76	15,223
673,95	14,879
674,15	14,866
674,34	14,752
674,54	15,331
674,73	14,827
674,93	15,033
675,13	14,693
675,32	14,951
675,52	14,608
675,71	14,988
675,91	15,088
676,10	14,886
676,30	15,243
676,49	15,302
676,69	14,958
676,88	14,991
677,08	15,241
677,27	14,880
677,47	15,521
677,66	15,362
677,86	15,393
678,05	15,478
678,24	15,037
678,44	14,874
678,63	15,304
678,83	14,932
679,02	15,145
679,22	15,076
679,41	15,293
679,61	15,451
679,80	14,791
680,00	15,563
680,19	15,387
680,39	15,324
680,58	15,158
680,78	15,168
680,97	15,130
681,17	15,181
681,36	15,349
681,56	15,155
681,75	15,017
681,94	15,246
682,14	15,049
682,33	15,103
682,53	14,968
682,72	15,088
682,92	15,132
683,11	15,146
683,31	15,790
683,50	15,490
683,69	15,611
683,89	15,086
684,08	14,940
684,28	15,006
684,47	15,291
684,67	14,938
684,86	14,655
685,06	14,810
685,25	15,093
685,44	15,290
685,64	14,808
685,83	15,046
686,03	15,083
686,22	14,946
686,42	15,173
686,61	15,148
686,80	15,022
687,00	15,116
687,19	15,278
687,39	15,265
687,58	15,155
687,77	15,373
687,97	15,429
688,16	15,416
688,36	15,520
688,55	15,244
688,74	15,408
688,94	15,157
689,13	15,252
689,33	15,038
689,52	15,178
689,71	15,577
689,91	15,294
690,10	14,770
690,30	14,966
690,49	15,155
690,68	15,174
690,88	15,248
691,07	15,353
691,27	14,705
691,46	15,063
691,65	15,111
691,85	14,886
692,04	15,129
692,23	15,264
692,43	15,121
692,62	15,230
692,82	14,885
693,01	15,162
693,20	14,481
693,40	15,329
693,59	14,948
693,78	14,647
693,98	14,931
694,17	14,694
694,36	15,035
694,56	14,693
694,75	14,966
694,94	15,166
695,14	15,282
695,33	15,189
695,53	15,289
695,72	15,227
695,91	15,190
696,11	15,311
696,30	14,710
696,49	14,607
696,69	14,914
696,88	14,607
697,07	15,091
697,27	15,106
697,46	14,983
697,65	15,671
697,85	15,705
698,04	15,254
698,23	14,995
698,43	15,023
698,62	15,373
698,81	15,042
699,01	14,683
699,20	14,359
699,39	14,505
699,58	14,686
699,78	14,229
699,97	14,420
700,16	14,573
700,36	15,062
700,55	14,945
700,74	14,386
700,94	14,592
701,13	14,809
701,32	14,774
701,52	14,713
701,71	15,567
701,90	15,255
702,09	15,127
702,29	15,672
702,48	15,204
702,67	14,933
702,87	15,326
703,06	15,300
703,25	14,816
703,44	15,169
703,64	14,820
703,83	14,960
704,02	15,077
704,22	14,641
704,41	14,782
704,60	14,963
704,79	14,748
704,99	15,030
705,18	15,067
705,37	15,214
705,56	14,879
705,76	14,680
705,95	14,568
706,14	15,258
706,33	14,833
706,53	15,136
706,72	14,616
706,91	14,534
707,11	14,413
707,30	15,038
707,49	14,686
707,68	15,029
707,88	14,698
708,07	14,619
708,26	14,511
708,45	14,883
708,64	14,480
708,84	14,474
709,03	14,992
709,22	14,424
709,41	14,914
709,61	14,882
709,80	15,024
709,99	15,347
710,18	15,243
710,38	14,973
710,57	15,106
710,76	15,010
710,95	15,427
711,14	15,369
711,34	15,435
711,53	14,991
711,72	14,574
711,91	15,070
712,11	14,776
712,30	14,786
712,49	14,531
712,68	15,069
712,87	14,341
713,07	14,712
713,26	14,698
713,45	15,289
713,64	14,958
713,83	14,915
714,03	14,944
714,22	15,144
714,41	15,094
714,60	14,755
714,79	14,840
714,99	14,586
715,18	14,936
715,37	14,699
715,56	15,329
715,75	15,320
715,94	15,238
716,14	15,274
716,33	14,812
716,52	14,523
716,71	14,830
716,90	14,628
717,10	15,018
717,29	15,048
717,48	15,313
717,67	14,978
717,86	15,121
718,05	15,094
718,24	15,115
718,44	15,018
718,63	15,136
718,82	15,410
719,01	15,148
719,20	15,089
719,39	14,772
719,59	14,593
719,78	14,473
719,97	14,986
720,16	15,139
720,35	14,851
720,54	15,070
720,73	15,079
720,93	15,138
721,12	15,115
721,31	15,617
721,50	14,944
721,69	15,247
721,88	15,607
722,07	15,365
722,27	15,346
722,46	15,308
722,65	15,642
722,84	15,570
723,03	15,872
723,22	15,556
723,41	15,931
723,60	15,323
723,79	15,282
723,99	15,353
724,18	15,593
724,37	15,630
724,56	16,060
724,75	15,932
724,94	16,170
725,13	16,176
725,32	15,976
725,51	16,290
725,71	16,881
725,90	17,160
726,09	16,778
726,28	16,631
726,47	16,599
726,66	16,634
726,85	16,977
727,04	16,661
727,23	16,485
727,42	16,375
727,61	16,313
727,81	16,392
728,00	16,519
728,19	16,535
728,38	16,443
728,57	16,375
728,76	16,753
728,95	16,702
729,14	16,528
729,33	17,338
729,52	17,217
729,71	17,010
729,90	17,371
730,09	17,362
730,28	17,427
730,48	17,878
730,67	17,792
730,86	18,035
731,05	18,161
731,24	18,223
731,43	18,152
731,62	19,085
731,81	18,842
732,00	19,509
732,19	19,267
732,38	19,673
732,57	20,119
732,76	19,906
732,95	20,020
733,14	20,628
733,33	20,952
733,52	21,781
733,71	22,441
733,90	22,551
734,09	23,889
734,28	24,618
734,47	25,108
734,66	25,793
734,85	26,538
735,04	27,973
735,23	28,720
735,42	29,915
735,61	29,854
735,81	32,615
736,00	33,309
736,19	34,326
736,38	34,959
736,57	35,732
736,76	37,494
736,95	38,934
737,14	40,257
737,33	41,583
737,52	42,769
737,71	43,881
737,90	44,872
738,09	45,633
738,28	45,658
738,47	47,709
738,66	49,854
738,85	49,498
739,04	50,216
739,22	51,731
739,41	52,382
739,60	52,107
739,79	53,344
739,98	53,575
740,17	54,354
740,36	54,157
740,55	54,487
740,74	55,117
740,93	54,730
741,12	54,284
741,31	53,801
741,50	53,337
741,69	53,165
741,88	53,005
742,07	52,848
742,26	51,164
742,45	51,907
742,64	51,511
742,83	50,260
743,02	49,918
743,21	49,630
743,40	49,429
743,59	49,031
743,78	48,618
743,97	48,108
744,16	46,552
744,34	46,109
744,53	46,996
744,72	46,202
744,91	45,754
745,10	45,025
745,29	45,598
745,48	44,704
745,67	44,389
745,86	44,120
746,05	44,741
746,24	43,708
746,43	43,534
746,62	43,520
746,81	42,893
747,00	42,363
747,18	41,898
747,37	41,726
747,56	41,544
747,75	42,339
747,94	41,758
748,13	41,205
748,32	41,619
748,51	41,214
748,70	40,545
748,89	41,104
749,08	40,538
749,26	41,192
749,45	40,120
749,64	40,053
749,83	39,196
750,02	39,711
750,21	40,916
750,40	39,055
750,59	39,532
750,78	39,432
750,96	38,870
751,15	39,195
751,34	38,885
751,53	39,012
751,72	38,959
751,91	38,804
752,10	38,816
752,29	39,124
752,47	38,108
752,66	37,780
752,85	37,925
753,04	38,026
753,23	37,023
753,42	36,654
753,61	36,763
753,80	36,168
753,98	35,133
754,17	34,430
754,36	34,111
754,55	32,451
754,74	32,593
754,93	31,698
755,12	30,793
755,30	30,265
755,49	29,125
755,68	27,979
755,87	27,859
756,06	26,760
756,25	26,211
756,43	25,977
756,62	24,636
756,81	24,598
757,00	23,446
757,19	22,606
757,38	22,338
757,56	21,325
757,75	20,567
757,94	20,014
758,13	19,648
758,32	19,125
758,51	18,548
758,69	18,847
758,88	17,596
759,07	18,285
759,26	17,424
759,45	17,471
759,63	17,461
759,82	16,826
760,01	16,884
760,20	16,423
760,39	16,155
760,57	16,067
760,76	15,682
760,95	16,356
761,14	15,586
761,33	15,825
761,51	15,508
761,70	15,595
761,89	15,199
762,08	15,634
762,27	15,153
762,45	15,306
762,64	15,425
762,83	15,306
763,02	15,490
763,21	15,603
763,39	15,557
763,58	15,469
763,77	16,007
763,96	15,037
764,14	15,536
764,33	15,968
764,52	15,716
764,71	15,925
764,89	15,839
765,08	15,657
765,27	15,220
765,46	15,558
765,65	16,150
765,83	16,168
766,02	15,488
766,21	16,042
766,40	15,569
766,58	16,061
766,77	15,441
766,96	15,742
767,15	15,834
767,33	15,059
767,52	15,560
767,71	15,302
767,90	15,144
768,08	15,392
768,27	15,027
768,46	14,955
768,64	14,930
768,83	15,185
769,02	14,719
769,21	15,198
769,39	15,002
769,58	15,077
769,77	15,146
769,96	14,775
770,14	15,015
770,33	15,018
770,52	15,085
770,70	15,080
770,89	14,924
771,08	15,066
771,27	15,210
771,45	14,926
771,64	14,925
771,83	14,833
772,01	14,740
772,20	14,779
772,39	15,096
772,57	15,124
772,76	15,307
772,95	15,054
773,14	15,220
773,32	15,377
773,51	15,283
773,70	14,989
773,88	15,105
774,07	15,515
774,26	15,504
774,44	15,417
774,63	15,828
774,82	15,699
775,00	15,788
775,19	15,719
775,38	15,285
775,56	15,310
775,75	15,277
775,94	15,480
776,12	14,670
776,31	15,180
776,50	14,882
776,68	15,058
776,87	15,011
777,06	15,065
777,24	15,377
777,43	15,438
777,62	14,938
777,80	14,575
777,99	14,990
778,18	14,733
778,36	14,733
778,55	14,446
778,74	14,868
778,92	14,473
779,11	14,858
779,29	14,686
779,48	15,242
779,67	14,977
779,85	15,427
780,04	14,806
780,23	14,695
780,41	14,509
780,60	15,203
780,79	15,041
780,97	15,563
781,16	14,718
781,34	15,482
781,53	14,804
781,72	14,780
781,90	14,912
782,09	14,515
782,28	14,964
782,46	14,810
782,65	14,721
782,83	14,046
783,02	14,506
783,21	14,606
783,39	15,074
783,58	14,977
783,76	14,471
783,95	15,117
784,14	14,691
784,32	13,993
784,51	15,211
784,69	14,373
784,88	14,043
785,06	14,842
785,25	14,680
785,44	14,440
785,62	14,332
785,81	14,607
785,99	14,449
786,18	14,244
786,37	14,775
786,55	15,025
786,74	14,875
786,92	15,217
787,11	14,619
787,29	14,253
787,48	14,298
787,67	14,641
787,85	14,336
788,04	14,243
788,22	14,553
788,41	14,267
788,59	14,416
788,78	13,945
788,96	14,692
789,15	14,652
789,34	14,363
789,52	14,988
789,71	15,043
789,89	14,540
790,08	13,715
790,26	14,708
790,45	14,618
790,63	14,976
790,82	15,203
791,00	14,961
791,19	14,951
791,38	14,525
791,56	14,948
791,75	14,851
791,93	15,099
792,12	14,678
792,30	15,507
792,49	15,119
792,67	14,862
792,86	14,804
793,04	15,258
793,23	14,887
793,41	14,864
793,60	15,421
793,78	15,531
793,97	15,310
794,15	15,230
794,34	14,955
794,52	14,829
794,71	15,387
794,89	14,973
795,08	15,381
795,26	15,005
795,45	15,241
795,63	15,298
795,82	15,027
796,00	14,684
796,19	15,558
796,37	14,996
796,56	14,110
796,74	14,596
796,93	14,590
797,11	14,646
797,30	14,262
797,48	14,655
797,67	14,630
797,85	14,777
798,04	14,696
798,22	15,498
798,41	14,718
798,59	14,770
798,77	14,849
798,96	14,463
799,14	15,207
799,33	14,696
799,51	14,548
799,70	14,796
799,88	14,652
800,07	14,575
800,25	14,672
800,44	14,134
800,62	13,896
800,80	14,188
800,99	14,260
801,17	14,819
801,36	14,452
801,54	14,163
801,73	14,655
801,91	14,662
802,10	14,924
802,28	15,073
802,46	14,964
802,65	15,193
802,83	14,846
803,02	14,796
803,20	14,797
803,39	15,292
803,57	14,406
803,75	14,962
803,94	14,889
804,12	14,633
804,31	14,604
804,49	14,682
804,67	14,665
804,86	14,570
805,04	14,592
805,23	14,658
805,41	14,777
805,59	15,256
805,78	14,795
805,96	14,960
806,15	14,954
806,33	14,848
806,51	14,189
806,70	14,293
806,88	14,699
807,07	14,572
807,25	14,858
807,43	14,621
807,62	14,557
807,80	14,638
807,99	14,699
808,17	14,067
808,35	15,582
808,54	14,246
808,72	15,329
808,90	15,544
809,09	15,069
809,27	15,148
809,46	15,516
809,64	14,897
809,82	14,563
810,01	15,427
810,19	14,489
810,37	14,545
810,56	14,945
810,74	14,482
810,92	15,198
811,11	15,467
811,29	15,729
811,48	15,086
811,66	16,322
811,84	15,685
812,03	15,909
812,21	15,462
812,39	15,649
812,58	15,077
812,76	15,997
812,94	15,236
813,13	15,188
813,31	16,624
813,49	16,092
813,68	15,851
813,86	16,070
814,04	15,321
814,23	15,112
814,41	15,452
814,59	15,130
814,78	15,399
814,96	15,059
815,14	15,349
815,33	15,670
815,51	15,971
815,69	15,996
815,87	16,400
816,06	16,154
816,24	16,108
816,42	16,102
816,61	16,622
816,79	17,059
816,97	16,736
817,16	16,717
817,34	16,440
817,52	16,772
817,70	16,568
817,89	16,195
818,07	16,138
818,25	15,746
818,44	16,286
818,62	16,360
818,80	16,500
818,98	16,337
819,17	16,393
819,35	16,325
819,53	17,185
819,72	17,112
819,90	16,600
820,08	16,869
820,26	16,885
820,45	16,918
820,63	17,314
820,81	17,312
820,99	16,787
821,18	16,789
821,36	16,911
821,54	17,745
821,73	16,923
821,91	17,263
822,09	17,455
822,27	18,090
822,46	17,345
822,64	18,655
822,82	18,015
823,00	17,905
823,19	18,197
823,37	18,796
823,55	18,852
823,73	19,543
823,91	19,400
824,10	19,269
824,28	19,473
824,46	20,101
824,64	20,675
824,83	21,637
825,01	21,506
825,19	22,184
825,37	22,506
825,56	23,171
825,74	23,485
825,92	24,103
826,10	25,186
826,28	25,909
826,47	26,116
826,65	27,989
826,83	28,145
827,01	28,976
827,19	30,205
827,38	30,598
827,56	31,295
827,74	31,636
827,92	31,906
828,10	33,388
828,29	33,781
828,47	33,411
828,65	34,779
828,83	34,783
829,01	34,889
829,20	36,678
829,38	37,370
829,56	38,037
829,74	39,521
829,92	39,136
830,10	40,525
830,29	41,417
830,47	42,440
830,65	42,773
830,83	44,469
831,01	44,999
831,20	44,281
831,38	45,291
831,56	46,414
831,74	47,539
831,92	47,660
832,10	48,499
832,29	49,726
832,47	47,746
832,65	49,362
832,83	50,314
833,01	50,618
833,19	51,067
833,37	51,317
833,56	50,958
833,74	51,616
833,92	51,804
834,10	51,879
834,28	50,414
834,46	51,290
834,64	50,416
834,83	50,755
835,01	50,173
835,19	50,084
835,37	50,772
835,55	49,344
835,73	50,214
835,91	49,048
836,09	48,303
836,28	47,986
836,46	47,825
836,64	48,323
836,82	46,765
837,00	46,517
837,18	48,218
837,36	46,933
837,54	46,750
837,72	46,565
837,91	45,148
838,09	44,517
838,27	44,457
838,45	43,594
838,63	42,770
838,81	43,013
838,99	42,195
839,17	42,485
839,35	42,512
839,53	41,187
839,72	41,466
839,90	41,055
840,08	41,735
840,26	40,838
840,44	41,481
840,62	39,479
840,80	40,723
840,98	39,079
841,16	39,175
841,34	38,220
841,52	38,208
841,70	39,015
841,89	38,097
842,07	39,478
842,25	38,668
842,43	37,968
842,61	37,862
842,79	37,787
842,97	37,742
843,15	38,248
843,33	37,990
843,51	37,173
843,69	36,514
843,87	35,906
844,05	37,381
844,23	36,535
844,41	35,618
844,59	34,698
844,77	34,305
844,95	34,423
845,13	33,395
845,31	33,246
845,50	32,532
845,68	31,898
845,86	31,319
846,04	30,291
846,22	30,066
846,40	28,980
846,58	28,329
846,76	28,703
846,94	26,965
847,12	26,263
847,30	25,369
847,48	25,318
847,66	24,743
847,84	23,611
848,02	22,505
848,20	23,119
848,38	21,948
848,56	20,948
848,74	20,830
848,92	19,895
849,10	19,363
849,28	19,222
849,46	19,004
849,64	19,070
849,82	17,220
850,00	18,381
850,18	17,711
850,36	17,808
850,54	17,020
850,72	16,792
850,90	16,493
851,08	16,577
851,26	16,627
851,44	16,419
851,62	16,115
851,80	15,188
851,98	14,822
852,16	15,792
852,34	15,244
852,52	14,587
852,70	14,611
852,87	15,093
853,05	14,160
853,23	14,153
853,41	14,182
853,59	14,184
853,77	14,157
853,95	14,021
854,13	14,341
854,31	14,607
854,49	15,136
854,67	14,807
854,85	14,626
855,03	15,028
855,21	14,526
855,39	13,943
855,57	14,960
855,75	14,591
855,93	14,321
856,11	13,739
856,28	13,751
856,46	13,499
856,64	13,765
856,82	13,987
857,00	13,773
857,18	13,983
857,36	13,899
857,54	13,985
857,72	13,447
857,90	13,490
858,08	14,087
858,26	14,569
858,44	14,195
858,61	14,356
858,79	13,857
858,97	13,762
859,15	13,964
859,33	13,895
859,51	14,622
859,69	13,761
859,87	14,156
860,05	14,585
860,23	13,311
860,40	14,766
860,58	13,404
860,76	14,786
860,94	13,884
861,12	13,471
861,30	13,297
861,48	14,513
861,66	13,248
861,84	14,148
862,01	14,960
862,19	14,049
862,37	13,689
862,55	14,883
862,73	13,388
862,91	14,034
863,09	13,654
863,27	13,752
863,44	14,274
863,62	13,545
863,80	13,663
863,98	13,699
864,16	13,641
864,34	13,482
864,52	14,016
864,69	14,826
864,87	12,762
865,05	13,162
865,23	13,388
865,41	13,723
865,59	13,884
865,76	13,567
865,94	13,431
866,12	13,708
866,30	14,687
866,48	13,319
866,66	13,568
866,83	14,265
867,01	13,490
867,19	13,604
867,37	13,852
867,55	13,297
867,73	13,950
867,90	13,324
868,08	13,240
868,26	12,942
868,44	12,781
868,62	13,637
868,79	13,635
868,97	13,701
869,15	13,110
869,33	13,140
869,51	13,981
869,69	13,786
869,86	12,936
870,04	13,270
870,22	13,805
870,40	13,932
870,57	13,624
870,75	12,687
870,93	12,844
871,11	13,352
871,29	12,935
871,46	13,702
871,64	13,400
871,82	13,008
872,00	13,781
872,18	13,427
872,35	13,549
872,53	13,810
872,71	13,157
872,89	13,526
873,06	13,922
873,24	12,801
873,42	13,336
873,60	13,213
873,77	12,969
873,95	13,715
874,13	12,859
874,31	13,803
874,49	13,101
874,66	13,704
874,84	13,180
875,02	13,467
875,20	12,824
875,37	13,668
875,55	12,804
875,73	13,795
875,91	13,467
876,08	12,482
876,26	12,932
876,44	12,911
876,61	13,530
876,79	12,906
876,97	12,736
877,15	13,103
877,32	12,740
877,50	12,510
877,68	13,220
877,86	13,081
878,03	13,108
878,21	12,710
878,39	12,885
878,56	13,451
878,74	12,882
878,92	12,413
879,10	12,355
879,27	13,040
879,45	13,247
879,63	12,961
879,80	14,027
879,98	13,692
880,16	13,551
880,34	13,073
880,51	12,504
880,69	13,251
880,87	12,799
881,04	13,170
881,22	12,970
881,40	13,234
881,57	12,818
881,75	12,876
881,93	13,450
882,10	12,411
882,28	13,564
882,46	13,122
882,63	12,615
882,81	12,857
882,99	13,097
883,16	12,765
883,34	12,867
883,52	12,302
883,69	12,052
883,87	12,066
884,05	12,900
884,22	12,953
884,40	12,570
884,58	12,681
884,75	13,164
884,93	12,462
885,11	12,393
885,28	12,646
885,46	11,456
885,64	12,219
885,81	12,176
885,99	11,930
886,17	11,840
886,34	12,223
886,52	12,276
886,70	12,604
886,87	12,468
887,05	12,606
887,22	12,348
887,40	13,089
887,58	12,000
887,75	12,377
887,93	13,002
888,11	12,129
888,28	12,514
888,46	12,364
888,63	12,737
888,81	12,420
888,99	11,616
889,16	12,119
889,34	12,463
889,51	12,094
889,69	11,261
889,87	12,109
890,04	11,527
890,22	12,635
890,39	11,789
890,57	11,993
890,75	11,982
890,92	11,280
891,10	11,465
891,27	11,779
891,45	11,577
891,63	11,900
891,80	12,047
891,98	12,345
892,15	11,699
892,33	11,693
892,51	11,534
892,68	11,786
892,86	11,745
893,03	11,832
893,21	12,536
893,38	12,864
893,56	11,865
893,74	11,197
893,91	11,959
894,09	11,855
894,26	12,335
894,44	10,953
894,61	11,194
894,79	11,916
894,96	11,675
895,14	11,795
895,32	11,472
895,49	11,053
895,67	11,003
895,84	11,573
896,02	11,609
896,19	11,725
896,37	11,014
896,54	10,919
896,72	11,672
896,89	11,672
897,07	11,162
897,25	11,353
897,42	10,805
897,60	10,873
897,77	11,505
897,95	10,820
898,12	10,991
898,30	11,036
898,47	10,482
898,65	11,201
898,82	10,351
899,00	10,782
899,17	10,643
899,35	10,196
899,52	10,749
899,70	11,443
899,87	10,939
900,05	11,103
900,22	10,583
900,40	10,638
900,57	10,384
900,75	10,565
900,92	10,074
901,10	10,264
901,27	10,100
901,45	10,735
901,62	10,946
901,80	9,867
901,97	10,528
902,15	10,819
902,32	10,201
902,50	10,726
902,67	10,015
902,85	10,667
903,02	10,411
903,20	10,148
903,37	10,391
903,54	10,241
903,72	10,562
903,89	10,887
904,07	10,272
904,24	10,318
904,42	10,262
904,59	11,708
904,77	10,691
904,94	11,030
905,12	10,416
905,29	10,516
905,47	10,162
905,64	10,777
905,81	10,503
905,99	10,929
906,16	10,357
906,34	10,313
906,51	10,064
906,69	10,315
906,86	9,179
907,03	10,953
907,21	9,971
907,38	10,350
907,56	10,125
907,73	10,752
907,91	10,595
908,08	10,336
908,25	10,831
908,43	10,400
908,60	10,510
908,78	10,056
908,95	10,687
909,13	9,703
909,30	9,179
909,47	9,593
909,65	9,710
909,82	9,866
910,00	9,739
910,17	9,472
910,34	9,854
910,52	9,626
910,69	9,536
910,87	9,598
911,04	10,312
911,21	10,018
911,39	9,468
911,56	9,445
911,73	10,002
911,91	9,109
912,08	9,610
912,26	9,560
912,43	9,810
912,60	9,919
912,78	9,837
912,95	10,018
913,13	9,406
913,30	9,471
913,47	9,210
913,65	8,872
913,82	9,260
913,99	9,110
914,17	10,235
914,34	8,909
914,51	9,444
914,69	9,507
914,86	9,346
915,03	9,177
915,21	9,122
915,38	9,713
915,56	9,356
915,73	8,508
915,90	9,873
916,08	9,594
916,25	8,616
916,42	9,295
916,60	8,275
916,77	8,613
916,94	9,282
917,12	9,354
917,29	8,566
917,46	9,699
917,64	9,723
917,81	9,004
917,98	9,713
918,16	8,504
918,33	9,784
918,50	9,086
918,67	8,573
918,85	9,246
919,02	9,142
919,19	9,681
919,37	9,167
919,54	9,311
919,71	8,533
919,89	8,829
920,06	8,435
920,23	9,055
920,41	9,207
920,58	8,966
920,75	8,745
920,92	8,839
921,10	9,109
921,27	8,469
921,44	8,708
921,62	8,929
921,79	8,773
921,96	9,634
922,13	8,914
922,31	8,233
922,48	8,833
922,65	8,212
922,82	8,958
923,00	8,824
923,17	8,661
923,34	8,310
923,52	7,896
923,69	8,569
923,86	7,873
924,03	8,195
924,21	8,192
924,38	7,913
924,55	7,546
924,72	7,792
924,90	7,765
925,07	7,923
925,24	7,881
925,41	8,261
925,59	8,079
925,76	7,823
925,93	7,381
926,10	6,930
926,28	8,014
926,45	7,636
926,62	7,542
926,79	7,946
926,96	7,540
927,14	7,976
927,31	7,617
927,48	8,099
927,65	8,092
927,83	7,722
928,00	7,931
928,17	7,797
928,34	7,463
928,51	7,705
928,69	7,178
928,86	7,845
929,03	8,020
929,20	7,441
929,37	7,755
929,55	8,195
929,72	7,330
929,89	7,004
930,06	7,215
930,23	7,293
930,41	7,405
930,58	7,626
930,75	7,516
930,92	6,989
931,09	7,623
931,27	7,698
931,44	7,823
931,61	7,696
931,78	7,538
931,95	7,154
932,12	8,210
932,30	7,639
932,47	7,395
932,64	7,350
932,81	6,077
932,98	7,327
933,16	7,131
933,33	7,698
933,50	7,054
933,67	7,146
933,84	6,830
934,01	6,670
934,18	6,113
934,36	7,074
934,53	6,964
934,70	7,153
934,87	8,386
935,04	7,419
935,21	7,210
935,38	7,506
935,56	7,842
935,73	6,933
935,90	7,140
936,07	6,964
936,24	7,145
936,41	7,453
936,58	7,140
936,76	7,490
936,93	6,737
937,10	6,950
937,27	6,593
937,44	7,134
937,61	7,344
937,78	6,466
937,95	7,025
938,13	6,652
938,30	6,749
938,47	6,335
938,64	6,844
938,81	6,780
938,98	7,193
939,15	7,131
939,32	6,541
939,49	7,326
939,66	6,839
939,84	7,619
940,01	6,141
940,18	5,902
940,35	6,548
940,52	6,410
940,69	6,508
940,86	6,511
941,03	6,785
941,20	6,495
941,37	6,315
941,54	6,142
941,71	6,009
941,89	7,049
942,06	6,949
942,23	6,837
942,40	6,563
942,57	6,777
942,74	6,714
942,91	6,789
943,08	7,170
943,25	6,548
943,42	5,830
943,59	7,310
943,76	7,350
943,93	6,835
944,10	6,952
944,27	6,667
944,44	6,940
944,61	7,599
944,79	7,050
944,96	6,619
945,13	6,103
945,30	6,441
945,47	6,839
945,64	6,669
945,81	6,606
945,98	7,262
946,15	6,572
946,32	6,407
946,49	6,376
946,66	6,723
946,83	6,855
947,00	7,176
947,17	7,013
947,34	7,000
947,51	7,334
947,68	7,118
947,85	6,342
948,02	7,928
948,19	5,818
948,36	7,396
948,53	6,498
948,70	7,318
948,87	6,020
949,04	7,164
949,21	6,997
949,38	6,988
949,55	7,693
949,72	7,586
949,89	7,023
950,06	7,085
950,23	6,310
950,40	7,270
950,57	6,809
950,74	7,622
950,91	7,053
951,08	7,888
951,25	7,376
951,42	6,975
951,59	6,633
951,76	6,758
951,93	7,004
952,10	7,774
952,27	6,673
952,44	7,208
952,61	7,371
952,77	7,864
952,94	8,295
953,11	9,000
953,28	6,921
953,45	7,805
953,62	7,308
953,79	6,936
953,96	7,429
954,13	8,536
954,30	8,131
954,47	7,014
954,64	8,147
954,81	9,148
954,98	9,228
955,15	7,330
955,32	7,076
955,49	7,660
955,65	7,801
955,82	7,790
955,99	8,076
956,16	8,481
956,33	9,760
956,50	8,026
956,67	8,969
956,84	8,893
957,01	8,608
957,18	8,518
957,35	9,166
957,52	8,998
957,68	8,343
957,85	8,752
958,02	9,112
958,19	8,878
958,36	8,838
958,53	10,197
958,70	9,481
958,87	9,711
959,04	9,332
959,21	7,775
959,37	10,044
959,54	9,447
959,71	9,945
959,88	9,637
960,05	9,712
960,22	9,584
960,39	9,246
960,56	8,290
960,72	9,911
960,89	11,175
961,06	10,327
961,23	10,850
961,40	11,730
961,57	10,090
961,74	9,437
961,90	10,175
962,07	11,458
962,24	10,171
962,41	9,594
962,58	10,584
962,75	9,730
962,92	10,000
963,08	9,903
963,25	10,931
963,42	11,261
963,59	9,197
963,76	9,500
963,93	10,365
964,10	11,561
964,26	11,243
964,43	9,444
964,60	9,004
964,77	11,128
964,94	10,642
965,10	10,802
965,27	11,285
965,44	10,483
965,61	11,761
965,78	10,266
965,95	12,036
966,11	10,397
966,28	12,265
966,45	11,552
966,62	10,711
966,79	12,314
966,95	11,815
967,12	10,808
967,29	9,525
967,46	11,961
967,63	12,129
967,79	12,287
967,96	11,464
968,13	9,969
968,30	12,304
968,47	10,205
968,63	12,281
968,80	12,325
968,97	11,122
969,14	10,324
969,31	10,915
969,47	10,945
969,64	11,842
969,81	10,296
969,98	9,979
970,14	11,096
970,31	10,505
970,48	10,370
970,65	10,530
970,81	11,843
970,98	9,977
971,15	13,589
971,32	11,783
971,48	10,324
971,65	13,598
971,82	11,853
971,99	10,215
972,15	10,600
972,32	10,464
972,49	11,608
972,66	11,573
972,82	11,076
972,99	10,290
973,16	12,338
973,33	13,457
973,49	12,075
973,66	12,040
973,83	12,382
974,00	11,719
974,16	12,119
974,33	11,832
974,50	10,621
974,67	12,400
974,83	12,992
975,00	12,050
975,17	12,935
975,33	12,245
975,50	12,372
975,67	9,667
975,84	10,549
976,00	12,119
976,17	13,964
976,34	11,606
976,50	10,630
976,67	10,472
976,84	12,156
977,00	10,506
977,17	12,973
977,34	11,276
977,50	11,281
977,67	12,867
977,84	10,506
978,01	13,038
978,17	12,869
978,34	11,503
978,51	10,981
978,67	12,010
978,84	13,264
979,01	12,568
979,17	12,607
979,34	13,465
979,51	12,123
979,67	12,431
979,84	11,623
980,01	12,804
980,17	11,217
980,34	12,598
980,51	12,631
980,67	13,882
980,84	13,480
981,01	12,344
981,17	10,279
981,34	14,924
981,50	12,387
981,67	13,116
981,84	12,292
982,00	10,578
982,17	12,852
982,34	13,594
982,50	14,107
982,67	10,358
982,84	11,235
983,00	10,744
983,17	11,039
983,33	12,744
983,50	10,780
983,67	14,111
983,83	10,362
984,00	10,679
984,17	12,568
984,33	13,184
984,50	12,064
984,66	13,157
984,83	9,264
985,00	9,789
985,16	13,451
985,33	13,274
985,49	14,060
985,66	13,534
985,83	9,697
985,99	10,021
986,16	10,608
986,32	10,832
986,49	13,221
986,66	12,282
986,82	11,316
986,99	12,035
987,15	13,193
987,32	11,639
987,49	11,070
987,65	11,166
987,82	11,987
987,98	11,019
988,15	11,998
988,31	13,512
988,48	12,399
988,65	13,773
988,81	10,372
988,98	12,698
989,14	12,170
989,31	12,822
989,47	11,324
989,64	14,351
989,80	11,828
989,97	13,429
990,14	12,181
990,30	13,349
990,47	16,187
990,63	11,460
990,80	13,395
990,96	13,341
991,13	13,889
991,29	13,021
991,46	13,717
991,62	12,429
991,79	11,758
991,95	12,676
992,12	12,213
992,29	13,489
992,45	12,816
992,62	13,399
992,78	12,228
992,95	12,485
993,11	14,510
993,28	13,419
993,44	10,585
993,61	14,108
993,77	6,671
993,94	13,195
994,10	12,644
994,27	14,415
994,43	11,631
994,60	11,761
994,76	13,704
994,93	12,044
995,09	15,399
995,26	11,452
995,42	11,304
995,59	11,728
995,75	13,764
995,92	12,421
996,08	15,404
996,25	10,587
996,41	14,111
996,58	13,645
996,74	17,055
996,91	11,673
997,07	11,967
997,23	12,676
997,40	11,373
997,56	11,609
997,73	10,634
997,89	11,336
998,06	15,246
998,22	11,103
998,39	11,928
998,55	15,133
998,72	12,263
998,88	13,919
999,05	14,669
999,21	10,861
999,37	12,555
999,54	13,982
999,70	12,445
999,87	12,917
1000,03	12,136
1000,20	9,514
1000,36	13,377
1000,52	14,399
1000,69	14,375
1000,85	14,255
1001,02	15,143
1001,18	11,660
1001,35	12,703
1001,51	12,556
1001,67	10,971
1001,84	12,273
1002,00	10,698
1002,17	13,874
1002,33	13,629
1002,50	13,174
1002,66	10,086
1002,82	6,129
1002,99	11,426
1003,15	13,280
1003,32	14,755
1003,48	13,428
1003,64	14,218
1003,81	17,233
1003,97	14,688
1004,14	16,484
1004,30	12,131
1004,46	11,111
1004,63	13,287
1004,79	12,651
1004,95	9,857
1005,12	14,979
1005,28	18,123
1005,45	13,065
1005,61	14,720
1005,77	15,133
1005,94	12,705
1006,10	12,319
1006,26	15,169
1006,43	14,030
1006,59	7,057
1006,76	13,239
1006,92	14,846
1007,08	14,916
1007,25	10,399
1007,41	12,589
1007,57	10,064
1007,74	16,652
1007,90	14,849
1008,06	13,274
1008,23	12,827
1008,39	13,281
1008,55	13,293
1008,72	8,446
1008,88	12,680
1009,04	13,153
1009,21	7,581
1009,37	10,342
1009,53	12,078
1009,70	13,416
1009,86	13,849
1010,02	12,730
1010,19	10,614
1010,35	17,113
1010,51	9,140
1010,68	11,792
1010,84	12,612
1011,00	14,052
1011,17	13,339
1011,33	9,838
1011,49	12,644
1011,66	12,406
1011,82	11,874
1011,98	8,288
1012,14	12,023
1012,31	14,312
1012,47	9,872
1012,63	9,232
1012,80	12,429
1012,96	10,103
1013,12	11,535
1013,29	12,315
1013,45	10,068
1013,61	13,031
1013,77	11,426
1013,94	10,060
1014,10	11,759
1014,26	13,118
1014,43	12,239
1014,59	10,412
1014,75	12,810
1014,91	12,577
1015,08	12,286
1015,24	11,280
1015,40	8,193
1015,56	7,876
1015,73	11,616
1015,89	13,636
1016,05	8,887
1016,21	12,262
1016,38	6,591
1016,54	15,609
1016,70	9,176
1016,86	6,410
1017,03	8,370
1017,19	12,733
1017,35	8,802
1017,51	8,193
1017,68	10,611
1017,84	6,210
1018,00	10,561
1018,16	8,730
1018,33	11,638
1018,49	9,648
1018,65	9,300
1018,81	12,392
1018,97	10,341
1019,14	13,229
1019,30	9,275
1019,46	16,059
1019,62	11,985
1019,79	15,278
1019,95	11,460
1020,11	17,417
1020,27	8,485
1020,43	13,459
1020,60	11,690
1020,76	12,208
1020,92	14,083
1021,08	15,385
1021,24	11,084
1021,41	11,556
1021,57	11,462
1021,73	10,682
1021,89	16,311
1022,05	13,855
1022,21	8,827
1022,38	11,636
1022,54	16,049
1022,70	17,705
1022,86	12,641
1023,02	10,220
1023,19	9,549
1023,35	8,856
1023,51	11,887
1023,67	14,961
1023,83	9,799
1023,99	13,368
1024,16	9,205
1024,32	11,789
1024,48	13,702
1024,64	12,074
1024,80	12,552
1024,96	5,534
1025,12	18,734
1025,29	8,487
1025,45	16,556
1025,61	13,510
1025,77	5,652
1025,93	8,333
1026,09	12,722
1026,26	10,819
1026,42	9,687
1026,58	8,120
1026,74	12,288
1026,90	11,409
1027,06	7,289
1027,22	5,136
1027,38	6,553
1027,55	8,300
1027,71	20,947
1027,87	14,226
1028,03	11,095
1028,19	3,226
1028,35	7,344
1028,51	12,391
1028,67	11,596
1028,83	10,583
1029,00	15,603
1029,16	9,950
1029,32	13,582
1029,48	7,988
1029,64	16,517
1029,80	14,310
1029,96	7,443
1030,12	8,934
1030,28	-1,849
1030,44	11,555
1030,61	8,861
1030,77	9,091
1030,93	12,217
1031,09	9,552
1031,25	15,798
1031,41	9,657
1031,57	12,439
1031,73	8,455
1031,89	5,960
1032,05	14,195
1032,21	3,167
1032,37	3,676
1032,53	16,134
1032,69	11,046
1032,86	-2,253
1033,02	5,396
1033,18	2,397
1033,34	13,485
1033,50	10,684
1033,66	9,601
1033,82	14,359
1033,98	7,027
1034,14	9,807
1034,30	5,029
1034,46	9,481
1034,62	12,190
1034,78	10,137
1034,94	12,791
1035,10	15,129
1035,26	8,229
1035,42	17,004
1035,58	8,459
1035,74	10,000
1035,90	9,320
1036,06	10,103
1036,22	5,357
1036,38	15,607
1036,54	3,181
1036,70	0,802
1036,86	17,050
1037,02	5,714
1037,18	14,906
1037,34	8,061
1037,50	14,669
1037,66	15,187
1037,82	7,219
1037,98	12,334
1038,14	11,727
1038,30	11,984
1038,46	10,516
1038,62	2,731
1038,78	12,041
1038,94	9,091
1039,10	10,506
1039,26	7,889
1039,42	24,248
1039,58	13,304
1039,74	9,908
1039,90	18,750
1040,06	7,713
>>>>>End Processed Spectral Data<<<<<
