SpectraSuite Data File
++++++++++++++++++++++++++++++++++++
Date: Thu Feb 02 18:54:21 EET 2017
User: optolab
Dark Spectrum Present: Yes
Reference Spectrum Present: Yes
Number of Sampled Component Spectra: 1
Spectrometers: USB4C02475
Integration Time (usec): 151411 (USB4C02475)
Spectra Averaged: 1 (USB4C02475)
Boxcar Smoothing: 0 (USB4C02475)
Correct for Electrical Dark: No (USB4C02475)
Strobe/Lamp Enabled: No (USB4C02475)
Correct for Detector Non-linearity: No (USB4C02475)
Correct for Stray Light: No (USB4C02475)
Number of Pixels in Processed Spectrum: 3648
>>>>>Begin Processed Spectral Data<<<<<
344,91	248,148
345,13	248,148
345,35	248,148
345,57	-390,000
345,79	-123,077
346,00	-28,000
346,22	21,622
346,44	76,923
346,66	1566,667
346,87	30,000
347,09	-900,000
347,31	3000,000
347,53	120,513
347,74	37,500
347,96	122,222
348,18	85,366
348,40	-133,333
348,61	27,451
348,83	80,556
349,05	0,000
349,27	97,059
349,48	58,824
349,70	90,909
349,92	2,439
350,14	1750,000
350,35	-50,000
350,57	57,353
350,79	2,128
351,01	100,000
351,22	285,714
351,44	0,000
351,66	175,610
351,87	36,364
352,09	32,692
352,31	8,696
352,53	37,097
352,74	75,000
352,96	20,408
353,18	22,727
353,40	50,000
353,61	65,000
353,83	-8,000
354,05	-20,690
354,26	-56,818
354,48	-22,727
354,70	37,500
354,92	-15,873
355,13	71,429
355,35	300,000
355,57	92,208
355,78	30,000
356,00	-13,953
356,22	55,224
356,44	0,000
356,65	28,205
356,87	65,432
357,09	-31,884
357,30	124,324
357,52	25,714
357,74	41,538
357,95	77,778
358,17	-38,889
358,39	1625,000
358,60	60,000
358,82	31,944
359,04	44,444
359,26	40,000
359,47	53,448
359,69	1100,000
359,91	7,813
360,12	25,397
360,34	368,421
360,56	11,579
360,77	3,704
360,99	150,000
361,21	42,308
361,42	-25,000
361,64	60,606
361,86	39,560
362,07	31,683
362,29	-150,000
362,51	-16,667
362,72	60,000
362,94	50,000
363,16	98,551
363,37	25,000
363,59	90,110
363,81	18,644
364,02	-15,152
364,24	53,846
364,46	74,000
364,67	69,444
364,89	0,000
365,11	-66,667
365,32	42,105
365,54	100,000
365,76	41,250
365,97	82,857
366,19	15,789
366,41	33,846
366,62	81,429
366,84	56,667
367,05	23,611
367,27	36,364
367,49	33,333
367,70	11,957
367,92	79,747
368,14	34,409
368,35	88,889
368,57	13,333
368,79	18,919
369,00	66,429
369,22	60,417
369,43	10,204
369,65	65,476
369,87	25,926
370,08	57,971
370,30	17,647
370,51	51,145
370,73	-17,460
370,95	9,278
371,16	34,848
371,38	21,918
371,60	29,070
371,81	46,316
372,03	3,636
372,24	-42,105
372,46	71,667
372,68	83,544
372,89	26,316
373,11	24,074
373,32	55,556
373,54	15,625
373,76	43,697
373,97	19,512
374,19	55,556
374,40	54,783
374,62	20,455
374,84	54,369
375,05	33,684
375,27	-9,524
375,48	22,078
375,70	47,973
375,92	25,000
376,13	75,238
376,35	39,024
376,56	26,923
376,78	20,000
376,99	16,883
377,21	69,048
377,43	51,042
377,64	38,136
377,86	27,957
378,07	50,526
378,29	34,545
378,51	2,344
378,72	15,741
378,94	15,385
379,15	29,577
379,37	19,708
379,58	70,085
379,80	32,597
380,01	-1,000
380,23	35,075
380,45	11,000
380,66	40,278
380,88	22,353
381,09	19,318
381,31	12,353
381,52	30,405
381,74	37,736
381,95	-14,474
382,17	26,966
382,39	43,373
382,60	13,669
382,82	19,858
383,03	-5,000
383,25	-12,766
383,46	1,739
383,68	29,114
383,89	50,000
384,11	35,119
384,32	36,429
384,54	-16,190
384,76	43,353
384,97	31,818
385,19	39,200
385,40	19,643
385,62	17,021
385,83	39,355
386,05	42,657
386,26	29,101
386,48	26,623
386,69	15,200
386,91	26,486
387,12	23,404
387,34	12,155
387,55	5,882
387,77	9,091
387,98	16,667
388,20	45,238
388,41	39,759
388,63	34,762
388,84	6,711
389,06	23,497
389,27	32,719
389,49	20,388
389,70	28,723
389,92	24,631
390,13	16,892
390,35	39,286
390,56	33,197
390,78	25,941
390,99	17,617
391,21	27,451
391,42	12,551
391,64	26,415
391,85	-4,103
392,07	22,527
392,28	34,127
392,50	31,923
392,71	39,196
392,93	-2,075
393,14	18,033
393,36	25,676
393,57	43,348
393,79	7,763
394,00	-1,176
394,22	10,553
394,43	33,921
394,65	26,971
394,86	21,293
395,08	36,994
395,29	-5,333
395,50	33,333
395,72	26,383
395,93	25,620
396,15	36,364
396,36	29,703
396,58	0,000
396,79	16,781
397,01	30,802
397,22	21,723
397,44	-10,970
397,65	21,908
397,87	32,432
398,08	27,508
398,29	11,111
398,51	24,189
398,72	36,765
398,94	22,759
399,15	35,938
399,37	14,726
399,58	17,647
399,80	35,345
400,01	19,757
400,22	21,405
400,44	9,205
400,65	18,667
400,87	37,582
401,08	28,283
401,30	27,986
401,51	33,427
401,72	5,147
401,94	19,231
402,15	10,294
402,37	21,703
402,58	13,043
402,80	26,158
403,01	10,000
403,22	27,841
403,44	17,687
403,65	10,839
403,87	15,385
404,08	13,487
404,30	22,191
404,51	14,085
404,72	17,737
404,94	22,281
405,15	20,068
405,37	27,701
405,58	22,549
405,79	21,277
406,01	23,955
406,22	13,706
406,44	13,911
406,65	25,908
406,86	20,233
407,08	20,613
407,29	25,698
407,51	15,526
407,72	15,119
407,93	14,512
408,15	25,060
408,36	27,317
408,58	22,581
408,79	21,818
409,00	13,919
409,22	16,667
409,43	16,250
409,64	19,512
409,86	13,457
410,07	22,489
410,29	22,000
410,50	27,143
410,71	6,925
410,93	26,136
411,14	18,655
411,35	21,311
411,57	8,676
411,78	20,399
412,00	21,598
412,21	22,141
412,42	17,674
412,64	17,559
412,85	7,640
413,06	18,225
413,28	16,910
413,49	15,711
413,70	18,199
413,92	20,000
414,13	13,238
414,34	14,545
414,56	15,000
414,77	20,503
414,98	19,813
415,20	11,089
415,41	22,242
415,63	10,251
415,84	15,704
416,05	24,752
416,27	10,219
416,48	17,127
416,69	21,291
416,91	15,446
417,12	10,667
417,33	19,476
417,55	15,206
417,76	23,374
417,97	23,224
418,19	15,169
418,40	12,500
418,61	17,803
418,83	20,787
419,04	19,859
419,25	23,333
419,46	22,263
419,68	20,806
419,89	13,251
420,10	21,053
420,32	23,338
420,53	7,329
420,74	16,611
420,96	17,411
421,17	22,821
421,38	13,662
421,60	19,749
421,81	14,848
422,02	19,313
422,23	13,177
422,45	13,725
422,66	14,887
422,87	14,694
423,09	13,323
423,30	10,592
423,51	6,522
423,73	10,345
423,94	22,727
424,15	17,697
424,36	11,078
424,58	14,768
424,79	13,624
425,00	19,015
425,22	16,329
425,43	13,673
425,64	10,725
425,85	22,763
426,07	14,714
426,28	14,027
426,49	15,796
426,71	16,037
426,92	13,642
427,13	14,449
427,34	17,332
427,56	13,741
427,77	20,361
427,98	14,412
428,19	20,141
428,41	18,778
428,62	13,741
428,83	14,802
429,04	14,931
429,26	20,533
429,47	12,311
429,68	12,563
429,89	11,647
430,11	15,770
430,32	13,636
430,53	11,155
430,74	10,952
430,96	14,070
431,17	12,925
431,38	17,811
431,59	14,181
431,81	16,548
432,02	17,210
432,23	16,915
432,44	11,358
432,66	12,748
432,87	13,415
433,08	14,455
433,29	12,564
433,51	13,833
433,72	11,727
433,93	14,416
434,14	14,764
434,35	13,591
434,57	12,519
434,78	9,409
434,99	11,994
435,20	13,182
435,42	12,941
435,63	12,630
435,84	14,795
436,05	9,285
436,26	10,978
436,48	13,191
436,69	11,909
436,90	11,043
437,11	13,971
437,32	12,094
437,54	7,679
437,75	9,107
437,96	11,806
438,17	11,616
438,38	11,611
438,60	9,341
438,81	11,213
439,02	9,039
439,23	12,422
439,44	8,671
439,66	10,685
439,87	8,928
440,08	9,142
440,29	9,931
440,50	9,967
440,72	7,580
440,93	8,580
441,14	7,825
441,35	8,708
441,56	8,980
441,77	8,000
441,99	9,716
442,20	7,677
442,41	8,259
442,62	8,545
442,83	8,773
443,04	7,877
443,26	7,497
443,47	8,369
443,68	6,095
443,89	8,803
444,10	6,552
444,31	6,941
444,53	6,858
444,74	6,990
444,95	7,068
445,16	6,062
445,37	7,306
445,58	6,350
445,80	7,749
446,01	6,924
446,22	5,647
446,43	5,937
446,64	6,306
446,85	6,929
447,06	7,406
447,28	6,609
447,49	5,681
447,70	4,904
447,91	5,447
448,12	5,099
448,33	6,139
448,54	5,992
448,76	4,370
448,97	6,233
449,18	5,209
449,39	4,880
449,60	4,753
449,81	5,622
450,02	5,605
450,23	4,822
450,45	4,738
450,66	4,868
450,87	4,432
451,08	5,210
451,29	4,386
451,50	3,895
451,71	4,270
451,92	3,832
452,13	4,194
452,35	4,669
452,56	3,674
452,77	4,177
452,98	4,090
453,19	4,135
453,40	3,956
453,61	3,209
453,82	3,652
454,03	3,528
454,25	3,230
454,46	3,120
454,67	3,402
454,88	2,640
455,09	2,646
455,30	3,403
455,51	2,600
455,72	2,452
455,93	3,485
456,14	3,410
456,35	2,723
456,56	2,982
456,78	3,048
456,99	2,974
457,20	3,086
457,41	2,729
457,62	3,074
457,83	2,691
458,04	2,174
458,25	3,018
458,46	2,260
458,67	2,674
458,88	2,261
459,09	2,226
459,30	2,424
459,51	2,107
459,73	2,262
459,94	2,305
460,15	2,257
460,36	2,086
460,57	2,195
460,78	2,569
460,99	2,202
461,20	1,988
461,41	1,838
461,62	1,867
461,83	2,391
462,04	2,188
462,25	2,008
462,46	2,166
462,67	2,108
462,88	1,954
463,09	1,935
463,30	1,983
463,51	1,970
463,72	1,917
463,93	2,316
464,15	1,750
464,36	2,194
464,57	1,910
464,78	2,056
464,99	2,088
465,20	1,821
465,41	2,118
465,62	2,251
465,83	2,048
466,04	1,679
466,25	2,129
466,46	1,878
466,67	1,984
466,88	1,853
467,09	2,060
467,30	1,913
467,51	1,829
467,72	2,056
467,93	2,000
468,14	1,881
468,35	1,920
468,56	1,985
468,77	2,177
468,98	2,204
469,19	1,920
469,40	2,034
469,61	2,250
469,82	1,959
470,03	2,060
470,24	2,014
470,45	2,351
470,66	2,257
470,87	2,376
471,08	2,193
471,29	2,269
471,50	2,145
471,71	2,166
471,92	2,167
472,13	2,372
472,34	2,573
472,55	2,626
472,76	2,242
472,97	2,539
473,18	2,530
473,39	2,619
473,60	2,763
473,81	2,601
474,01	2,640
474,22	2,450
474,43	2,861
474,64	2,800
474,85	2,808
475,06	2,741
475,27	2,795
475,48	2,865
475,69	3,129
475,90	3,109
476,11	3,099
476,32	3,150
476,53	3,494
476,74	3,265
476,95	3,388
477,16	3,326
477,37	3,546
477,58	3,595
477,79	3,480
478,00	3,472
478,21	3,884
478,41	3,578
478,62	3,397
478,83	3,341
479,04	3,726
479,25	3,541
479,46	3,551
479,67	4,007
479,88	3,697
480,09	3,650
480,30	3,896
480,51	3,823
480,72	4,198
480,93	4,016
481,14	3,874
481,34	4,138
481,55	3,896
481,76	3,759
481,97	3,924
482,18	4,267
482,39	4,072
482,60	4,182
482,81	4,286
483,02	4,516
483,23	4,280
483,44	4,259
483,65	4,246
483,85	4,219
484,06	4,562
484,27	4,231
484,48	4,531
484,69	4,349
484,90	4,637
485,11	4,170
485,32	4,615
485,53	4,440
485,73	4,438
485,94	4,707
486,15	4,337
486,36	4,693
486,57	4,617
486,78	4,719
486,99	4,693
487,20	4,635
487,41	4,654
487,61	4,591
487,82	4,668
488,03	4,709
488,24	4,716
488,45	4,639
488,66	4,674
488,87	4,700
489,08	4,471
489,28	5,090
489,49	4,835
489,70	5,109
489,91	4,945
490,12	4,957
490,33	4,798
490,54	4,685
490,74	4,809
490,95	5,048
491,16	5,375
491,37	4,769
491,58	4,986
491,79	5,080
492,00	4,743
492,20	5,255
492,41	4,995
492,62	5,136
492,83	4,943
493,04	5,544
493,25	5,441
493,45	5,283
493,66	5,474
493,87	5,093
494,08	5,141
494,29	4,951
494,50	5,183
494,70	5,159
494,91	5,317
495,12	5,491
495,33	5,396
495,54	5,517
495,75	5,555
495,95	5,402
496,16	5,817
496,37	5,513
496,58	5,445
496,79	5,377
496,99	5,320
497,20	5,298
497,41	5,586
497,62	5,523
497,83	5,358
498,04	5,399
498,24	5,679
498,45	5,411
498,66	5,986
498,87	5,668
499,08	5,989
499,28	5,260
499,49	5,761
499,70	5,603
499,91	5,844
500,12	5,916
500,32	5,630
500,53	5,395
500,74	6,169
500,95	5,883
501,15	6,017
501,36	6,180
501,57	5,582
501,78	5,731
501,99	5,788
502,19	6,096
502,40	6,076
502,61	5,999
502,82	6,263
503,02	5,704
503,23	6,202
503,44	6,078
503,65	6,022
503,86	6,370
504,06	6,007
504,27	6,350
504,48	6,212
504,69	6,399
504,89	5,733
505,10	6,528
505,31	6,513
505,52	6,363
505,72	6,315
505,93	6,513
506,14	6,213
506,35	6,502
506,55	6,061
506,76	6,392
506,97	6,423
507,18	6,896
507,38	6,695
507,59	6,502
507,80	6,746
508,01	6,482
508,21	6,668
508,42	6,482
508,63	7,033
508,84	6,563
509,04	6,706
509,25	6,770
509,46	6,639
509,67	6,779
509,87	6,640
510,08	6,624
510,29	6,771
510,49	6,726
510,70	7,138
510,91	6,952
511,12	6,849
511,32	7,236
511,53	6,904
511,74	7,039
511,94	7,068
512,15	6,796
512,36	7,242
512,57	7,227
512,77	7,094
512,98	7,250
513,19	7,219
513,39	7,249
513,60	6,997
513,81	7,345
514,01	7,132
514,22	7,141
514,43	7,334
514,64	7,272
514,84	7,314
515,05	7,668
515,26	7,440
515,46	7,429
515,67	7,694
515,88	7,553
516,08	7,564
516,29	7,519
516,50	7,665
516,70	7,881
516,91	8,105
517,12	7,857
517,32	7,639
517,53	7,909
517,74	7,717
517,95	7,792
518,15	7,636
518,36	8,001
518,57	8,181
518,77	7,999
518,98	8,292
519,19	8,290
519,39	8,034
519,60	8,094
519,80	8,114
520,01	8,362
520,22	8,192
520,42	8,176
520,63	8,349
520,84	8,047
521,04	8,621
521,25	8,578
521,46	8,564
521,66	8,288
521,87	8,455
522,08	8,739
522,28	8,606
522,49	8,738
522,70	8,917
522,90	8,909
523,11	8,788
523,31	8,902
523,52	9,014
523,73	8,507
523,93	9,086
524,14	8,904
524,35	9,238
524,55	9,357
524,76	9,284
524,97	9,228
525,17	9,051
525,38	9,425
525,58	9,569
525,79	9,838
526,00	9,774
526,20	9,803
526,41	9,699
526,61	9,710
526,82	9,645
527,03	9,891
527,23	9,946
527,44	9,871
527,64	10,047
527,85	9,928
528,06	10,218
528,26	10,120
528,47	10,206
528,68	9,936
528,88	9,932
529,09	9,840
529,29	10,197
529,50	10,225
529,70	10,264
529,91	10,043
530,12	10,433
530,32	10,234
530,53	10,600
530,73	10,516
530,94	10,570
531,15	10,352
531,35	10,530
531,56	11,177
531,76	11,082
531,97	10,837
532,17	10,807
532,38	11,090
532,59	10,968
532,79	11,143
533,00	11,254
533,20	11,396
533,41	10,816
533,61	11,248
533,82	11,397
534,03	11,234
534,23	11,351
534,44	11,325
534,64	11,347
534,85	11,922
535,05	12,068
535,26	11,991
535,46	11,900
535,67	12,203
535,88	12,061
536,08	12,081
536,29	12,070
536,49	11,904
536,70	11,927
536,90	11,780
537,11	12,155
537,31	11,862
537,52	12,492
537,72	12,389
537,93	12,176
538,13	12,443
538,34	12,305
538,55	12,897
538,75	12,173
538,96	12,256
539,16	12,347
539,37	12,584
539,57	12,172
539,78	11,996
539,98	12,558
540,19	12,686
540,39	12,605
540,60	12,988
540,80	12,960
541,01	12,505
541,21	12,466
541,42	12,665
541,62	12,970
541,83	12,672
542,03	12,858
542,24	13,143
542,44	13,091
542,65	12,773
542,85	12,963
543,06	13,315
543,26	13,099
543,47	13,456
543,67	13,755
543,88	13,350
544,08	13,322
544,29	13,395
544,49	13,550
544,70	13,035
544,90	13,406
545,11	13,309
545,31	13,989
545,52	13,780
545,72	13,741
545,93	14,120
546,13	14,190
546,34	14,015
546,54	14,499
546,75	13,432
546,95	13,923
547,15	14,098
547,36	13,914
547,56	14,250
547,77	14,102
547,97	14,104
548,18	13,990
548,38	14,529
548,59	14,130
548,79	14,273
549,00	14,601
549,20	14,152
549,41	14,780
549,61	14,613
549,81	14,405
550,02	14,452
550,22	14,519
550,43	14,691
550,63	14,487
550,84	14,924
551,04	14,623
551,25	14,618
551,45	14,405
551,65	14,769
551,86	14,189
552,06	15,113
552,27	14,338
552,47	14,735
552,68	14,777
552,88	14,962
553,08	14,459
553,29	14,787
553,49	14,421
553,70	14,335
553,90	14,322
554,11	14,582
554,31	15,186
554,51	14,963
554,72	14,773
554,92	14,982
555,13	15,437
555,33	15,312
555,53	15,246
555,74	15,207
555,94	14,995
556,15	15,320
556,35	15,668
556,56	15,105
556,76	15,368
556,96	14,895
557,17	15,284
557,37	15,279
557,58	15,208
557,78	15,055
557,98	14,709
558,19	14,995
558,39	15,557
558,59	14,887
558,80	14,963
559,00	15,586
559,21	15,682
559,41	14,992
559,61	15,234
559,82	15,764
560,02	15,263
560,23	15,418
560,43	15,327
560,63	14,917
560,84	15,449
561,04	15,296
561,24	15,400
561,45	15,132
561,65	14,595
561,85	15,597
562,06	15,331
562,26	15,476
562,47	15,101
562,67	15,584
562,87	15,534
563,08	15,648
563,28	15,615
563,48	15,398
563,69	15,572
563,89	15,804
564,09	15,645
564,30	15,461
564,50	15,072
564,70	15,857
564,91	15,679
565,11	15,310
565,31	15,749
565,52	15,733
565,72	15,854
565,92	15,668
566,13	15,341
566,33	15,584
566,53	15,669
566,74	15,791
566,94	15,227
567,14	15,522
567,35	15,361
567,55	15,518
567,75	15,894
567,96	15,420
568,16	16,066
568,36	15,407
568,57	15,988
568,77	15,114
568,97	15,900
569,18	15,901
569,38	15,764
569,58	15,506
569,79	15,856
569,99	16,411
570,19	15,725
570,39	16,249
570,60	15,932
570,80	15,931
571,00	15,716
571,21	15,472
571,41	15,937
571,61	16,088
571,82	16,235
572,02	16,079
572,22	15,697
572,42	16,391
572,63	15,290
572,83	15,800
573,03	15,469
573,24	15,781
573,44	15,373
573,64	15,988
573,84	15,482
574,05	15,699
574,25	16,052
574,45	15,483
574,66	14,989
574,86	15,774
575,06	16,156
575,26	15,695
575,47	15,668
575,67	16,460
575,87	15,978
576,07	16,193
576,28	15,371
576,48	16,115
576,68	15,948
576,88	15,256
577,09	15,249
577,29	15,665
577,49	15,499
577,69	15,914
577,90	16,167
578,10	15,856
578,30	15,330
578,50	15,402
578,71	15,573
578,91	16,110
579,11	15,612
579,31	16,029
579,52	15,651
579,72	15,871
579,92	16,174
580,12	16,589
580,33	15,827
580,53	15,922
580,73	16,230
580,93	16,615
581,13	17,403
581,34	16,777
581,54	16,847
581,74	16,990
581,94	17,116
582,15	17,478
582,35	17,218
582,55	17,430
582,75	17,525
582,95	17,677
583,16	17,638
583,36	17,210
583,56	17,634
583,76	17,608
583,96	18,387
584,17	18,379
584,37	17,836
584,57	18,532
584,77	17,825
584,97	18,115
585,18	18,699
585,38	18,186
585,58	18,197
585,78	18,162
585,98	18,420
586,19	18,477
586,39	18,602
586,59	18,926
586,79	18,280
586,99	18,653
587,20	19,435
587,40	19,098
587,60	18,473
587,80	18,706
588,00	18,449
588,20	18,329
588,41	18,687
588,61	18,736
588,81	18,711
589,01	19,126
589,21	19,037
589,41	18,616
589,62	19,308
589,82	19,624
590,02	19,054
590,22	18,844
590,42	19,066
590,62	18,784
590,83	19,111
591,03	18,870
591,23	18,907
591,43	19,121
591,63	18,937
591,83	18,970
592,03	19,074
592,24	19,105
592,44	18,672
592,64	19,066
592,84	18,491
593,04	19,207
593,24	19,038
593,44	19,414
593,65	18,713
593,85	18,693
594,05	18,873
594,25	18,292
594,45	18,865
594,65	18,970
594,85	18,895
595,06	18,531
595,26	18,847
595,46	19,221
595,66	19,610
595,86	19,318
596,06	19,899
596,26	19,883
596,46	20,042
596,66	20,180
596,87	21,416
597,07	21,589
597,27	21,442
597,47	21,975
597,67	22,558
597,87	22,639
598,07	24,074
598,27	24,462
598,47	24,653
598,67	24,938
598,88	25,671
599,08	26,459
599,28	26,804
599,48	26,968
599,68	27,969
599,88	28,232
600,08	28,770
600,28	29,301
600,48	29,500
600,68	30,116
600,88	30,373
601,09	30,919
601,29	31,100
601,49	31,453
601,69	31,130
601,89	31,620
602,09	32,518
602,29	32,406
602,49	31,893
602,69	32,067
602,89	32,272
603,09	31,919
603,29	32,473
603,49	31,962
603,69	32,514
603,90	32,320
604,10	32,211
604,30	32,363
604,50	33,069
604,70	31,887
604,90	32,746
605,10	33,082
605,30	33,007
605,50	33,173
605,70	33,877
605,90	33,717
606,10	33,677
606,30	32,904
606,50	33,560
606,70	33,428
606,90	32,596
607,10	33,679
607,30	33,446
607,50	33,399
607,70	33,510
607,90	33,740
608,10	32,534
608,30	32,959
608,50	31,782
608,70	31,727
608,90	31,860
609,11	31,534
609,31	31,503
609,51	30,800
609,71	30,428
609,91	29,851
610,11	28,674
610,31	27,611
610,51	27,283
610,71	26,707
610,91	25,780
611,11	25,175
611,31	24,441
611,51	24,056
611,71	23,521
611,91	22,798
612,11	22,939
612,31	21,391
612,51	21,931
612,71	21,519
612,91	20,941
613,11	20,245
613,31	19,716
613,51	19,745
613,71	18,741
613,91	18,867
614,11	18,797
614,31	18,559
614,50	18,771
614,70	18,262
614,90	18,466
615,10	18,944
615,30	18,874
615,50	19,322
615,70	19,592
615,90	20,250
616,10	20,727
616,30	21,103
616,50	21,937
616,70	23,310
616,90	23,689
617,10	24,674
617,30	26,201
617,50	26,290
617,70	26,825
617,90	27,786
618,10	28,303
618,30	29,292
618,50	29,828
618,70	30,781
618,90	32,072
619,10	32,728
619,30	33,357
619,49	33,802
619,69	33,721
619,89	34,186
620,09	34,129
620,29	34,720
620,49	35,068
620,69	35,000
620,89	34,624
621,09	34,904
621,29	34,728
621,49	35,095
621,69	34,944
621,89	34,761
622,09	34,043
622,29	34,569
622,48	33,532
622,68	33,840
622,88	33,111
623,08	32,479
623,28	32,644
623,48	31,506
623,68	31,131
623,88	29,679
624,08	29,023
624,28	29,289
624,48	28,499
624,67	27,092
624,87	27,032
625,07	26,101
625,27	25,442
625,47	24,813
625,67	24,722
625,87	23,801
626,07	23,484
626,27	22,141
626,47	21,963
626,66	21,337
626,86	20,745
627,06	20,442
627,26	19,781
627,46	19,568
627,66	19,385
627,86	19,057
628,06	18,832
628,25	18,311
628,45	17,748
628,65	17,859
628,85	17,826
629,05	17,317
629,25	17,273
629,45	17,317
629,65	17,594
629,84	17,607
630,04	17,421
630,24	17,445
630,44	18,056
630,64	17,601
630,84	18,138
631,04	17,627
631,23	17,505
631,43	17,609
631,63	17,429
631,83	16,815
632,03	17,301
632,23	17,308
632,42	17,124
632,62	17,174
632,82	17,274
633,02	17,158
633,22	17,523
633,42	17,050
633,62	17,338
633,81	16,770
634,01	17,384
634,21	17,253
634,41	16,949
634,61	17,289
634,80	17,059
635,00	16,953
635,20	17,676
635,40	17,180
635,60	16,895
635,80	17,070
635,99	16,617
636,19	16,965
636,39	16,896
636,59	17,149
636,79	16,964
636,98	17,235
637,18	17,310
637,38	17,057
637,58	16,721
637,78	17,149
637,97	16,572
638,17	17,287
638,37	17,231
638,57	17,205
638,77	17,102
638,96	17,510
639,16	17,466
639,36	17,088
639,56	17,037
639,76	17,398
639,95	17,542
640,15	17,433
640,35	17,339
640,55	16,989
640,75	17,396
640,94	16,929
641,14	17,027
641,34	17,460
641,54	16,698
641,73	16,429
641,93	16,788
642,13	16,591
642,33	17,397
642,53	17,180
642,72	16,943
642,92	16,878
643,12	16,612
643,32	16,618
643,51	16,622
643,71	16,553
643,91	16,963
644,11	16,729
644,30	17,265
644,50	16,997
644,70	16,570
644,90	16,773
645,09	17,027
645,29	16,851
645,49	16,904
645,69	16,504
645,88	16,842
646,08	16,900
646,28	16,869
646,48	17,088
646,67	17,127
646,87	17,036
647,07	16,255
647,26	16,924
647,46	16,804
647,66	16,993
647,86	16,446
648,05	16,611
648,25	17,400
648,45	16,684
648,65	16,953
648,84	17,138
649,04	17,005
649,24	17,303
649,43	16,709
649,63	17,091
649,83	17,068
650,03	16,628
650,22	16,757
650,42	16,596
650,62	16,578
650,81	16,320
651,01	16,715
651,21	16,320
651,40	16,222
651,60	15,959
651,80	16,704
652,00	16,839
652,19	16,861
652,39	16,692
652,59	16,534
652,78	16,422
652,98	16,589
653,18	16,605
653,37	16,807
653,57	16,840
653,77	16,695
653,96	16,873
654,16	16,612
654,36	16,697
654,55	16,123
654,75	16,383
654,95	16,377
655,14	16,723
655,34	16,275
655,54	16,747
655,73	16,234
655,93	16,983
656,13	16,506
656,32	16,568
656,52	16,689
656,72	16,671
656,91	16,358
657,11	16,336
657,31	16,853
657,50	16,660
657,70	16,336
657,90	16,452
658,09	16,331
658,29	15,972
658,49	16,134
658,68	16,274
658,88	16,343
659,07	16,068
659,27	16,313
659,47	16,459
659,66	15,781
659,86	16,403
660,06	16,597
660,25	16,544
660,45	16,772
660,64	16,440
660,84	16,351
661,04	16,511
661,23	16,468
661,43	16,678
661,63	16,219
661,82	16,443
662,02	16,413
662,21	16,281
662,41	16,430
662,61	16,429
662,80	16,123
663,00	16,414
663,19	16,277
663,39	16,596
663,59	16,286
663,78	16,008
663,98	16,464
664,17	16,216
664,37	16,822
664,57	16,438
664,76	16,243
664,96	16,324
665,15	16,606
665,35	16,701
665,55	16,274
665,74	16,959
665,94	16,601
666,13	16,446
666,33	16,700
666,53	16,802
666,72	17,302
666,92	16,562
667,11	16,965
667,31	16,884
667,50	16,718
667,70	16,708
667,90	16,384
668,09	16,380
668,29	16,434
668,48	15,839
668,68	15,859
668,87	16,064
669,07	16,470
669,26	16,255
669,46	16,030
669,66	16,070
669,85	16,110
670,05	16,337
670,24	15,935
670,44	15,881
670,63	16,022
670,83	16,585
671,02	15,989
671,22	16,661
671,42	15,954
671,61	16,776
671,81	16,300
672,00	16,908
672,20	16,653
672,39	16,656
672,59	16,559
672,78	16,290
672,98	16,441
673,17	16,040
673,37	16,249
673,56	16,311
673,76	16,267
673,95	16,435
674,15	16,674
674,34	16,445
674,54	16,182
674,73	15,977
674,93	16,387
675,13	16,223
675,32	16,483
675,52	16,086
675,71	16,144
675,91	16,187
676,10	16,113
676,30	16,689
676,49	16,686
676,69	16,167
676,88	16,796
677,08	16,058
677,27	16,532
677,47	16,798
677,66	16,523
677,86	16,636
678,05	16,347
678,24	16,649
678,44	16,560
678,63	16,222
678,83	16,833
679,02	16,605
679,22	16,533
679,41	16,807
679,61	16,205
679,80	16,722
680,00	16,567
680,19	17,071
680,39	17,054
680,58	16,634
680,78	16,662
680,97	16,410
681,17	16,315
681,36	16,348
681,56	16,560
681,75	16,605
681,94	16,384
682,14	16,531
682,33	16,389
682,53	16,376
682,72	16,344
682,92	16,160
683,11	16,822
683,31	16,605
683,50	16,736
683,69	16,612
683,89	16,726
684,08	16,939
684,28	16,401
684,47	16,544
684,67	16,408
684,86	16,281
685,06	16,201
685,25	16,198
685,44	16,465
685,64	16,147
685,83	16,965
686,03	16,358
686,22	16,408
686,42	16,444
686,61	16,455
686,80	16,453
687,00	16,446
687,19	16,738
687,39	16,965
687,58	16,381
687,77	16,965
687,97	16,707
688,16	16,767
688,36	16,563
688,55	16,543
688,74	16,441
688,94	16,227
689,13	16,361
689,33	16,312
689,52	16,650
689,71	16,954
689,91	16,452
690,10	16,643
690,30	16,494
690,49	16,625
690,68	16,786
690,88	16,476
691,07	16,392
691,27	16,422
691,46	16,767
691,65	16,122
691,85	16,099
692,04	16,245
692,23	16,671
692,43	16,704
692,62	16,203
692,82	16,707
693,01	16,348
693,20	16,448
693,40	15,760
693,59	16,634
693,78	16,484
693,98	16,019
694,17	16,287
694,36	16,042
694,56	16,331
694,75	16,789
694,94	16,324
695,14	16,359
695,33	16,319
695,53	16,417
695,72	16,584
695,91	16,311
696,11	17,065
696,30	16,598
696,49	16,189
696,69	16,077
696,88	16,151
697,07	16,500
697,27	16,142
697,46	16,695
697,65	16,772
697,85	16,531
698,04	16,916
698,23	16,452
698,43	16,633
698,62	16,510
698,81	16,583
699,01	16,188
699,20	15,747
699,39	15,899
699,58	15,893
699,78	15,767
699,97	15,698
700,16	16,000
700,36	15,989
700,55	16,213
700,74	16,019
700,94	16,147
701,13	16,696
701,32	16,374
701,52	16,369
701,71	16,774
701,90	16,484
702,09	16,300
702,29	16,729
702,48	16,517
702,67	16,635
702,87	16,266
703,06	16,336
703,25	16,207
703,44	16,280
703,64	16,339
703,83	16,615
704,02	16,163
704,22	16,113
704,41	16,500
704,60	16,438
704,79	16,443
704,99	16,163
705,18	16,346
705,37	16,837
705,56	16,454
705,76	16,227
705,95	16,169
706,14	16,024
706,33	16,591
706,53	16,200
706,72	16,418
706,91	16,560
707,11	15,868
707,30	16,153
707,49	16,078
707,68	15,981
707,88	16,087
708,07	16,589
708,26	16,369
708,45	16,300
708,64	16,489
708,84	16,453
709,03	16,459
709,22	16,606
709,41	16,914
709,61	16,718
709,80	16,939
709,99	17,119
710,18	16,666
710,38	16,552
710,57	16,411
710,76	16,249
710,95	16,796
711,14	16,264
711,34	16,697
711,53	16,324
711,72	16,664
711,91	16,992
712,11	16,306
712,30	16,752
712,49	16,663
712,68	16,261
712,87	16,679
713,07	16,946
713,26	16,672
713,45	16,944
713,64	17,051
713,83	17,128
714,03	16,961
714,22	16,691
714,41	17,100
714,60	16,800
714,79	16,980
714,99	17,092
715,18	17,255
715,37	17,141
715,56	17,704
715,75	17,755
715,94	17,622
716,14	17,282
716,33	17,318
716,52	16,891
716,71	17,479
716,90	17,123
717,10	17,386
717,29	17,157
717,48	17,477
717,67	17,670
717,86	17,690
718,05	17,584
718,24	17,221
718,44	17,899
718,63	17,294
718,82	17,672
719,01	17,516
719,20	17,412
719,39	17,535
719,59	17,474
719,78	17,593
719,97	17,494
720,16	17,745
720,35	17,693
720,54	18,293
720,73	18,082
720,93	17,621
721,12	18,283
721,31	18,739
721,50	18,220
721,69	18,856
721,88	18,516
722,07	19,172
722,27	18,905
722,46	19,168
722,65	19,675
722,84	19,855
723,03	19,904
723,22	19,729
723,41	20,941
723,60	20,865
723,79	20,857
723,99	21,447
724,18	21,899
724,37	22,473
724,56	23,370
724,75	23,761
724,94	24,273
725,13	24,786
725,32	25,551
725,51	25,968
725,71	26,849
725,90	27,154
726,09	27,611
726,28	28,564
726,47	29,172
726,66	29,948
726,85	30,841
727,04	31,153
727,23	31,997
727,42	32,825
727,61	33,446
727,81	34,496
728,00	35,188
728,19	35,307
728,38	35,936
728,57	36,132
728,76	36,805
728,95	36,803
729,14	37,104
729,33	38,244
729,52	37,331
729,71	38,006
729,90	38,670
730,09	37,760
730,28	38,037
730,48	37,902
730,67	39,079
730,86	38,194
731,05	38,376
731,24	37,778
731,43	37,962
731,62	38,465
731,81	37,777
732,00	37,534
732,19	37,790
732,38	37,531
732,57	37,008
732,76	36,708
732,95	36,663
733,14	36,734
733,33	36,008
733,52	37,389
733,71	36,542
733,90	36,318
734,09	36,374
734,28	36,749
734,47	36,527
734,66	36,236
734,85	36,289
735,04	36,433
735,23	36,392
735,42	35,858
735,61	36,613
735,81	35,685
736,00	35,956
736,19	35,968
736,38	35,464
736,57	35,566
736,76	35,027
736,95	35,530
737,14	34,710
737,33	34,792
737,52	34,232
737,71	35,984
737,90	35,061
738,09	34,903
738,28	35,251
738,47	35,347
738,66	34,953
738,85	34,861
739,04	34,422
739,22	34,910
739,41	34,443
739,60	34,750
739,79	34,703
739,98	34,648
740,17	34,880
740,36	34,771
740,55	34,352
740,74	35,024
740,93	34,116
741,12	34,014
741,31	33,366
741,50	34,493
741,69	33,849
741,88	34,218
742,07	33,288
742,26	33,163
742,45	33,538
742,64	33,687
742,83	33,102
743,02	32,787
743,21	32,651
743,40	32,743
743,59	32,563
743,78	32,423
743,97	32,434
744,16	31,092
744,34	30,734
744,53	30,627
744,72	30,530
744,91	30,092
745,10	29,737
745,29	29,143
745,48	28,786
745,67	28,512
745,86	27,991
746,05	27,544
746,24	27,616
746,43	27,214
746,62	26,978
746,81	26,195
747,00	25,298
747,18	25,039
747,37	24,071
747,56	23,664
747,75	23,255
747,94	22,424
748,13	21,760
748,32	21,580
748,51	20,995
748,70	20,379
748,89	19,897
749,08	19,094
749,26	19,439
749,45	18,411
749,64	18,308
749,83	17,960
750,02	18,153
750,21	17,558
750,40	17,139
750,59	17,267
750,78	17,712
750,96	17,301
751,15	17,458
751,34	16,566
751,53	17,101
751,72	16,980
751,91	16,440
752,10	16,632
752,29	16,872
752,47	16,463
752,66	16,474
752,85	16,950
753,04	17,544
753,23	16,889
753,42	16,739
753,61	16,665
753,80	17,039
753,98	16,671
754,17	16,635
754,36	16,629
754,55	16,656
754,74	17,004
754,93	16,809
755,12	17,002
755,30	16,389
755,49	16,609
755,68	16,715
755,87	17,021
756,06	17,032
756,25	16,797
756,43	16,823
756,62	16,946
756,81	17,130
757,00	16,787
757,19	16,329
757,38	16,554
757,56	16,260
757,75	16,875
757,94	16,393
758,13	16,280
758,32	16,557
758,51	16,143
758,69	15,881
758,88	16,932
759,07	16,884
759,26	16,384
759,45	16,305
759,63	16,879
759,82	16,223
760,01	16,666
760,20	16,625
760,39	16,323
760,57	16,336
760,76	16,500
760,95	17,108
761,14	16,698
761,33	16,539
761,51	16,056
761,70	16,330
761,89	15,924
762,08	16,316
762,27	16,376
762,45	16,240
762,64	16,893
762,83	16,487
763,02	16,796
763,21	16,604
763,39	16,608
763,58	16,676
763,77	17,303
763,96	16,985
764,14	16,634
764,33	17,026
764,52	16,656
764,71	16,893
764,89	16,392
765,08	16,082
765,27	16,412
765,46	17,465
765,65	16,866
765,83	16,770
766,02	17,148
766,21	17,009
766,40	16,495
766,58	16,948
766,77	16,890
766,96	16,039
767,15	17,249
767,33	16,419
767,52	16,557
767,71	16,533
767,90	16,239
768,08	16,320
768,27	16,328
768,46	16,097
768,64	15,890
768,83	16,595
769,02	15,627
769,21	16,026
769,39	16,272
769,58	16,089
769,77	16,366
769,96	16,080
770,14	15,978
770,33	16,208
770,52	16,033
770,70	16,445
770,89	15,400
771,08	16,060
771,27	16,167
771,45	16,094
771,64	15,514
771,83	15,959
772,01	15,722
772,20	15,770
772,39	16,705
772,57	16,409
772,76	16,572
772,95	15,784
773,14	16,158
773,32	16,289
773,51	16,127
773,70	16,215
773,88	16,460
774,07	16,544
774,26	16,378
774,44	16,268
774,63	16,781
774,82	17,086
775,00	16,354
775,19	16,955
775,38	16,285
775,56	16,440
775,75	16,315
775,94	16,442
776,12	15,779
776,31	16,488
776,50	16,289
776,68	15,858
776,87	16,434
777,06	16,429
777,24	16,467
777,43	16,012
777,62	16,010
777,80	16,348
777,99	16,078
778,18	16,019
778,36	16,559
778,55	15,773
778,74	15,770
778,92	15,586
779,11	15,470
779,29	15,902
779,48	16,133
779,67	16,154
779,85	16,066
780,04	16,182
780,23	16,383
780,41	15,451
780,60	15,923
780,79	15,872
780,97	16,198
781,16	16,203
781,34	15,614
781,53	16,343
781,72	16,349
781,90	16,042
782,09	16,429
782,28	16,421
782,46	15,619
782,65	16,243
782,83	15,764
783,02	15,881
783,21	15,694
783,39	15,824
783,58	16,072
783,76	15,754
783,95	16,294
784,14	15,600
784,32	15,707
784,51	15,764
784,69	15,299
784,88	15,472
785,06	16,053
785,25	15,731
785,44	15,642
785,62	15,799
785,81	15,756
785,99	16,037
786,18	15,832
786,37	16,206
786,55	16,230
786,74	16,377
786,92	16,703
787,11	15,922
787,29	15,734
787,48	15,049
787,67	15,690
787,85	15,949
788,04	15,314
788,22	15,271
788,41	15,649
788,59	15,999
788,78	15,527
788,96	16,379
789,15	16,033
789,34	15,844
789,52	16,176
789,71	16,103
789,89	16,436
790,08	16,082
790,26	16,536
790,45	16,116
790,63	16,700
790,82	16,939
791,00	16,703
791,19	15,836
791,38	16,022
791,56	15,933
791,75	16,299
791,93	16,722
792,12	16,211
792,30	16,640
792,49	17,105
792,67	16,299
792,86	16,513
793,04	16,183
793,23	16,354
793,41	16,705
793,60	16,579
793,78	16,890
793,97	17,036
794,15	16,360
794,34	16,213
794,52	16,382
794,71	17,198
794,89	16,692
795,08	16,896
795,26	16,834
795,45	17,248
795,63	17,255
795,82	16,702
796,00	16,611
796,19	17,572
796,37	15,951
796,56	16,119
796,74	16,094
796,93	15,690
797,11	16,409
797,30	16,554
797,48	16,473
797,67	16,701
797,85	16,277
798,04	16,496
798,22	16,074
798,41	16,479
798,59	16,339
798,77	16,532
798,96	16,279
799,14	16,846
799,33	16,474
799,51	16,178
799,70	16,738
799,88	16,114
800,07	16,320
800,25	16,996
800,44	16,383
800,62	16,158
800,80	16,588
800,99	15,970
801,17	16,745
801,36	17,282
801,54	16,858
801,73	17,099
801,91	17,492
802,10	17,427
802,28	17,774
802,46	17,759
802,65	17,857
802,83	18,244
803,02	17,806
803,20	17,771
803,39	18,182
803,57	17,570
803,75	17,545
803,94	18,068
804,12	17,389
804,31	17,327
804,49	17,972
804,67	17,610
804,86	17,412
805,04	17,195
805,23	17,938
805,41	18,139
805,59	17,587
805,78	17,693
805,96	17,761
806,15	17,350
806,33	17,940
806,51	17,224
806,70	16,842
806,88	17,166
807,07	17,371
807,25	17,074
807,43	16,711
807,62	17,218
807,80	17,656
807,99	17,454
808,17	16,981
808,35	17,962
808,54	17,553
808,72	17,559
808,90	18,347
809,09	17,539
809,27	18,008
809,46	18,454
809,64	18,172
809,82	17,921
810,01	18,302
810,19	17,816
810,37	18,495
810,56	18,543
810,74	17,971
810,92	18,294
811,11	18,680
811,29	19,661
811,48	19,071
811,66	20,109
811,84	20,084
812,03	20,022
812,21	20,046
812,39	21,191
812,58	20,461
812,76	21,366
812,94	21,778
813,13	21,728
813,31	22,470
813,49	23,526
813,68	22,865
813,86	23,681
814,04	24,329
814,23	24,391
814,41	25,250
814,59	25,183
814,78	26,498
814,96	26,715
815,14	27,891
815,33	28,748
815,51	29,303
815,69	29,572
815,87	30,385
816,06	30,974
816,24	30,775
816,42	32,073
816,61	32,916
816,79	32,992
816,97	32,759
817,16	34,272
817,34	34,062
817,52	35,006
817,70	35,488
817,89	35,358
818,07	34,873
818,25	35,802
818,44	36,180
818,62	37,127
818,80	37,170
818,98	36,858
819,17	37,943
819,35	37,918
819,53	37,341
819,72	36,914
819,90	37,425
820,08	37,315
820,26	37,721
820,45	38,364
820,63	37,381
820,81	38,240
820,99	38,234
821,18	37,448
821,36	37,270
821,54	37,525
821,73	38,396
821,91	38,893
822,09	37,455
822,27	38,074
822,46	37,778
822,64	36,559
822,82	36,984
823,00	36,970
823,19	36,891
823,37	37,146
823,55	36,832
823,73	36,873
823,91	36,715
824,10	36,490
824,28	36,079
824,46	37,594
824,64	37,034
824,83	35,943
825,01	35,442
825,19	35,068
825,37	35,440
825,56	34,616
825,74	34,686
825,92	35,777
826,10	35,083
826,28	35,640
826,47	34,748
826,65	35,500
826,83	34,942
827,01	36,128
827,19	36,543
827,38	35,261
827,56	35,311
827,74	35,019
827,92	34,086
828,10	34,538
828,29	34,132
828,47	33,600
828,65	33,530
828,83	32,817
829,01	32,873
829,20	32,673
829,38	32,552
829,56	32,275
829,74	32,329
829,92	32,801
830,10	33,597
830,29	34,202
830,47	33,339
830,65	33,377
830,83	33,045
831,01	33,719
831,20	32,680
831,38	32,779
831,56	33,333
831,74	33,280
831,92	33,339
832,10	33,295
832,29	33,507
832,47	32,665
832,65	32,559
832,83	32,645
833,01	33,384
833,19	32,884
833,37	32,924
833,56	33,212
833,74	32,525
833,92	32,004
834,10	31,651
834,28	31,160
834,46	31,539
834,64	30,848
834,83	30,222
835,01	29,882
835,19	30,013
835,37	29,207
835,55	29,383
835,73	29,036
835,91	28,194
836,09	27,466
836,28	26,657
836,46	26,482
836,64	25,807
836,82	25,211
837,00	24,587
837,18	24,792
837,36	23,630
837,54	23,455
837,72	22,905
837,91	21,904
838,09	21,735
838,27	21,070
838,45	20,143
838,63	20,466
838,81	19,584
838,99	19,238
839,17	19,373
839,35	19,026
839,53	19,037
839,72	18,967
839,90	17,908
840,08	18,352
840,26	17,360
840,44	17,641
840,62	17,350
840,80	17,038
840,98	17,275
841,16	17,592
841,34	17,288
841,52	17,254
841,70	16,770
841,89	16,565
842,07	16,240
842,25	16,244
842,43	16,133
842,61	17,021
842,79	15,983
842,97	16,297
843,15	16,361
843,33	16,055
843,51	16,326
843,69	15,593
843,87	16,152
844,05	16,665
844,23	16,564
844,41	16,646
844,59	15,916
844,77	16,822
844,95	16,049
845,13	16,818
845,31	15,862
845,50	16,219
845,68	16,612
845,86	15,650
846,04	16,077
846,22	15,961
846,40	16,335
846,58	16,074
846,76	16,665
846,94	16,253
847,12	16,035
847,30	15,355
847,48	15,953
847,66	16,300
847,84	15,693
848,02	15,789
848,20	16,364
848,38	15,239
848,56	15,654
848,74	16,018
848,92	15,603
849,10	15,419
849,28	15,558
849,46	15,426
849,64	15,744
849,82	15,662
850,00	15,570
850,18	15,515
850,36	16,793
850,54	14,704
850,72	15,799
850,90	16,246
851,08	15,505
851,26	16,218
851,44	15,686
851,62	14,983
851,80	15,542
851,98	16,059
852,16	15,702
852,34	15,652
852,52	14,713
852,70	15,048
852,87	14,853
853,05	15,394
853,23	14,867
853,41	15,501
853,59	15,304
853,77	15,268
853,95	14,668
854,13	14,761
854,31	15,147
854,49	15,361
854,67	15,178
854,85	15,754
855,03	15,669
855,21	15,186
855,39	15,428
855,57	15,839
855,75	15,664
855,93	15,275
856,11	14,642
856,28	14,953
856,46	14,518
856,64	15,244
856,82	14,442
857,00	15,015
857,18	15,380
857,36	15,083
857,54	14,501
857,72	14,503
857,90	14,915
858,08	15,567
858,26	15,167
858,44	15,276
858,61	15,868
858,79	14,807
858,97	15,144
859,15	14,972
859,33	15,694
859,51	15,201
859,69	14,664
859,87	15,045
860,05	14,475
860,23	14,791
860,40	15,628
860,58	15,069
860,76	14,955
860,94	15,400
861,12	14,862
861,30	14,556
861,48	15,207
861,66	14,642
861,84	15,346
862,01	15,485
862,19	15,545
862,37	15,284
862,55	15,098
862,73	15,152
862,91	14,941
863,09	14,314
863,27	15,056
863,44	15,596
863,62	14,880
863,80	15,208
863,98	14,612
864,16	14,845
864,34	14,728
864,52	14,934
864,69	15,422
864,87	14,830
865,05	14,429
865,23	14,609
865,41	15,134
865,59	15,510
865,76	14,822
865,94	15,015
866,12	15,361
866,30	14,501
866,48	14,608
866,66	14,656
866,83	14,931
867,01	14,085
867,19	14,847
867,37	15,070
867,55	14,528
867,73	14,193
867,90	14,401
868,08	15,357
868,26	13,717
868,44	14,016
868,62	14,474
868,79	14,926
868,97	14,340
869,15	14,176
869,33	13,582
869,51	14,868
869,69	14,089
869,86	14,194
870,04	14,338
870,22	14,392
870,40	14,621
870,57	14,120
870,75	13,714
870,93	14,153
871,11	14,369
871,29	13,986
871,46	14,098
871,64	14,172
871,82	14,600
872,00	14,718
872,18	14,284
872,35	14,561
872,53	15,103
872,71	14,483
872,89	14,163
873,06	14,325
873,24	14,128
873,42	14,273
873,60	14,527
873,77	13,807
873,95	14,136
874,13	14,277
874,31	14,801
874,49	13,647
874,66	15,014
874,84	14,267
875,02	14,532
875,20	14,297
875,37	14,859
875,55	14,140
875,73	13,359
875,91	13,694
876,08	14,032
876,26	14,372
876,44	14,159
876,61	14,273
876,79	14,626
876,97	14,116
877,15	13,918
877,32	13,493
877,50	13,576
877,68	14,172
877,86	13,896
878,03	14,665
878,21	14,278
878,39	13,672
878,56	14,023
878,74	14,167
878,92	14,038
879,10	14,408
879,27	14,918
879,45	14,560
879,63	14,068
879,80	14,849
879,98	14,583
880,16	13,951
880,34	14,490
880,51	14,156
880,69	14,091
880,87	13,708
881,04	13,783
881,22	13,981
881,40	13,932
881,57	14,095
881,75	15,288
881,93	14,406
882,10	14,075
882,28	13,868
882,46	14,601
882,63	13,671
882,81	13,787
882,99	14,108
883,16	13,149
883,34	14,228
883,52	14,140
883,69	14,004
883,87	13,238
884,05	13,360
884,22	13,172
884,40	13,661
884,58	14,082
884,75	13,740
884,93	13,749
885,11	13,540
885,28	13,741
885,46	13,676
885,64	13,135
885,81	13,693
885,99	13,522
886,17	13,542
886,34	13,253
886,52	13,138
886,70	13,413
886,87	13,400
887,05	13,458
887,22	13,157
887,40	13,644
887,58	13,761
887,75	13,492
887,93	14,221
888,11	12,802
888,28	13,488
888,46	12,786
888,63	13,250
888,81	13,102
888,99	12,453
889,16	13,395
889,34	13,168
889,51	13,018
889,69	13,399
889,87	13,318
890,04	12,543
890,22	12,624
890,39	12,956
890,57	12,493
890,75	13,202
890,92	13,243
891,10	12,779
891,27	12,477
891,45	12,915
891,63	12,822
891,80	12,326
891,98	13,540
892,15	13,002
892,33	12,380
892,51	12,876
892,68	11,985
892,86	13,284
893,03	13,308
893,21	12,728
893,38	13,349
893,56	12,463
893,74	12,429
893,91	13,292
894,09	12,606
894,26	12,709
894,44	12,677
894,61	12,085
894,79	12,578
894,96	12,105
895,14	12,373
895,32	13,070
895,49	12,257
895,67	12,503
895,84	11,573
896,02	12,037
896,19	12,075
896,37	11,930
896,54	13,148
896,72	11,946
896,89	12,539
897,07	12,109
897,25	12,129
897,42	11,995
897,60	12,520
897,77	12,354
897,95	11,694
898,12	12,379
898,30	11,679
898,47	11,804
898,65	11,583
898,82	11,960
899,00	12,150
899,17	11,987
899,35	11,564
899,52	12,371
899,70	11,519
899,87	12,096
900,05	11,706
900,22	11,963
900,40	11,621
900,57	12,354
900,75	11,753
900,92	10,748
901,10	11,262
901,27	11,128
901,45	12,217
901,62	11,106
901,80	11,522
901,97	11,878
902,15	11,336
902,32	11,550
902,50	10,843
902,67	11,030
902,85	11,865
903,02	11,632
903,20	11,336
903,37	11,396
903,54	11,174
903,72	10,886
903,89	11,636
904,07	11,806
904,24	10,851
904,42	11,505
904,59	11,974
904,77	11,180
904,94	11,207
905,12	11,613
905,29	11,879
905,47	11,048
905,64	12,013
905,81	11,448
905,99	10,995
906,16	11,456
906,34	11,358
906,51	10,715
906,69	11,101
906,86	11,199
907,03	11,303
907,21	11,179
907,38	12,029
907,56	11,311
907,73	11,446
907,91	11,420
908,08	10,953
908,25	11,486
908,43	11,680
908,60	11,033
908,78	11,809
908,95	11,388
909,13	11,210
909,30	9,846
909,47	10,525
909,65	11,464
909,82	11,283
910,00	10,831
910,17	10,424
910,34	11,540
910,52	10,217
910,69	10,661
910,87	9,877
911,04	10,453
911,21	10,736
911,39	10,522
911,56	9,889
911,73	10,550
911,91	10,177
912,08	10,356
912,26	10,595
912,43	10,668
912,60	10,894
912,78	10,679
912,95	10,726
913,13	10,204
913,30	10,599
913,47	9,953
913,65	10,687
913,82	11,735
913,99	9,708
914,17	10,733
914,34	10,281
914,51	10,559
914,69	10,383
914,86	10,839
915,03	10,300
915,21	10,303
915,38	10,060
915,56	10,152
915,73	10,396
915,90	9,851
916,08	10,376
916,25	10,496
916,42	10,404
916,60	9,632
916,77	9,625
916,94	9,886
917,12	9,711
917,29	9,594
917,46	10,019
917,64	9,821
917,81	9,872
917,98	9,865
918,16	9,293
918,33	9,982
918,50	9,901
918,67	9,716
918,85	9,456
919,02	10,157
919,19	10,121
919,37	9,656
919,54	10,357
919,71	9,488
919,89	9,388
920,06	9,561
920,23	9,531
920,41	9,882
920,58	9,894
920,75	9,457
920,92	9,359
921,10	9,477
921,27	9,245
921,44	9,647
921,62	9,344
921,79	9,752
921,96	10,092
922,13	10,225
922,31	9,543
922,48	9,819
922,65	9,445
922,82	10,206
923,00	9,947
923,17	9,151
923,34	9,486
923,52	9,053
923,69	8,612
923,86	9,428
924,03	8,647
924,21	8,809
924,38	9,120
924,55	8,585
924,72	8,149
924,90	8,739
925,07	9,470
925,24	8,393
925,41	8,679
925,59	8,473
925,76	9,208
925,93	8,477
926,10	8,198
926,28	8,799
926,45	8,366
926,62	8,850
926,79	8,769
926,96	8,320
927,14	9,481
927,31	9,366
927,48	8,242
927,65	8,424
927,83	8,455
928,00	8,631
928,17	8,068
928,34	7,922
928,51	8,781
928,69	8,700
928,86	8,620
929,03	8,314
929,20	8,368
929,37	8,432
929,55	8,919
929,72	8,037
929,89	7,547
930,06	8,187
930,23	8,347
930,41	7,943
930,58	7,897
930,75	7,732
930,92	8,348
931,09	8,584
931,27	8,014
931,44	8,741
931,61	7,775
931,78	8,526
931,95	8,301
932,12	8,400
932,30	8,070
932,47	8,451
932,64	8,160
932,81	7,673
932,98	8,218
933,16	7,655
933,33	8,828
933,50	7,665
933,67	7,840
933,84	7,286
934,01	7,674
934,18	7,611
934,36	7,303
934,53	7,663
934,70	7,974
934,87	8,375
935,04	7,992
935,21	8,044
935,38	7,587
935,56	8,225
935,73	7,896
935,90	7,233
936,07	7,715
936,24	7,793
936,41	8,262
936,58	7,835
936,76	8,244
936,93	7,612
937,10	7,931
937,27	7,432
937,44	7,619
937,61	8,354
937,78	7,585
937,95	7,850
938,13	7,039
938,30	7,142
938,47	6,703
938,64	7,460
938,81	7,400
938,98	7,122
939,15	8,158
939,32	7,664
939,49	7,622
939,66	7,704
939,84	7,764
940,01	7,426
940,18	6,782
940,35	6,548
940,52	7,409
940,69	7,197
940,86	7,507
941,03	7,197
941,20	7,789
941,37	7,057
941,54	7,307
941,71	7,441
941,89	7,757
942,06	7,505
942,23	7,024
942,40	7,214
942,57	7,451
942,74	7,178
942,91	7,478
943,08	6,935
943,25	7,399
943,42	6,847
943,59	7,131
943,76	7,298
943,93	7,244
944,10	7,412
944,27	7,182
944,44	7,999
944,61	7,366
944,79	7,774
944,96	7,854
945,13	6,942
945,30	7,259
945,47	7,578
945,64	6,883
945,81	7,399
945,98	8,334
946,15	7,567
946,32	7,385
946,49	7,676
946,66	6,584
946,83	7,336
947,00	8,029
947,17	7,446
947,34	7,610
947,51	7,644
947,68	8,281
947,85	6,989
948,02	8,470
948,19	6,406
948,36	8,179
948,53	6,745
948,70	7,612
948,87	7,266
949,04	7,683
949,21	7,254
949,38	8,172
949,55	7,934
949,72	7,106
949,89	7,099
950,06	7,825
950,23	6,896
950,40	8,302
950,57	7,710
950,74	8,411
950,91	7,500
951,08	7,727
951,25	8,737
951,42	8,328
951,59	8,042
951,76	8,335
951,93	8,333
952,10	8,568
952,27	8,090
952,44	8,493
952,61	8,166
952,77	9,830
952,94	10,203
953,11	9,086
953,28	7,915
953,45	8,381
953,62	8,815
953,79	9,438
953,96	8,557
954,13	9,008
954,30	8,689
954,47	8,822
954,64	8,352
954,81	9,998
954,98	10,315
955,15	9,347
955,32	8,614
955,49	8,834
955,65	9,449
955,82	9,490
955,99	9,238
956,16	9,569
956,33	9,657
956,50	9,045
956,67	10,203
956,84	9,722
957,01	9,968
957,18	8,561
957,35	10,647
957,52	10,900
957,68	10,678
957,85	9,184
958,02	10,267
958,19	10,094
958,36	10,700
958,53	10,573
958,70	10,742
958,87	12,573
959,04	12,371
959,21	10,450
959,37	11,248
959,54	10,494
959,71	10,574
959,88	11,600
960,05	10,213
960,22	11,122
960,39	10,849
960,56	10,925
960,72	10,881
960,89	14,507
961,06	11,521
961,23	11,607
961,40	11,082
961,57	9,322
961,74	11,830
961,90	12,088
962,07	11,966
962,24	11,426
962,41	11,180
962,58	11,080
962,75	11,315
962,92	10,028
963,08	10,131
963,25	12,189
963,42	11,907
963,59	10,920
963,76	10,654
963,93	13,246
964,10	12,588
964,26	11,362
964,43	11,247
964,60	11,654
964,77	11,007
964,94	14,074
965,10	12,040
965,27	11,413
965,44	10,812
965,61	12,768
965,78	12,037
965,95	12,996
966,11	13,096
966,28	12,368
966,45	13,423
966,62	12,092
966,79	13,158
966,95	12,428
967,12	13,468
967,29	11,549
967,46	13,646
967,63	14,583
967,79	14,195
967,96	11,805
968,13	9,697
968,30	10,532
968,47	12,051
968,63	12,590
968,80	12,859
968,97	12,649
969,14	12,429
969,31	11,983
969,47	11,826
969,64	12,278
969,81	11,293
969,98	11,445
970,14	13,288
970,31	12,976
970,48	11,148
970,65	12,730
970,81	12,100
970,98	14,471
971,15	11,824
971,32	14,575
971,48	11,581
971,65	14,668
971,82	13,436
971,99	13,386
972,15	14,440
972,32	12,074
972,49	12,588
972,66	14,507
972,82	13,559
972,99	12,118
973,16	12,848
973,33	14,907
973,49	14,554
973,66	12,240
973,83	11,767
974,00	15,762
974,16	16,104
974,33	12,811
974,50	13,518
974,67	14,712
974,83	12,464
975,00	12,381
975,17	13,467
975,33	12,694
975,50	15,178
975,67	11,065
975,84	12,090
976,00	11,517
976,17	11,916
976,34	12,464
976,50	12,395
976,67	13,183
976,84	13,342
977,00	13,478
977,17	13,680
977,34	14,625
977,50	12,473
977,67	14,026
977,84	11,621
978,01	13,726
978,17	13,638
978,34	15,425
978,51	13,498
978,67	15,718
978,84	13,807
979,01	13,065
979,17	14,401
979,34	13,833
979,51	13,745
979,67	14,273
979,84	13,992
980,01	14,043
980,17	12,025
980,34	14,998
980,51	14,055
980,67	16,706
980,84	14,627
981,01	13,343
981,17	12,440
981,34	14,531
981,50	14,760
981,67	14,383
981,84	14,251
982,00	11,567
982,17	14,937
982,34	15,746
982,50	11,852
982,67	14,368
982,84	12,446
983,00	10,209
983,17	12,017
983,33	14,551
983,50	14,196
983,67	15,140
983,83	14,125
984,00	13,922
984,17	12,916
984,33	13,980
984,50	12,403
984,66	13,844
984,83	13,971
985,00	14,106
985,16	15,617
985,33	15,721
985,49	14,315
985,66	14,486
985,83	11,031
985,99	11,682
986,16	14,521
986,32	11,602
986,49	14,014
986,66	14,981
986,82	16,405
986,99	15,380
987,15	12,709
987,32	13,561
987,49	12,585
987,65	14,286
987,82	10,947
987,98	13,677
988,15	13,869
988,31	15,871
988,48	14,010
988,65	14,469
988,81	16,750
988,98	14,496
989,14	12,610
989,31	16,085
989,47	15,268
989,64	16,303
989,80	13,381
989,97	15,080
990,14	13,805
990,30	13,290
990,47	16,067
990,63	14,776
990,80	15,432
990,96	16,325
991,13	14,716
991,29	13,821
991,46	14,400
991,62	14,424
991,79	12,430
991,95	15,141
992,12	14,163
992,29	15,766
992,45	12,069
992,62	12,191
992,78	13,757
992,95	14,344
993,11	13,986
993,28	16,861
993,44	12,123
993,61	14,878
993,77	12,800
993,94	16,249
994,10	14,203
994,27	12,089
994,43	14,988
994,60	14,442
994,76	12,716
994,93	13,382
995,09	14,372
995,26	13,577
995,42	13,478
995,59	15,448
995,75	13,764
995,92	14,385
996,08	16,468
996,25	13,041
996,41	15,077
996,58	15,854
996,74	15,190
996,91	11,808
997,07	12,448
997,23	14,554
997,40	14,199
997,56	14,460
997,73	12,883
997,89	17,184
998,06	16,112
998,22	15,741
998,39	13,254
998,55	13,156
998,72	13,665
998,88	15,270
999,05	12,770
999,21	11,954
999,37	16,079
999,54	17,672
999,70	12,297
999,87	15,614
1000,03	13,592
1000,20	14,792
1000,36	10,599
1000,52	14,543
1000,69	13,269
1000,85	17,290
1001,02	17,776
1001,18	13,162
1001,35	14,397
1001,51	14,051
1001,67	12,750
1001,84	13,580
1002,00	12,333
1002,17	16,149
1002,33	12,940
1002,50	13,398
1002,66	14,464
1002,82	13,732
1002,99	13,948
1003,15	14,480
1003,32	12,615
1003,48	14,479
1003,64	13,668
1003,81	15,652
1003,97	16,953
1004,14	16,094
1004,30	10,984
1004,46	15,445
1004,63	12,510
1004,79	18,614
1004,95	13,985
1005,12	16,132
1005,28	20,631
1005,45	19,310
1005,61	12,582
1005,77	17,885
1005,94	15,820
1006,10	17,502
1006,26	17,627
1006,43	18,320
1006,59	13,253
1006,76	12,488
1006,92	20,183
1007,08	14,916
1007,25	10,745
1007,41	14,450
1007,57	15,554
1007,74	17,001
1007,90	12,374
1008,06	15,426
1008,23	16,579
1008,39	12,841
1008,55	15,725
1008,72	11,051
1008,88	7,734
1009,04	13,997
1009,21	13,087
1009,37	12,445
1009,53	12,700
1009,70	10,503
1009,86	13,254
1010,02	12,814
1010,19	9,825
1010,35	12,532
1010,51	14,785
1010,68	16,156
1010,84	9,302
1011,00	11,466
1011,17	13,430
1011,33	15,343
1011,49	12,644
1011,66	15,414
1011,82	10,853
1011,98	10,180
1012,14	12,405
1012,31	14,593
1012,47	15,539
1012,63	12,706
1012,80	11,959
1012,96	13,658
1013,12	10,850
1013,29	13,892
1013,45	10,655
1013,61	14,511
1013,77	14,844
1013,94	14,889
1014,10	15,644
1014,26	9,892
1014,43	13,831
1014,59	10,000
1014,75	11,321
1014,91	12,474
1015,08	11,581
1015,24	17,378
1015,40	11,029
1015,56	12,850
1015,73	12,020
1015,89	14,588
1016,05	12,768
1016,21	12,685
1016,38	12,049
1016,54	10,614
1016,70	14,599
1016,86	12,073
1017,03	9,130
1017,19	14,789
1017,35	11,241
1017,51	17,227
1017,68	12,326
1017,84	14,668
1018,00	15,952
1018,16	11,791
1018,33	13,470
1018,49	13,507
1018,65	13,786
1018,81	12,500
1018,97	12,500
1019,14	16,368
1019,30	10,583
1019,46	15,148
1019,62	11,856
1019,79	11,921
1019,95	16,647
1020,11	15,758
1020,27	11,273
1020,43	17,946
1020,60	14,005
1020,76	14,545
1020,92	10,465
1021,08	13,797
1021,24	13,398
1021,41	16,018
1021,57	14,493
1021,73	12,227
1021,89	8,156
1022,05	19,639
1022,21	11,097
1022,38	16,848
1022,54	15,185
1022,70	14,774
1022,86	11,890
1023,02	13,972
1023,19	16,711
1023,35	2,861
1023,51	13,113
1023,67	16,667
1023,83	18,536
1023,99	17,095
1024,16	3,905
1024,32	10,569
1024,48	11,331
1024,64	7,955
1024,80	11,310
1024,96	8,300
1025,12	17,089
1025,29	10,467
1025,45	16,821
1025,61	19,205
1025,77	10,580
1025,93	13,441
1026,09	12,038
1026,26	8,626
1026,42	13,711
1026,58	13,105
1026,74	8,333
1026,90	12,483
1027,06	8,017
1027,22	13,980
1027,38	8,120
1027,55	11,647
1027,71	12,339
1027,87	15,900
1028,03	6,628
1028,19	9,238
1028,35	15,781
1028,51	17,930
1028,67	10,090
1028,83	14,264
1029,00	7,943
1029,16	13,267
1029,32	15,672
1029,48	3,994
1029,64	13,814
1029,80	13,300
1029,96	15,372
1030,12	13,323
1030,28	11,261
1030,44	8,987
1030,61	7,911
1030,77	8,117
1030,93	11,011
1031,09	13,582
1031,25	7,227
1031,41	11,682
1031,57	6,624
1031,73	9,431
1031,89	7,119
1032,05	11,962
1032,21	5,333
1032,37	2,206
1032,53	13,099
1032,69	10,309
1032,86	7,452
1033,02	6,408
1033,18	9,418
1033,34	9,982
1033,50	20,701
1033,66	13,768
1033,82	19,829
1033,98	15,315
1034,14	8,757
1034,30	6,576
1034,46	12,165
1034,62	16,952
1034,78	16,323
1034,94	7,946
1035,10	17,343
1035,26	7,335
1035,42	10,526
1035,58	12,030
1035,74	16,200
1035,90	6,990
1036,06	2,887
1036,22	13,571
1036,38	17,919
1036,54	6,362
1036,70	16,032
1036,86	17,433
1037,02	13,333
1037,18	22,264
1037,34	6,536
1037,50	9,504
1037,66	22,485
1037,82	13,800
1037,98	16,698
1038,14	14,925
1038,30	14,145
1038,46	16,252
1038,62	2,311
1038,78	9,592
1038,94	15,222
1039,10	9,339
1039,26	10,441
1039,42	23,848
1039,58	11,530
1039,74	1,843
1039,90	18,548
1040,06	23,404
>>>>>End Processed Spectral Data<<<<<
