SpectraSuite Data File
++++++++++++++++++++++++++++++++++++
Date: Thu Feb 02 18:55:40 EET 2017
User: optolab
Dark Spectrum Present: Yes
Reference Spectrum Present: Yes
Number of Sampled Component Spectra: 1
Spectrometers: USB4C02475
Integration Time (usec): 151411 (USB4C02475)
Spectra Averaged: 1 (USB4C02475)
Boxcar Smoothing: 0 (USB4C02475)
Correct for Electrical Dark: No (USB4C02475)
Strobe/Lamp Enabled: No (USB4C02475)
Correct for Detector Non-linearity: No (USB4C02475)
Correct for Stray Light: No (USB4C02475)
Number of Pixels in Processed Spectrum: 3648
>>>>>Begin Processed Spectral Data<<<<<
344,91	137,037
345,13	137,037
345,35	137,037
345,57	-20,000
345,79	-84,615
346,00	160,000
346,22	110,811
346,44	146,154
346,66	1333,333
346,87	-120,000
347,09	-750,000
347,31	-2200,000
347,53	-12,821
347,74	112,500
347,96	155,556
348,18	0,000
348,40	-113,333
348,61	-1,961
348,83	25,000
349,05	87,273
349,27	117,647
349,48	29,412
349,70	41,818
349,92	85,366
350,14	800,000
350,35	103,846
350,57	-10,294
350,79	140,426
351,01	38,710
351,22	300,000
351,44	-13,333
351,66	102,439
351,87	-31,818
352,09	63,462
352,31	0,000
352,53	93,548
352,74	-21,875
352,96	8,163
353,18	59,091
353,40	157,143
353,61	71,667
353,83	200,000
354,05	86,207
354,26	77,273
354,48	104,545
354,70	38,750
354,92	93,651
355,13	26,531
355,35	-1300,000
355,57	53,247
355,78	97,500
356,00	58,140
356,22	4,478
356,44	0,000
356,65	46,154
356,87	51,852
357,09	-78,261
357,30	127,027
357,52	42,857
357,74	41,538
357,95	-33,333
358,17	72,222
358,39	900,000
358,60	55,789
358,82	52,778
359,04	-172,222
359,26	26,667
359,47	56,897
359,69	850,000
359,91	7,813
360,12	-12,698
360,34	231,579
360,56	-13,684
360,77	53,704
360,99	70,000
361,21	102,564
361,42	-35,000
361,64	60,606
361,86	29,670
362,07	48,515
362,29	-78,571
362,51	64,815
362,72	127,500
362,94	-15,000
363,16	124,638
363,37	87,500
363,59	26,374
363,81	-15,254
364,02	-39,394
364,24	40,000
364,46	10,000
364,67	33,333
364,89	12,162
365,11	-766,667
365,32	91,228
365,54	39,130
365,76	36,250
365,97	45,714
366,19	52,632
366,41	109,231
366,62	110,000
366,84	-13,333
367,05	12,500
367,27	127,273
367,49	-3,030
367,70	41,304
367,92	69,620
368,14	44,086
368,35	29,630
368,57	14,444
368,79	28,378
369,00	42,143
369,22	30,208
369,43	26,531
369,65	48,810
369,87	64,198
370,08	33,333
370,30	30,588
370,51	50,382
370,73	38,095
370,95	6,186
371,16	7,576
371,38	15,068
371,60	19,767
371,81	53,684
372,03	-1,818
372,24	92,105
372,46	63,333
372,68	20,253
372,89	12,281
373,11	-5,556
373,32	34,921
373,54	59,375
373,76	5,882
373,97	19,512
374,19	44,444
374,40	80,000
374,62	53,409
374,84	0,971
375,05	37,895
375,27	33,333
375,48	27,273
375,70	43,243
375,92	-4,348
376,13	63,810
376,35	54,878
376,56	33,333
376,78	42,308
376,99	-11,688
377,21	42,857
377,43	41,667
377,64	23,729
377,86	29,032
378,07	47,895
378,29	36,364
378,51	21,094
378,72	9,259
378,94	41,259
379,15	39,437
379,37	33,577
379,58	16,239
379,80	35,359
380,01	43,000
380,23	27,612
380,45	30,000
380,66	4,861
380,88	22,353
381,09	-21,591
381,31	29,412
381,52	39,189
381,74	37,736
381,95	17,105
382,17	19,663
382,39	46,386
382,60	12,950
382,82	26,950
383,03	14,167
383,25	6,383
383,46	22,609
383,68	20,253
383,89	34,066
384,11	33,333
384,32	23,571
384,54	-11,429
384,76	40,462
384,97	4,545
385,19	50,400
385,40	32,738
385,62	31,383
385,83	18,710
386,05	20,979
386,26	35,979
386,48	23,377
386,69	-19,200
386,91	4,865
387,12	6,383
387,34	16,575
387,55	29,412
387,77	11,765
387,98	21,296
388,20	38,095
388,41	25,703
388,63	34,762
388,84	10,067
389,06	20,219
389,27	25,806
389,49	34,951
389,70	31,915
389,92	19,704
390,13	-1,351
390,35	33,036
390,56	31,557
390,78	6,276
390,99	22,798
391,21	39,706
391,42	20,243
391,64	37,736
391,85	21,026
392,07	36,264
392,28	37,302
392,50	25,769
392,71	16,583
392,93	-1,660
393,14	19,126
393,36	13,063
393,57	29,614
393,79	25,571
394,00	-2,353
394,22	17,588
394,43	21,145
394,65	38,174
394,86	25,475
395,08	20,231
395,29	8,000
395,50	48,684
395,72	-1,277
395,93	25,207
396,15	45,455
396,36	33,168
396,58	0,897
396,79	21,575
397,01	13,080
397,22	25,468
397,44	11,392
397,65	10,247
397,87	28,958
398,08	29,773
398,29	21,886
398,51	25,074
398,72	28,309
398,94	15,517
399,15	15,625
399,37	29,795
399,58	18,824
399,80	44,540
400,01	21,277
400,22	26,087
400,44	-2,510
400,65	12,333
400,87	26,144
401,08	21,212
401,30	21,160
401,51	34,831
401,72	30,882
401,94	14,685
402,15	23,824
402,37	21,429
402,58	9,365
402,80	26,975
403,01	15,789
403,22	18,182
403,44	31,633
403,65	17,133
403,87	16,000
404,08	14,803
404,30	12,640
404,51	21,127
404,72	21,713
404,94	19,098
405,15	15,646
405,37	20,499
405,58	17,892
405,79	21,543
406,01	22,284
406,22	21,320
406,44	16,010
406,65	34,625
406,86	22,558
407,08	20,613
407,29	24,860
407,51	20,263
407,72	12,202
407,93	22,691
408,15	31,026
408,36	20,976
408,58	20,046
408,79	27,273
409,00	14,989
409,22	18,125
409,43	20,500
409,64	10,421
409,86	20,882
410,07	16,157
410,29	18,667
410,50	17,143
410,71	8,864
410,93	18,636
411,14	24,295
411,35	19,906
411,57	5,708
411,78	23,947
412,00	22,894
412,21	22,384
412,42	24,884
412,64	12,206
412,85	13,708
413,06	19,904
413,28	17,328
413,49	7,643
413,70	24,713
413,92	14,182
414,13	21,385
414,34	14,545
414,56	15,385
414,77	11,605
414,98	19,813
415,20	18,677
415,41	24,774
415,63	10,445
415,84	22,744
416,05	28,515
416,27	27,555
416,48	19,705
416,69	9,773
416,91	19,010
417,12	16,762
417,33	10,674
417,55	20,751
417,76	31,986
417,97	24,610
418,19	18,352
418,40	17,535
418,61	23,864
418,83	21,348
419,04	16,169
419,25	20,317
419,46	15,770
419,68	24,355
419,89	15,724
420,10	20,124
420,32	22,720
420,53	6,515
420,74	17,114
420,96	11,607
421,17	17,908
421,38	17,042
421,60	24,138
421,81	15,606
422,02	15,712
422,23	16,691
422,45	20,098
422,66	15,049
422,87	22,627
423,09	14,420
423,30	17,290
423,51	9,317
423,73	18,966
423,94	17,493
424,15	14,045
424,36	21,108
424,58	15,049
424,79	18,254
425,00	17,647
425,22	18,101
425,43	15,550
425,64	19,420
425,85	22,895
426,07	12,398
426,28	15,961
426,49	21,540
426,71	21,252
426,92	19,367
427,13	13,054
427,34	15,165
427,56	18,707
427,77	17,073
427,98	13,858
428,19	20,375
428,41	19,457
428,62	20,208
428,83	19,887
429,04	18,519
429,26	16,537
429,47	11,987
429,68	12,864
429,89	10,442
430,11	18,319
430,32	14,271
430,53	16,881
430,74	10,952
430,96	21,058
431,17	16,132
431,38	14,286
431,59	11,619
431,81	20,907
432,02	19,565
432,23	14,198
432,44	13,665
432,66	15,232
432,87	17,944
433,08	15,719
433,29	16,214
433,51	13,833
433,72	8,796
433,93	15,493
434,14	15,677
434,35	14,351
434,57	12,974
434,78	11,451
434,99	12,572
435,20	14,600
435,42	13,287
435,63	14,637
435,84	12,550
436,05	12,655
436,26	14,700
436,48	15,523
436,69	12,161
436,90	13,880
437,11	12,069
437,32	12,389
437,54	11,548
437,75	15,313
437,96	11,806
438,17	12,402
438,38	12,464
438,60	11,813
438,81	10,888
439,02	12,831
439,23	13,669
439,44	10,396
439,66	12,072
439,87	8,529
440,08	9,095
440,29	9,700
440,50	10,439
440,72	8,174
440,93	9,288
441,14	9,157
441,35	10,500
441,56	8,685
441,77	9,155
441,99	11,927
442,20	8,360
442,41	10,624
442,62	9,739
442,83	9,799
443,04	9,555
443,26	7,316
443,47	10,648
443,68	7,736
443,89	10,470
444,10	9,621
444,31	7,752
444,53	7,715
444,74	6,586
444,95	7,829
445,16	6,638
445,37	6,148
445,58	7,104
445,80	7,778
446,01	6,561
446,22	5,978
446,43	5,296
446,64	7,472
446,85	7,678
447,06	5,757
447,28	5,623
447,49	7,432
447,70	5,397
447,91	6,700
448,12	5,806
448,33	6,296
448,54	6,729
448,76	6,258
448,97	6,422
449,18	5,745
449,39	5,140
449,60	6,290
449,81	5,362
450,02	5,132
450,23	4,215
450,45	4,224
450,66	5,597
450,87	5,087
451,08	5,263
451,29	4,743
451,50	4,316
451,71	3,873
451,92	4,640
452,13	4,973
452,35	3,732
452,56	4,323
452,77	4,048
452,98	5,070
453,19	4,358
453,40	3,876
453,61	4,107
453,82	3,804
454,03	3,839
454,25	3,934
454,46	3,557
454,67	3,653
454,88	3,888
455,09	3,505
455,30	3,548
455,51	3,069
455,72	3,375
455,93	3,412
456,14	3,311
456,35	3,142
456,56	3,381
456,78	3,596
456,99	3,196
457,20	3,005
457,41	2,842
457,62	3,194
457,83	2,850
458,04	2,708
458,25	2,924
458,46	2,558
458,67	2,510
458,88	2,603
459,09	2,738
459,30	3,028
459,51	2,515
459,73	2,363
459,94	2,742
460,15	2,270
460,36	2,663
460,57	2,352
460,78	2,229
460,99	2,367
461,20	2,322
461,41	2,163
461,62	2,141
461,83	2,435
462,04	2,226
462,25	2,210
462,46	2,478
462,67	2,163
462,88	2,298
463,09	2,251
463,30	2,244
463,51	2,418
463,72	2,274
463,93	2,208
464,15	1,990
464,36	2,303
464,57	2,090
464,78	2,155
464,99	1,904
465,20	2,155
465,41	2,045
465,62	2,238
465,83	2,260
466,04	1,931
466,25	2,304
466,46	2,087
466,67	2,140
466,88	2,274
467,09	2,122
467,30	2,138
467,51	1,947
467,72	2,320
467,93	2,004
468,14	2,221
468,35	2,120
468,56	2,029
468,77	2,288
468,98	2,505
469,19	2,172
469,40	2,173
469,61	2,306
469,82	2,147
470,03	2,192
470,24	2,330
470,45	2,554
470,66	2,233
470,87	2,415
471,08	2,446
471,29	2,451
471,50	2,426
471,71	2,543
471,92	2,295
472,13	2,579
472,34	2,813
472,55	2,557
472,76	2,574
472,97	2,703
473,18	2,767
473,39	2,887
473,60	2,840
473,81	2,863
474,01	2,932
474,22	2,695
474,43	3,181
474,64	3,023
474,85	3,189
475,06	3,156
475,27	2,872
475,48	3,526
475,69	3,401
475,90	3,354
476,11	3,301
476,32	3,256
476,53	3,618
476,74	3,689
476,95	3,528
477,16	3,569
477,37	3,936
477,58	3,714
477,79	3,597
478,00	3,369
478,21	3,897
478,41	4,003
478,62	3,684
478,83	3,963
479,04	3,884
479,25	4,260
479,46	3,636
479,67	4,322
479,88	3,824
480,09	4,116
480,30	4,351
480,51	3,992
480,72	4,393
480,93	4,509
481,14	4,211
481,34	4,372
481,55	4,366
481,76	4,249
481,97	4,629
482,18	4,604
482,39	4,594
482,60	4,452
482,81	4,711
483,02	4,727
483,23	4,979
483,44	4,544
483,65	4,530
483,85	4,646
484,06	4,883
484,27	4,618
484,48	4,941
484,69	4,679
484,90	4,872
485,11	4,572
485,32	4,598
485,53	4,984
485,73	4,993
485,94	5,148
486,15	4,839
486,36	5,052
486,57	5,056
486,78	5,219
486,99	5,236
487,20	5,313
487,41	5,041
487,61	5,138
487,82	5,201
488,03	4,826
488,24	4,871
488,45	5,267
488,66	5,208
488,87	5,402
489,08	5,064
489,28	5,344
489,49	5,009
489,70	5,494
489,91	5,224
490,12	5,452
490,33	5,208
490,54	5,363
490,74	5,374
490,95	5,746
491,16	5,697
491,37	5,513
491,58	5,665
491,79	5,654
492,00	5,367
492,20	5,716
492,41	5,486
492,62	5,461
492,83	5,648
493,04	5,858
493,25	6,082
493,45	5,594
493,66	5,971
493,87	5,737
494,08	5,820
494,29	5,844
494,50	5,635
494,70	5,862
494,91	5,797
495,12	5,862
495,33	6,088
495,54	6,026
495,75	5,928
495,95	5,886
496,16	6,034
496,37	6,277
496,58	5,816
496,79	5,666
496,99	5,781
497,20	6,031
497,41	6,213
497,62	6,079
497,83	6,183
498,04	6,126
498,24	6,325
498,45	6,454
498,66	6,432
498,87	6,011
499,08	6,472
499,28	6,284
499,49	6,383
499,70	6,353
499,91	6,418
500,12	6,438
500,32	6,265
500,53	6,077
500,74	6,545
500,95	6,601
501,15	6,621
501,36	6,520
501,57	6,384
501,78	6,807
501,99	6,551
502,19	6,593
502,40	6,342
502,61	6,899
502,82	6,570
503,02	6,549
503,23	6,792
503,44	6,815
503,65	7,018
503,86	7,143
504,06	6,596
504,27	7,009
504,48	6,994
504,69	7,045
504,89	6,422
505,10	6,879
505,31	7,145
505,52	6,970
505,72	7,229
505,93	7,322
506,14	7,425
506,35	7,443
506,55	6,797
506,76	7,090
506,97	6,960
507,18	7,353
507,38	6,956
507,59	7,532
507,80	7,207
508,01	7,370
508,21	7,385
508,42	7,357
508,63	7,279
508,84	7,235
509,04	7,532
509,25	7,868
509,46	7,583
509,67	7,340
509,87	7,505
510,08	7,558
510,29	7,472
510,49	7,681
510,70	7,792
510,91	7,717
511,12	7,678
511,32	7,944
511,53	7,522
511,74	7,748
511,94	7,787
512,15	7,639
512,36	7,947
512,57	7,765
512,77	7,936
512,98	8,037
513,19	7,570
513,39	7,716
513,60	8,046
513,81	8,259
514,01	7,808
514,22	7,852
514,43	7,981
514,64	7,966
514,84	8,394
515,05	8,275
515,26	8,131
515,46	8,298
515,67	8,382
515,88	8,205
516,08	8,254
516,29	8,191
516,50	8,229
516,70	8,570
516,91	8,343
517,12	8,497
517,32	8,438
517,53	8,849
517,74	8,635
517,95	8,704
518,15	8,962
518,36	8,846
518,57	8,753
518,77	8,805
518,98	8,955
519,19	9,437
519,39	9,041
519,60	9,050
519,80	8,949
520,01	9,199
520,22	8,818
520,42	8,963
520,63	9,033
520,84	9,229
521,04	9,307
521,25	9,603
521,46	9,186
521,66	9,467
521,87	9,286
522,08	9,572
522,28	9,732
522,49	9,584
522,70	9,420
522,90	9,858
523,11	9,886
523,31	9,857
523,52	10,056
523,73	9,907
523,93	10,047
524,14	9,902
524,35	9,989
524,55	10,554
524,76	10,127
524,97	10,139
525,17	10,144
525,38	10,458
525,58	10,271
525,79	10,725
526,00	10,768
526,20	10,943
526,41	10,649
526,61	10,539
526,82	10,936
527,03	10,671
527,23	10,634
527,44	10,835
527,64	10,974
527,85	11,284
528,06	11,144
528,26	10,752
528,47	11,199
528,68	11,244
528,88	11,117
529,09	11,353
529,29	11,529
529,50	11,439
529,70	11,081
529,91	11,924
530,12	11,564
530,32	11,767
530,53	11,663
530,73	11,711
530,94	11,721
531,15	11,335
531,35	11,647
531,56	11,852
531,76	11,887
531,97	11,846
532,17	12,679
532,38	12,201
532,59	12,085
532,79	12,289
533,00	12,137
533,20	12,030
533,41	12,366
533,61	12,065
533,82	11,966
534,03	12,499
534,23	12,421
534,44	12,712
534,64	12,666
534,85	12,733
535,05	12,806
535,26	12,856
535,46	13,033
535,67	13,298
535,88	13,495
536,08	13,519
536,29	13,169
536,49	13,299
536,70	13,022
536,90	13,558
537,11	13,156
537,31	13,231
537,52	13,637
537,72	13,598
537,93	13,058
538,13	13,677
538,34	13,517
538,55	13,819
538,75	13,461
538,96	13,563
539,16	13,731
539,37	13,929
539,57	14,010
539,78	13,189
539,98	13,942
540,19	13,641
540,39	14,325
540,60	14,496
540,80	13,599
541,01	14,537
541,21	13,830
541,42	14,025
541,62	14,441
541,83	13,885
542,03	14,310
542,24	14,089
542,44	14,553
542,65	14,448
542,85	14,320
543,06	14,846
543,26	14,780
543,47	15,154
543,67	14,852
543,88	14,522
544,08	14,802
544,29	14,511
544,49	15,110
544,70	14,299
544,90	14,746
545,11	14,734
545,31	15,129
545,52	14,605
545,72	15,314
545,93	15,600
546,13	15,561
546,34	15,336
546,54	15,585
546,75	15,526
546,95	14,779
547,15	15,391
547,36	15,444
547,56	15,434
547,77	15,631
547,97	15,708
548,18	15,598
548,38	15,594
548,59	15,878
548,79	15,400
549,00	15,874
549,20	16,065
549,41	15,890
549,61	16,023
549,81	15,819
550,02	15,902
550,22	16,090
550,43	16,218
550,63	16,166
550,84	16,027
551,04	15,970
551,25	16,336
551,45	16,217
551,65	16,277
551,86	15,528
552,06	16,574
552,27	16,033
552,47	16,523
552,68	16,425
552,88	16,309
553,08	16,396
553,29	15,862
553,49	15,779
553,70	16,017
553,90	15,974
554,11	15,738
554,31	16,293
554,51	16,523
554,72	16,440
554,92	16,807
555,13	17,068
555,33	16,976
555,53	16,797
555,74	17,380
555,94	17,170
556,15	16,782
556,35	16,851
556,56	17,412
556,76	16,800
556,96	17,027
557,17	16,431
557,37	16,737
557,58	16,792
557,78	17,114
557,98	16,853
558,19	16,770
558,39	16,740
558,59	16,430
558,80	16,796
559,00	16,371
559,21	17,663
559,41	16,639
559,61	17,179
559,82	17,154
560,02	16,648
560,23	17,412
560,43	17,306
560,63	16,998
560,84	16,874
561,04	16,996
561,24	16,750
561,45	17,307
561,65	16,738
561,85	17,511
562,06	16,645
562,26	16,963
562,47	17,423
562,67	17,085
562,87	17,259
563,08	17,282
563,28	17,316
563,48	17,065
563,69	16,877
563,89	17,366
564,09	17,412
564,30	16,884
564,50	17,345
564,70	17,316
564,91	17,338
565,11	16,881
565,31	17,340
565,52	17,595
565,72	17,327
565,92	17,530
566,13	17,488
566,33	17,730
566,53	17,520
566,74	17,522
566,94	16,934
567,14	17,482
567,35	17,311
567,55	17,447
567,75	17,847
567,96	18,188
568,16	17,855
568,36	18,402
568,57	18,191
568,77	18,088
568,97	18,291
569,18	18,681
569,38	19,276
569,58	18,782
569,79	18,634
569,99	19,173
570,19	19,132
570,39	19,402
570,60	18,660
570,80	19,494
571,00	18,956
571,21	18,888
571,41	19,373
571,61	19,317
571,82	19,414
572,02	19,579
572,22	19,296
572,42	19,196
572,63	18,711
572,83	18,856
573,03	19,075
573,24	18,279
573,44	18,996
573,64	19,103
573,84	19,238
574,05	19,042
574,25	19,799
574,45	19,035
574,66	18,660
574,86	19,309
575,06	19,444
575,26	19,200
575,47	19,300
575,67	19,169
575,87	19,373
576,07	18,912
576,28	19,255
576,48	19,365
576,68	19,454
576,88	19,189
577,09	18,483
577,29	19,229
577,49	19,495
577,69	19,525
577,90	19,861
578,10	19,547
578,30	19,589
578,50	19,236
578,71	19,436
578,91	19,532
579,11	19,557
579,31	19,084
579,52	19,435
579,72	19,451
579,92	19,207
580,12	19,048
580,33	19,384
580,53	19,838
580,73	19,635
580,93	19,544
581,13	20,060
581,34	19,471
581,54	19,504
581,74	19,786
581,94	19,986
582,15	19,643
582,35	19,524
582,55	18,987
582,75	19,047
582,95	19,477
583,16	20,030
583,36	19,650
583,56	19,958
583,76	20,145
583,96	20,959
584,17	21,458
584,37	21,229
584,57	21,480
584,77	21,691
584,97	21,551
585,18	22,236
585,38	22,182
585,58	22,392
585,78	22,312
585,98	22,466
586,19	22,814
586,39	22,932
586,59	22,466
586,79	22,683
586,99	22,908
587,20	23,261
587,40	23,433
587,60	23,323
587,80	23,607
588,00	22,692
588,20	22,557
588,41	22,687
588,61	22,803
588,81	22,960
589,01	22,804
589,21	23,207
589,41	23,231
589,62	23,211
589,82	23,810
590,02	23,207
590,22	22,732
590,42	22,496
590,62	22,929
590,83	23,090
591,03	22,164
591,23	22,052
591,43	22,457
591,63	21,902
591,83	22,140
592,03	22,009
592,24	22,500
592,44	21,502
592,64	21,847
592,84	21,001
593,04	21,454
593,24	21,602
593,44	21,473
593,65	21,442
593,85	21,052
594,05	21,050
594,25	21,071
594,45	20,542
594,65	20,801
594,85	21,310
595,06	21,047
595,26	20,852
595,46	20,699
595,66	21,049
595,86	21,009
596,06	20,950
596,26	20,760
596,46	20,818
596,66	20,098
596,87	19,863
597,07	19,937
597,27	19,801
597,47	19,237
597,67	19,246
597,87	18,956
598,07	19,031
598,27	18,468
598,47	18,421
598,67	18,085
598,88	17,864
599,08	18,044
599,28	18,056
599,48	17,603
599,68	17,689
599,88	17,933
600,08	17,861
600,28	17,718
600,48	16,991
600,68	17,869
600,88	17,404
601,09	17,483
601,29	17,171
601,49	17,631
601,69	17,736
601,89	17,833
602,09	17,581
602,29	17,506
602,49	17,663
602,69	17,966
602,89	17,951
603,09	18,318
603,29	17,833
603,49	17,364
603,69	17,546
603,90	17,519
604,10	17,367
604,30	17,059
604,50	17,411
604,70	17,393
604,90	17,297
605,10	17,933
605,30	18,061
605,50	18,015
605,70	18,643
605,90	18,866
606,10	18,833
606,30	18,264
606,50	18,599
606,70	18,139
606,90	18,781
607,10	18,851
607,30	18,571
607,50	19,151
607,70	18,891
607,90	19,528
608,10	18,399
608,30	19,048
608,50	18,602
608,70	19,714
608,90	19,728
609,11	19,964
609,31	20,199
609,51	20,646
609,71	21,213
609,91	21,257
610,11	21,012
610,31	21,981
610,51	22,260
610,71	22,245
610,91	22,523
611,11	22,833
611,31	23,743
611,51	23,067
611,71	23,259
611,91	22,986
612,11	23,257
612,31	22,814
612,51	23,547
612,71	23,526
612,91	23,550
613,11	22,719
613,31	22,514
613,51	22,458
613,71	21,822
613,91	21,107
614,11	21,211
614,31	20,052
614,50	20,692
614,70	20,298
614,90	20,188
615,10	20,219
615,30	19,749
615,50	20,546
615,70	19,991
615,90	19,526
616,10	18,886
616,30	18,939
616,50	19,081
616,70	18,911
616,90	19,132
617,10	19,119
617,30	19,811
617,50	19,397
617,70	18,684
617,90	18,714
618,10	18,490
618,30	19,003
618,50	18,587
618,70	18,654
618,90	18,686
619,10	18,789
619,30	18,261
619,49	18,779
619,69	18,810
619,89	18,886
620,09	18,738
620,29	18,839
620,49	18,696
620,69	18,855
620,89	18,841
621,09	18,405
621,29	18,457
621,49	19,096
621,69	18,678
621,89	18,777
622,09	18,711
622,29	18,507
622,48	18,840
622,68	18,825
622,88	19,305
623,08	18,548
623,28	19,164
623,48	19,537
623,68	19,015
623,88	19,131
624,08	18,871
624,28	19,638
624,48	19,060
624,67	18,581
624,87	19,203
625,07	18,867
625,27	19,139
625,47	19,053
625,67	19,026
625,87	19,052
626,07	18,944
626,27	18,568
626,47	18,658
626,66	18,800
626,86	18,929
627,06	19,205
627,26	19,115
627,46	19,151
627,66	19,468
627,86	19,100
628,06	19,414
628,25	18,884
628,45	18,783
628,65	19,044
628,85	19,448
629,05	19,073
629,25	19,064
629,45	18,896
629,65	19,404
629,84	19,706
630,04	19,448
630,24	19,558
630,44	19,780
630,64	19,669
630,84	19,976
631,04	19,366
631,23	19,237
631,43	18,832
631,63	19,237
631,83	18,954
632,03	18,977
632,23	18,364
632,42	19,085
632,62	18,898
632,82	18,888
633,02	18,595
633,22	19,065
633,42	19,261
633,62	18,991
633,81	19,334
634,01	18,745
634,21	18,443
634,41	19,340
634,61	18,862
634,80	18,422
635,00	18,827
635,20	18,609
635,40	18,869
635,60	18,621
635,80	18,678
635,99	18,622
636,19	18,273
636,39	18,553
636,59	18,795
636,79	19,180
636,98	18,243
637,18	18,820
637,38	18,541
637,58	18,581
637,78	18,370
637,97	18,703
638,17	18,741
638,37	18,713
638,57	18,575
638,77	18,365
638,96	18,681
639,16	18,273
639,36	18,406
639,56	18,980
639,76	18,581
639,95	19,082
640,15	19,269
640,35	18,534
640,55	19,235
640,75	18,961
640,94	18,197
641,14	18,288
641,34	18,487
641,54	18,609
641,73	18,291
641,93	18,282
642,13	18,715
642,33	19,039
642,53	18,422
642,72	18,475
642,92	18,652
643,12	18,645
643,32	18,454
643,51	18,215
643,71	18,525
643,91	18,126
644,11	18,229
644,30	18,951
644,50	18,490
644,70	18,628
644,90	18,629
645,09	18,610
645,29	18,189
645,49	17,960
645,69	18,322
645,88	18,277
646,08	18,332
646,28	18,289
646,48	18,776
646,67	18,576
646,87	18,659
647,07	18,645
647,26	18,594
647,46	18,703
647,66	18,784
647,86	18,307
648,05	18,647
648,25	18,282
648,45	18,766
648,65	18,413
648,84	18,372
649,04	18,757
649,24	18,891
649,43	18,813
649,63	19,120
649,83	18,505
650,03	18,879
650,22	18,687
650,42	18,339
650,62	18,512
650,81	18,088
651,01	18,517
651,21	18,197
651,40	18,246
651,60	17,888
651,80	18,206
652,00	18,250
652,19	18,064
652,39	18,839
652,59	18,406
652,78	18,246
652,98	18,308
653,18	18,544
653,37	18,112
653,57	18,546
653,77	18,229
653,96	18,239
654,16	18,524
654,36	18,578
654,55	17,930
654,75	18,374
654,95	18,344
655,14	18,259
655,34	18,465
655,54	17,990
655,73	18,247
655,93	18,182
656,13	18,616
656,32	18,269
656,52	18,913
656,72	18,528
656,91	18,304
657,11	18,439
657,31	18,693
657,50	18,904
657,70	18,161
657,90	18,439
658,09	18,435
658,29	18,426
658,49	18,281
658,68	18,097
658,88	17,991
659,07	17,880
659,27	17,903
659,47	18,449
659,66	17,693
659,86	17,885
660,06	18,086
660,25	18,137
660,45	18,292
660,64	18,607
660,84	18,472
661,04	18,591
661,23	18,220
661,43	18,002
661,63	17,952
661,82	17,987
662,02	18,138
662,21	18,200
662,41	18,289
662,61	18,550
662,80	17,905
663,00	18,082
663,19	18,566
663,39	18,010
663,59	18,108
663,78	18,164
663,98	17,929
664,17	17,974
664,37	18,132
664,57	17,935
664,76	18,438
664,96	17,940
665,15	18,356
665,35	18,140
665,55	17,928
665,74	18,547
665,94	18,161
666,13	18,456
666,33	18,347
666,53	18,709
666,72	18,618
666,92	18,434
667,11	18,891
667,31	19,108
667,50	18,829
667,70	17,819
667,90	18,420
668,09	18,234
668,29	18,303
668,48	18,260
668,68	17,724
668,87	17,880
669,07	17,596
669,26	17,838
669,46	17,739
669,66	17,950
669,85	18,139
670,05	18,236
670,24	17,406
670,44	17,740
670,63	17,913
670,83	17,813
671,02	17,706
671,22	18,437
671,42	18,252
671,61	18,005
671,81	17,918
672,00	18,237
672,20	17,916
672,39	18,487
672,59	18,310
672,78	17,878
672,98	18,173
673,17	18,288
673,37	17,999
673,56	18,245
673,76	17,870
673,95	18,166
674,15	18,103
674,34	17,911
674,54	18,048
674,73	17,732
674,93	18,188
675,13	18,185
675,32	17,828
675,52	17,771
675,71	17,794
675,91	18,116
676,10	17,944
676,30	18,649
676,49	18,629
676,69	18,303
676,88	18,620
677,08	18,378
677,27	17,797
677,47	18,385
677,66	18,313
677,86	18,192
678,05	18,437
678,24	18,353
678,44	18,167
678,63	18,291
678,83	18,633
679,02	18,566
679,22	18,240
679,41	18,694
679,61	18,710
679,80	18,344
680,00	19,085
680,19	18,235
680,39	18,291
680,58	18,344
680,78	18,696
680,97	18,937
681,17	18,050
681,36	18,564
681,56	18,485
681,75	17,824
681,94	18,491
682,14	17,689
682,33	17,974
682,53	18,255
682,72	18,308
682,92	18,147
683,11	18,178
683,31	18,677
683,50	18,089
683,69	18,596
683,89	18,199
684,08	18,328
684,28	18,304
684,47	18,179
684,67	17,933
684,86	18,081
685,06	18,034
685,25	17,760
685,44	18,701
685,64	17,906
685,83	18,469
686,03	17,947
686,22	18,228
686,42	18,035
686,61	17,798
686,80	18,158
687,00	17,976
687,19	18,253
687,39	18,268
687,58	18,297
687,77	18,401
687,97	18,594
688,16	18,775
688,36	18,452
688,55	18,547
688,74	18,582
688,94	18,226
689,13	18,781
689,33	18,256
689,52	18,044
689,71	18,694
689,91	18,161
690,10	18,843
690,30	18,267
690,49	18,377
690,68	18,394
690,88	18,285
691,07	18,424
691,27	17,974
691,46	18,163
691,65	18,259
691,85	18,466
692,04	18,152
692,23	17,911
692,43	18,058
692,62	18,064
692,82	18,478
693,01	18,190
693,20	17,987
693,40	17,878
693,59	18,111
693,78	18,118
693,98	17,622
694,17	17,879
694,36	18,118
694,56	17,836
694,75	17,858
694,94	18,508
695,14	18,554
695,33	18,306
695,53	18,615
695,72	18,516
695,91	18,553
696,11	18,386
696,30	17,884
696,49	18,444
696,69	18,107
696,88	17,671
697,07	18,265
697,27	18,299
697,46	18,341
697,65	18,694
697,85	18,722
698,04	19,207
698,23	18,978
698,43	18,699
698,62	18,221
698,81	18,303
699,01	18,062
699,20	18,128
699,39	17,938
699,58	17,861
699,78	17,494
699,97	17,592
700,16	18,144
700,36	17,903
700,55	18,084
700,74	17,674
700,94	18,572
701,13	18,532
701,32	18,211
701,52	18,419
701,71	18,523
701,90	18,410
702,09	19,248
702,29	18,894
702,48	18,354
702,67	18,876
702,87	18,914
703,06	18,905
703,25	18,550
703,44	18,619
703,64	18,817
703,83	18,612
704,02	18,495
704,22	18,959
704,41	19,014
704,60	18,941
704,79	18,858
704,99	18,825
705,18	19,370
705,37	18,834
705,56	18,563
705,76	19,103
705,95	19,178
706,14	18,732
706,33	19,052
706,53	18,874
706,72	18,837
706,91	18,736
707,11	18,736
707,30	18,304
707,49	18,589
707,68	18,331
707,88	18,558
708,07	18,784
708,26	19,056
708,45	18,819
708,64	19,416
708,84	19,010
709,03	19,382
709,22	20,059
709,41	19,705
709,61	19,894
709,80	19,954
709,99	19,846
710,18	20,119
710,38	19,500
710,57	20,498
710,76	20,639
710,95	20,499
711,14	20,462
711,34	20,965
711,53	20,173
711,72	20,545
711,91	21,165
712,11	21,025
712,30	21,158
712,49	21,159
712,68	21,431
712,87	21,375
713,07	21,903
713,26	22,001
713,45	22,564
713,64	23,121
713,83	23,263
714,03	23,466
714,22	23,379
714,41	23,654
714,60	23,627
714,79	23,924
714,99	23,658
715,18	24,172
715,37	24,305
715,56	24,813
715,75	24,681
715,94	25,490
716,14	25,222
716,33	25,256
716,52	24,662
716,71	25,119
716,90	25,279
717,10	24,871
717,29	25,230
717,48	25,357
717,67	25,754
717,86	25,359
718,05	24,797
718,24	25,320
718,44	25,145
718,63	24,749
718,82	25,913
719,01	24,713
719,20	24,849
719,39	24,679
719,59	25,015
719,78	25,107
719,97	25,615
720,16	26,079
720,35	25,743
720,54	25,656
720,73	25,944
720,93	26,481
721,12	26,286
721,31	26,219
721,50	26,852
721,69	26,613
721,88	25,841
722,07	26,519
722,27	26,884
722,46	26,661
722,65	26,439
722,84	26,204
723,03	26,426
723,22	26,144
723,41	26,442
723,60	26,312
723,79	26,039
723,99	26,791
724,18	26,401
724,37	26,992
724,56	27,252
724,75	26,794
724,94	27,075
725,13	27,314
725,32	26,777
725,51	26,576
725,71	26,232
725,90	26,478
726,09	25,774
726,28	26,026
726,47	25,821
726,66	25,618
726,85	25,704
727,04	26,149
727,23	25,615
727,42	25,417
727,61	25,518
727,81	25,636
728,00	25,141
728,19	25,102
728,38	25,663
728,57	25,189
728,76	25,223
728,95	25,237
729,14	25,533
729,33	25,516
729,52	25,343
729,71	25,088
729,90	25,616
730,09	24,823
730,28	25,264
730,48	25,198
730,67	25,839
730,86	25,203
731,05	24,640
731,24	24,918
731,43	24,682
731,62	24,685
731,81	24,426
732,00	23,967
732,19	24,205
732,38	23,400
732,57	23,477
732,76	23,028
732,95	23,161
733,14	23,204
733,33	22,879
733,52	23,253
733,71	22,631
733,90	22,381
734,09	22,224
734,28	22,592
734,47	22,111
734,66	21,611
734,85	21,349
735,04	21,632
735,23	21,457
735,42	21,485
735,61	20,613
735,81	21,074
736,00	20,081
736,19	20,461
736,38	19,666
736,57	19,862
736,76	19,242
736,95	19,586
737,14	18,976
737,33	18,928
737,52	18,404
737,71	18,888
737,90	18,684
738,09	18,446
738,28	17,738
738,47	18,114
738,66	18,135
738,85	18,165
739,04	18,162
739,22	18,364
739,41	17,835
739,60	18,092
739,79	17,771
739,98	17,959
740,17	17,734
740,36	17,684
740,55	17,689
740,74	17,566
740,93	17,890
741,12	18,438
741,31	17,511
741,50	17,960
741,69	17,859
741,88	18,104
742,07	17,988
742,26	18,111
742,45	17,558
742,64	17,861
742,83	17,815
743,02	18,279
743,21	18,078
743,40	17,859
743,59	18,202
743,78	18,097
743,97	18,064
744,16	17,722
744,34	17,405
744,53	18,107
744,72	18,168
744,91	17,769
745,10	17,638
745,29	18,115
745,48	17,867
745,67	17,908
745,86	18,121
746,05	18,274
746,24	18,160
746,43	18,691
746,62	18,455
746,81	18,439
747,00	18,198
747,18	18,253
747,37	18,274
747,56	18,142
747,75	18,095
747,94	18,548
748,13	18,322
748,32	17,946
748,51	18,620
748,70	18,158
748,89	17,974
749,08	17,679
749,26	18,047
749,45	18,379
749,64	18,013
749,83	17,599
750,02	17,804
750,21	17,929
750,40	17,974
750,59	17,843
750,78	18,179
750,96	18,618
751,15	18,569
751,34	18,071
751,53	18,633
751,72	18,485
751,91	18,497
752,10	17,936
752,29	18,389
752,47	17,899
752,66	17,695
752,85	18,303
753,04	18,624
753,23	18,074
753,42	18,190
753,61	18,848
753,80	18,759
753,98	18,080
754,17	18,439
754,36	18,370
754,55	18,353
754,74	18,526
754,93	18,594
755,12	18,546
755,30	18,535
755,49	18,559
755,68	18,220
755,87	18,696
756,06	18,061
756,25	18,031
756,43	18,513
756,62	17,887
756,81	18,082
757,00	18,442
757,19	18,030
757,38	18,223
757,56	17,976
757,75	17,859
757,94	17,913
758,13	17,448
758,32	17,706
758,51	17,686
758,69	17,788
758,88	18,541
759,07	18,713
759,26	17,714
759,45	17,938
759,63	18,199
759,82	18,276
760,01	17,775
760,20	18,056
760,39	18,186
760,57	18,318
760,76	17,553
760,95	18,094
761,14	17,776
761,33	18,002
761,51	17,589
761,70	17,611
761,89	17,887
762,08	18,137
762,27	17,354
762,45	17,936
762,64	18,236
762,83	18,473
763,02	18,281
763,21	18,188
763,39	18,355
763,58	18,640
763,77	18,000
763,96	17,874
764,14	18,731
764,33	18,300
764,52	18,722
764,71	18,432
764,89	18,340
765,08	17,560
765,27	17,944
765,46	18,517
765,65	18,544
765,83	18,960
766,02	18,714
766,21	18,251
766,40	18,208
766,58	18,064
766,77	18,339
766,96	18,225
767,15	18,388
767,33	17,650
767,52	17,787
767,71	18,142
767,90	17,477
768,08	17,953
768,27	17,830
768,46	17,835
768,64	17,208
768,83	17,665
769,02	17,787
769,21	17,704
769,39	17,822
769,58	17,496
769,77	17,684
769,96	17,912
770,14	17,575
770,33	18,042
770,52	17,402
770,70	17,261
770,89	17,165
771,08	17,718
771,27	17,550
771,45	17,249
771,64	17,427
771,83	17,102
772,01	17,950
772,20	17,640
772,39	17,568
772,57	17,949
772,76	17,601
772,95	18,127
773,14	17,580
773,32	17,574
773,51	17,525
773,70	17,561
773,88	17,905
774,07	18,678
774,26	18,108
774,44	17,884
774,63	18,516
774,82	18,661
775,00	18,539
775,19	18,340
775,38	18,077
775,56	18,603
775,75	18,322
775,94	17,921
776,12	17,898
776,31	18,709
776,50	17,991
776,68	17,975
776,87	17,715
777,06	18,308
777,24	18,491
777,43	18,045
777,62	18,334
777,80	18,040
777,99	17,659
778,18	17,237
778,36	18,237
778,55	17,766
778,74	17,414
778,92	17,564
779,11	17,586
779,29	17,646
779,48	18,343
779,67	18,407
779,85	18,244
780,04	18,274
780,23	17,963
780,41	17,897
780,60	18,075
780,79	18,024
780,97	18,010
781,16	18,078
781,34	18,322
781,53	17,919
781,72	18,096
781,90	17,588
782,09	17,856
782,28	18,195
782,46	18,306
782,65	17,796
782,83	17,582
783,02	18,015
783,21	17,734
783,39	18,003
783,58	18,327
783,76	18,390
783,95	18,010
784,14	17,933
784,32	17,962
784,51	18,195
784,69	18,204
784,88	18,104
785,06	18,297
785,25	18,053
785,44	18,321
785,62	18,438
785,81	18,550
785,99	19,266
786,18	18,853
786,37	19,114
786,55	19,447
786,74	19,408
786,92	19,445
787,11	18,461
787,29	19,162
787,48	18,584
787,67	18,414
787,85	18,605
788,04	18,751
788,22	18,610
788,41	18,649
788,59	18,455
788,78	18,455
788,96	18,653
789,15	18,533
789,34	18,454
789,52	19,094
789,71	18,759
789,89	19,473
790,08	18,603
790,26	19,489
790,45	18,362
790,63	19,053
790,82	18,641
791,00	18,759
791,19	19,216
791,38	18,753
791,56	18,480
791,75	19,263
791,93	19,008
792,12	18,876
792,30	19,087
792,49	19,270
792,67	18,942
792,86	19,183
793,04	19,526
793,23	18,938
793,41	19,047
793,60	19,447
793,78	19,698
793,97	19,488
794,15	19,308
794,34	19,182
794,52	19,925
794,71	19,858
794,89	20,116
795,08	20,300
795,26	19,881
795,45	20,948
795,63	20,968
795,82	20,741
796,00	20,383
796,19	20,925
796,37	20,741
796,56	20,077
796,74	20,615
796,93	20,449
797,11	20,802
797,30	20,548
797,48	21,927
797,67	21,558
797,85	21,636
798,04	22,155
798,22	22,568
798,41	22,718
798,59	23,074
798,77	23,278
798,96	23,965
799,14	23,472
799,33	23,874
799,51	23,371
799,70	24,112
799,88	24,044
800,07	25,272
800,25	25,418
800,44	25,121
800,62	24,699
800,80	25,095
800,99	26,084
801,17	25,124
801,36	25,824
801,54	26,108
801,73	26,085
801,91	26,599
802,10	26,836
802,28	26,731
802,46	27,296
802,65	26,544
802,83	26,621
803,02	26,610
803,20	26,501
803,39	26,089
803,57	25,501
803,75	25,867
803,94	25,345
804,12	25,003
804,31	25,239
804,49	25,403
804,67	24,518
804,86	24,848
805,04	25,059
805,23	24,820
805,41	24,699
805,59	24,409
805,78	24,606
805,96	24,546
806,15	24,417
806,33	24,301
806,51	24,143
806,70	23,857
806,88	24,325
807,07	23,780
807,25	24,321
807,43	23,707
807,62	24,461
807,80	24,299
807,99	24,746
808,17	23,797
808,35	26,168
808,54	25,434
808,72	25,408
808,90	25,704
809,09	25,513
809,27	26,244
809,46	26,690
809,64	25,852
809,82	25,398
810,01	26,569
810,19	25,440
810,37	25,004
810,56	25,666
810,74	25,531
810,92	25,340
811,11	25,455
811,29	25,713
811,48	26,098
811,66	26,785
811,84	26,631
812,03	26,708
812,21	26,518
812,39	26,378
812,58	26,231
812,76	27,012
812,94	26,361
813,13	25,562
813,31	26,416
813,49	26,275
813,68	26,257
813,86	25,970
814,04	25,315
814,23	24,659
814,41	25,381
814,59	25,304
814,78	24,704
814,96	25,242
815,14	24,883
815,33	24,980
815,51	25,191
815,69	25,324
815,87	25,644
816,06	26,176
816,24	25,380
816,42	25,355
816,61	25,278
816,79	25,963
816,97	25,857
817,16	25,374
817,34	25,413
817,52	25,877
817,70	24,609
817,89	24,463
818,07	24,983
818,25	24,888
818,44	25,457
818,62	24,703
818,80	25,379
818,98	25,108
819,17	24,651
819,35	24,586
819,53	25,063
819,72	24,998
819,90	25,198
820,08	23,975
820,26	25,089
820,45	25,041
820,63	24,539
820,81	23,607
820,99	24,174
821,18	23,863
821,36	23,366
821,54	23,865
821,73	22,994
821,91	22,674
822,09	23,649
822,27	23,064
822,46	22,678
822,64	21,786
822,82	22,305
823,00	22,414
823,19	22,056
823,37	21,265
823,55	20,741
823,73	20,971
823,91	20,880
824,10	20,759
824,28	19,767
824,46	20,275
824,64	19,644
824,83	19,620
825,01	19,712
825,19	18,822
825,37	18,858
825,56	18,569
825,74	18,410
825,92	18,542
826,10	18,268
826,28	18,365
826,47	18,814
826,65	18,906
826,83	18,250
827,01	18,316
827,19	19,530
827,38	18,742
827,56	18,739
827,74	18,674
827,92	18,349
828,10	18,324
828,29	18,987
828,47	17,896
828,65	18,300
828,83	17,876
829,01	18,436
829,20	18,012
829,38	17,671
829,56	17,363
829,74	17,285
829,92	17,711
830,10	17,550
830,29	17,322
830,47	17,677
830,65	16,801
830,83	18,201
831,01	18,125
831,20	17,346
831,38	17,659
831,56	18,938
831,74	18,047
831,92	18,318
832,10	18,091
832,29	18,453
832,47	17,692
832,65	17,368
832,83	17,969
833,01	17,919
833,19	18,337
833,37	18,050
833,56	18,353
833,74	17,981
833,92	17,611
834,10	17,749
834,28	17,404
834,46	17,339
834,64	16,916
834,83	17,246
835,01	17,674
835,19	18,414
835,37	18,539
835,55	17,051
835,73	17,970
835,91	16,907
836,09	18,015
836,28	17,388
836,46	17,556
836,64	17,574
836,82	16,762
837,00	17,740
837,18	18,107
837,36	17,541
837,54	17,890
837,72	17,178
837,91	17,452
838,09	17,614
838,27	17,186
838,45	17,834
838,63	17,317
838,81	18,183
838,99	17,888
839,17	18,324
839,35	18,050
839,53	17,944
839,72	18,315
839,90	17,654
840,08	19,080
840,26	18,412
840,44	17,914
840,62	17,808
840,80	18,010
840,98	17,730
841,16	17,995
841,34	18,228
841,52	18,041
841,70	18,394
841,89	17,707
842,07	17,592
842,25	17,293
842,43	17,814
842,61	17,708
842,79	17,093
842,97	17,264
843,15	18,426
843,33	17,561
843,51	18,734
843,69	17,915
843,87	17,953
844,05	18,322
844,23	17,472
844,41	18,410
844,59	17,316
844,77	18,202
844,95	18,169
845,13	17,602
845,31	17,500
845,50	17,811
845,68	18,150
845,86	16,989
846,04	17,798
846,22	17,347
846,40	17,591
846,58	17,597
846,76	18,091
846,94	18,457
847,12	18,308
847,30	17,458
847,48	17,659
847,66	17,491
847,84	17,630
848,02	18,060
848,20	17,690
848,38	17,393
848,56	17,753
848,74	18,376
848,92	16,638
849,10	17,391
849,28	17,166
849,46	17,099
849,64	17,935
849,82	16,513
850,00	17,964
850,18	16,755
850,36	17,581
850,54	17,831
850,72	17,319
850,90	17,018
851,08	17,428
851,26	18,301
851,44	18,044
851,62	17,376
851,80	16,958
851,98	17,197
852,16	17,489
852,34	17,581
852,52	16,743
852,70	16,808
852,87	17,179
853,05	17,100
853,23	17,277
853,41	16,676
853,59	17,163
853,77	17,038
853,95	16,868
854,13	17,151
854,31	17,135
854,49	17,278
854,67	16,886
854,85	17,177
855,03	17,271
855,21	17,348
855,39	17,202
855,57	17,790
855,75	16,930
855,93	16,985
856,11	16,436
856,28	16,086
856,46	16,498
856,64	16,879
856,82	16,891
857,00	16,237
857,18	16,807
857,36	17,409
857,54	16,764
857,72	16,231
857,90	16,609
858,08	16,824
858,26	17,052
858,44	17,205
858,61	16,880
858,79	17,022
858,97	17,008
859,15	17,272
859,33	17,194
859,51	16,937
859,69	17,305
859,87	16,487
860,05	16,953
860,23	16,311
860,40	17,451
860,58	16,505
860,76	16,448
860,94	17,249
861,12	16,740
861,30	15,634
861,48	17,114
861,66	16,532
861,84	17,307
862,01	17,444
862,19	16,344
862,37	16,797
862,55	16,171
862,73	16,182
862,91	17,177
863,09	16,974
863,27	16,422
863,44	16,546
863,62	15,977
863,80	17,020
863,98	16,306
864,16	16,565
864,34	16,719
864,52	16,707
864,69	17,140
864,87	16,191
865,05	15,878
865,23	16,475
865,41	16,048
865,59	16,293
865,76	16,449
865,94	16,164
866,12	16,162
866,30	15,545
866,48	15,774
866,66	16,148
866,83	15,900
867,01	15,942
867,19	16,091
867,37	15,967
867,55	16,005
867,73	16,321
867,90	15,520
868,08	16,224
868,26	15,557
868,44	15,074
868,62	16,170
868,79	16,660
868,97	16,025
869,15	15,811
869,33	15,760
869,51	16,039
869,69	15,343
869,86	15,182
870,04	15,951
870,22	16,081
870,40	16,188
870,57	15,840
870,75	15,097
870,93	15,082
871,11	15,512
871,29	15,057
871,46	15,402
871,64	16,013
871,82	15,338
872,00	16,311
872,18	15,431
872,35	16,404
872,53	16,265
872,71	16,093
872,89	16,286
873,06	15,893
873,24	15,777
873,42	15,538
873,60	14,980
873,77	15,907
873,95	15,906
874,13	15,276
874,31	16,002
874,49	15,145
874,66	16,148
874,84	16,464
875,02	15,520
875,20	16,096
875,37	16,268
875,55	15,604
875,73	15,147
875,91	15,976
876,08	15,690
876,26	15,637
876,44	15,750
876,61	16,022
876,79	15,846
876,97	16,246
877,15	15,287
877,32	15,491
877,50	15,740
877,68	15,496
877,86	15,124
878,03	15,928
878,21	15,614
878,39	15,400
878,56	15,234
878,74	15,916
878,92	15,828
879,10	15,391
879,27	16,283
879,45	15,210
879,63	15,858
879,80	15,886
879,98	15,679
880,16	15,803
880,34	15,661
880,51	16,193
880,69	15,937
880,87	15,370
881,04	16,067
881,22	15,348
881,40	15,508
881,57	15,327
881,75	16,161
881,93	15,273
882,10	15,740
882,28	16,074
882,46	15,654
882,63	15,974
882,81	14,850
882,99	15,219
883,16	15,289
883,34	15,303
883,52	15,717
883,69	14,680
883,87	14,957
884,05	15,962
884,22	14,530
884,40	15,254
884,58	15,145
884,75	15,075
884,93	15,288
885,11	14,904
885,28	14,037
885,46	14,824
885,64	15,298
885,81	14,881
885,99	14,798
886,17	14,519
886,34	14,819
886,52	15,039
886,70	15,129
886,87	14,793
887,05	14,855
887,22	15,385
887,40	14,744
887,58	14,746
887,75	14,529
887,93	15,792
888,11	14,800
888,28	14,830
888,46	14,295
888,63	14,482
888,81	14,792
888,99	14,181
889,16	13,944
889,34	14,290
889,51	14,551
889,69	14,164
889,87	14,310
890,04	14,490
890,22	14,444
890,39	14,316
890,57	14,826
890,75	14,130
890,92	14,903
891,10	13,963
891,27	14,253
891,45	14,027
891,63	14,322
891,80	14,135
891,98	14,373
892,15	14,252
892,33	14,017
892,51	13,988
892,68	13,377
892,86	14,406
893,03	14,700
893,21	14,503
893,38	14,709
893,56	15,015
893,74	14,409
893,91	14,839
894,09	14,996
894,26	13,553
894,44	13,245
894,61	13,432
894,79	14,727
894,96	14,586
895,14	14,578
895,32	14,900
895,49	13,418
895,67	13,895
895,84	14,039
896,02	13,967
896,19	13,664
896,37	14,316
896,54	14,012
896,72	13,876
896,89	14,047
897,07	13,555
897,25	13,394
897,42	13,595
897,60	13,977
897,77	13,592
897,95	12,893
898,12	12,473
898,30	13,098
898,47	13,063
898,65	12,990
898,82	12,913
899,00	12,545
899,17	13,247
899,35	13,594
899,52	14,322
899,70	13,347
899,87	12,861
900,05	12,912
900,22	13,182
900,40	13,047
900,57	13,211
900,75	13,438
900,92	13,532
901,10	13,007
901,27	12,823
901,45	12,958
901,62	12,569
901,80	12,237
901,97	13,033
902,15	13,141
902,32	13,321
902,50	12,989
902,67	13,467
902,85	13,202
903,02	12,518
903,20	12,365
903,37	13,333
903,54	13,105
903,72	13,103
903,89	12,948
904,07	12,797
904,24	12,810
904,42	12,110
904,59	13,517
904,77	13,427
904,94	13,183
905,12	12,788
905,29	13,065
905,47	13,061
905,64	13,403
905,81	13,085
905,99	12,969
906,16	13,349
906,34	12,578
906,51	12,757
906,69	12,892
906,86	12,209
907,03	12,837
907,21	12,951
907,38	12,681
907,56	13,305
907,73	11,859
907,91	12,905
908,08	12,600
908,25	12,565
908,43	12,742
908,60	11,805
908,78	12,895
908,95	12,648
909,13	12,023
909,30	11,546
909,47	11,510
909,65	11,677
909,82	12,356
910,00	12,626
910,17	11,721
910,34	11,950
910,52	12,054
910,69	12,187
910,87	11,232
911,04	12,344
911,21	11,920
911,39	11,683
911,56	11,559
911,73	12,000
911,91	11,968
912,08	11,761
912,26	11,117
912,43	12,276
912,60	12,130
912,78	12,187
912,95	11,335
913,13	11,477
913,30	12,077
913,47	11,810
913,65	11,573
913,82	11,572
913,99	11,435
914,17	12,271
914,34	12,126
914,51	12,198
914,69	11,943
914,86	12,733
915,03	11,580
915,21	10,760
915,38	11,360
915,56	11,406
915,73	11,351
915,90	11,009
916,08	12,314
916,25	12,067
916,42	11,382
916,60	11,329
916,77	10,769
916,94	11,470
917,12	10,837
917,29	10,777
917,46	11,153
917,64	10,875
917,81	11,586
917,98	11,379
918,16	11,158
918,33	11,451
918,50	12,055
918,67	11,173
918,85	11,354
919,02	11,284
919,19	11,090
919,37	11,089
919,54	11,481
919,71	10,663
919,89	11,231
920,06	10,874
920,23	10,684
920,41	11,385
920,58	10,468
920,75	11,301
920,92	11,295
921,10	10,479
921,27	9,977
921,44	10,520
921,62	10,959
921,79	10,920
921,96	11,181
922,13	12,042
922,31	10,597
922,48	11,532
922,65	11,273
922,82	10,951
923,00	10,045
923,17	10,273
923,34	10,728
923,52	10,604
923,69	10,264
923,86	10,115
924,03	9,409
924,21	10,313
924,38	10,174
924,55	10,332
924,72	9,727
924,90	10,421
925,07	9,591
925,24	9,603
925,41	9,793
925,59	9,544
925,76	9,208
925,93	9,541
926,10	8,735
926,28	9,929
926,45	10,017
926,62	9,668
926,79	9,240
926,96	9,219
927,14	10,229
927,31	9,334
927,48	9,549
927,65	10,148
927,83	9,373
928,00	9,572
928,17	9,389
928,34	8,763
928,51	9,527
928,69	9,625
928,86	9,341
929,03	10,077
929,20	9,895
929,37	8,965
929,55	10,159
929,72	9,168
929,89	8,844
930,06	9,170
930,23	9,613
930,41	8,998
930,58	9,082
930,75	8,980
930,92	9,662
931,09	9,546
931,27	9,567
931,44	9,649
931,61	9,440
931,78	9,790
931,95	9,685
932,12	9,407
932,30	9,321
932,47	9,935
932,64	9,949
932,81	9,098
932,98	9,830
933,16	9,649
933,33	9,934
933,50	8,752
933,67	9,502
933,84	8,803
934,01	8,791
934,18	9,345
934,36	9,429
934,53	9,725
934,70	9,200
934,87	9,969
935,04	9,572
935,21	9,655
935,38	9,559
935,56	9,480
935,73	9,183
935,90	9,180
936,07	9,809
936,24	9,582
936,41	10,250
936,58	9,145
936,76	9,280
936,93	9,305
937,10	8,983
937,27	9,074
937,44	9,358
937,61	9,947
937,78	8,538
937,95	9,465
938,13	9,186
938,30	9,539
938,47	9,294
938,64	9,248
938,81	8,651
938,98	9,631
939,15	9,305
939,32	10,282
939,49	8,926
939,66	9,303
939,84	9,738
940,01	8,821
940,18	8,333
940,35	8,962
940,52	9,201
940,69	9,000
940,86	9,159
941,03	9,026
941,20	8,974
941,37	8,845
941,54	8,800
941,71	8,457
941,89	8,541
942,06	8,509
942,23	8,621
942,40	8,229
942,57	8,762
942,74	8,393
942,91	9,099
943,08	8,481
943,25	8,430
943,42	8,597
943,59	9,019
943,76	8,023
943,93	8,319
944,10	8,911
944,27	8,511
944,44	9,576
944,61	8,684
944,79	8,757
944,96	9,167
945,13	8,754
945,30	8,592
945,47	8,773
945,64	8,287
945,81	8,368
945,98	9,098
946,15	8,863
946,32	8,790
946,49	9,002
946,66	8,710
946,83	9,095
947,00	8,896
947,17	9,542
947,34	9,274
947,51	9,326
947,68	9,528
947,85	8,606
948,02	9,097
948,19	8,581
948,36	10,035
948,53	9,076
948,70	9,434
948,87	9,208
949,04	9,982
949,21	10,443
949,38	10,031
949,55	9,801
949,72	10,296
949,89	10,031
950,06	9,894
950,23	9,904
950,40	10,507
950,57	10,337
950,74	10,431
950,91	10,707
951,08	10,657
951,25	11,143
951,42	10,986
951,59	11,524
951,76	10,330
951,93	10,425
952,10	11,313
952,27	11,089
952,44	10,212
952,61	11,040
952,77	12,596
952,94	11,497
953,11	11,224
953,28	10,843
953,45	11,629
953,62	10,819
953,79	10,750
953,96	10,723
954,13	11,478
954,30	10,132
954,47	10,354
954,64	10,645
954,81	11,038
954,98	11,230
955,15	9,502
955,32	8,998
955,49	10,167
955,65	11,078
955,82	10,846
955,99	10,991
956,16	11,060
956,33	12,366
956,50	9,961
956,67	11,625
956,84	11,526
957,01	11,046
957,18	10,995
957,35	11,191
957,52	11,475
957,68	11,562
957,85	10,707
958,02	10,993
958,19	11,287
958,36	11,572
958,53	12,758
958,70	11,736
958,87	12,500
959,04	12,467
959,21	12,125
959,37	13,335
959,54	13,538
959,71	11,833
959,88	11,749
960,05	13,066
960,22	13,014
960,39	12,202
960,56	12,423
960,72	14,278
960,89	14,376
961,06	13,273
961,23	13,511
961,40	13,594
961,57	12,474
961,74	13,081
961,90	14,904
962,07	13,542
962,24	14,789
962,41	12,094
962,58	12,845
962,75	12,510
962,92	12,917
963,08	13,870
963,25	12,497
963,42	14,715
963,59	13,372
963,76	12,637
963,93	14,820
964,10	13,556
964,26	14,842
964,43	13,295
964,60	13,378
964,77	13,239
964,94	14,515
965,10	13,309
965,27	14,834
965,44	14,229
965,61	15,822
965,78	14,529
965,95	15,141
966,11	15,162
966,28	16,228
966,45	14,572
966,62	13,405
966,79	14,845
966,95	14,198
967,12	14,916
967,29	14,027
967,46	16,105
967,63	14,787
967,79	15,300
967,96	13,477
968,13	11,977
968,30	15,279
968,47	12,991
968,63	15,232
968,80	15,264
968,97	15,073
969,14	12,763
969,31	14,987
969,47	14,741
969,64	14,492
969,81	14,321
969,98	12,770
970,14	15,856
970,31	14,693
970,48	15,556
970,65	14,208
970,81	15,631
970,98	15,880
971,15	15,353
971,32	14,040
971,48	13,676
971,65	15,890
971,82	16,602
971,99	15,890
972,15	15,200
972,32	17,363
972,49	14,863
972,66	16,585
972,82	15,491
972,99	14,025
973,16	15,433
973,33	15,955
973,49	15,994
973,66	14,320
973,83	14,883
974,00	16,619
974,16	15,575
974,33	16,401
974,50	15,197
974,67	16,225
974,83	15,672
975,00	15,652
975,17	15,309
975,33	16,490
975,50	15,573
975,67	13,739
975,84	15,883
976,00	14,567
976,17	13,636
976,34	16,183
976,50	14,832
976,67	16,468
976,84	16,815
977,00	15,906
977,17	17,006
977,34	14,413
977,50	13,495
977,67	14,688
977,84	15,695
978,01	14,587
978,17	15,263
978,34	17,937
978,51	15,278
978,67	15,381
978,84	14,984
979,01	15,009
979,17	16,779
979,34	17,739
979,51	17,350
979,67	14,871
979,84	16,048
980,01	16,521
980,17	16,017
980,34	16,982
980,51	17,569
980,67	19,153
980,84	16,157
981,01	16,492
981,17	16,186
981,34	16,937
981,50	14,855
981,67	17,211
981,84	11,312
982,00	13,297
982,17	14,452
982,34	14,279
982,50	16,267
982,67	14,893
982,84	14,092
983,00	14,001
983,17	14,020
983,33	17,285
983,50	15,303
983,67	17,736
983,83	15,885
984,00	17,715
984,17	14,009
984,33	16,119
984,50	13,808
984,66	14,973
984,83	14,972
985,00	15,261
985,16	17,128
985,33	15,305
985,49	14,111
985,66	16,792
985,83	14,110
985,99	13,915
986,16	15,551
986,32	16,735
986,49	16,869
986,66	14,293
986,82	16,784
986,99	15,380
987,15	15,617
987,32	17,779
987,49	14,204
987,65	15,107
987,82	14,614
987,98	14,230
988,15	14,970
988,31	18,016
988,48	15,566
988,65	15,273
988,81	18,136
988,98	16,131
989,14	15,143
989,31	17,516
989,47	16,845
989,64	17,336
989,80	15,591
989,97	17,666
990,14	14,675
990,30	18,713
990,47	18,705
990,63	16,928
990,80	18,580
990,96	18,432
991,13	16,489
991,29	16,334
991,46	17,985
991,62	16,648
991,79	15,230
991,95	16,901
992,12	16,227
992,29	15,709
992,45	17,874
992,62	14,146
992,78	14,697
992,95	14,053
993,11	17,075
993,28	15,053
993,44	14,134
993,61	16,242
993,77	12,861
993,94	15,944
994,10	16,224
994,27	16,402
994,43	15,827
994,60	19,561
994,76	17,099
994,93	13,139
995,09	15,338
995,26	16,529
995,42	12,422
995,59	13,556
995,75	19,078
995,92	14,639
996,08	15,404
996,25	18,464
996,41	15,335
996,58	18,713
996,74	16,123
996,91	17,341
997,07	11,761
997,23	15,962
997,40	16,756
997,56	15,479
997,73	15,815
997,89	13,357
998,06	15,846
998,22	14,617
998,39	13,718
998,55	17,314
998,72	14,786
998,88	17,095
999,05	17,289
999,21	11,475
999,37	16,740
999,54	17,814
999,70	16,863
999,87	18,879
1000,03	14,840
1000,20	14,167
1000,36	12,500
1000,52	17,423
1000,69	15,066
1000,85	18,278
1001,02	13,168
1001,18	14,807
1001,35	15,737
1001,51	17,937
1001,67	11,119
1001,84	15,105
1002,00	13,819
1002,17	17,741
1002,33	14,548
1002,50	19,461
1002,66	12,432
1002,82	14,740
1002,99	15,918
1003,15	20,480
1003,32	15,291
1003,48	13,428
1003,64	13,511
1003,81	19,921
1003,97	20,547
1004,14	13,906
1004,30	12,295
1004,46	15,130
1004,63	16,472
1004,79	21,193
1004,95	16,259
1005,12	20,658
1005,28	17,557
1005,45	18,159
1005,61	18,174
1005,77	15,649
1005,94	17,541
1006,10	15,973
1006,26	13,644
1006,43	20,733
1006,59	10,929
1006,76	14,178
1006,92	18,515
1007,08	14,822
1007,25	12,045
1007,41	16,046
1007,57	14,639
1007,74	21,099
1007,90	17,690
1008,06	14,709
1008,23	13,351
1008,39	17,326
1008,55	13,467
1008,72	16,622
1008,88	14,299
1009,04	18,381
1009,21	18,682
1009,37	13,146
1009,53	15,897
1009,70	11,739
1009,86	11,215
1010,02	11,893
1010,19	13,158
1010,35	14,520
1010,51	13,082
1010,68	18,199
1010,84	16,011
1011,00	16,724
1011,17	18,149
1011,33	16,155
1011,49	14,147
1011,66	20,019
1011,82	12,338
1011,98	13,694
1012,14	18,225
1012,31	18,148
1012,47	13,346
1012,63	14,717
1012,80	16,761
1012,96	13,096
1013,12	13,099
1013,29	15,665
1013,45	12,219
1013,61	17,868
1013,77	15,625
1013,94	17,304
1014,10	15,337
1014,26	13,226
1014,43	14,627
1014,59	14,021
1014,75	15,889
1014,91	16,701
1015,08	13,293
1015,24	14,736
1015,40	15,021
1015,56	13,679
1015,73	18,889
1015,89	19,345
1016,05	16,956
1016,21	16,068
1016,38	14,006
1016,54	16,337
1016,70	20,334
1016,86	13,141
1017,03	14,022
1017,19	14,398
1017,35	14,528
1017,51	13,866
1017,68	15,541
1017,84	11,349
1018,00	16,942
1018,16	15,533
1018,33	17,241
1018,49	11,351
1018,65	15,755
1018,81	14,116
1018,97	20,341
1019,14	14,350
1019,30	13,080
1019,46	23,804
1019,62	16,237
1019,79	14,931
1019,95	17,129
1020,11	14,573
1020,27	16,727
1020,43	15,348
1020,60	14,005
1020,76	14,675
1020,92	13,437
1021,08	17,216
1021,24	18,027
1021,41	11,213
1021,57	17,787
1021,73	12,227
1021,89	16,562
1022,05	15,783
1022,21	15,006
1022,38	15,636
1022,54	10,988
1022,70	13,919
1022,86	12,140
1023,02	17,594
1023,19	16,313
1023,35	14,986
1023,51	18,137
1023,67	14,567
1023,83	16,647
1023,99	15,296
1024,16	18,550
1024,32	3,930
1024,48	19,236
1024,64	12,784
1024,80	10,483
1024,96	11,331
1025,12	17,722
1025,29	13,154
1025,45	17,616
1025,61	15,762
1025,77	10,725
1025,93	9,409
1026,09	13,680
1026,26	16,520
1026,42	14,605
1026,58	15,100
1026,74	10,593
1026,90	17,047
1027,06	15,452
1027,22	17,832
1027,38	10,114
1027,55	13,655
1027,71	15,208
1027,87	11,297
1028,03	19,020
1028,19	6,305
1028,35	11,563
1028,51	15,743
1028,67	12,651
1028,83	16,871
1029,00	17,872
1029,16	15,423
1029,32	13,582
1029,48	11,243
1029,64	15,616
1029,80	20,370
1029,96	9,709
1030,12	14,263
1030,28	5,210
1030,44	12,553
1030,61	11,709
1030,77	12,825
1030,93	13,273
1031,09	17,612
1031,25	8,067
1031,41	13,084
1031,57	12,601
1031,73	17,886
1031,89	4,967
1032,05	12,759
1032,21	6,667
1032,37	9,191
1032,53	12,780
1032,69	11,782
1032,86	10,225
1033,02	12,816
1033,18	9,075
1033,34	9,807
1033,50	18,197
1033,66	16,848
1033,82	20,000
1033,98	14,234
1034,14	8,757
1034,30	9,091
1034,46	19,499
1034,62	19,048
1034,78	22,509
1034,94	12,016
1035,10	13,653
1035,26	9,481
1035,42	10,121
1035,58	12,030
1035,74	8,800
1035,90	10,291
1036,06	3,299
1036,22	21,786
1036,38	10,212
1036,54	14,115
1036,70	12,224
1036,86	21,839
1037,02	8,381
1037,18	13,396
1037,34	16,122
1037,50	14,876
1037,66	20,316
1037,82	8,705
1037,98	17,647
1038,14	24,947
1038,30	15,914
1038,46	11,855
1038,62	5,882
1038,78	11,633
1038,94	18,605
1039,10	12,840
1039,26	19,026
1039,42	22,445
1039,58	14,634
1039,74	18,203
1039,90	14,113
1040,06	15,691
>>>>>End Processed Spectral Data<<<<<
