SpectraSuite Data File
++++++++++++++++++++++++++++++++++++
Date: Wed Feb 01 15:30:07 EET 2017
User: optolab
Dark Spectrum Present: Yes
Reference Spectrum Present: Yes
Number of Sampled Component Spectra: 1
Spectrometers: USB4C02475
Integration Time (usec): 100000 (USB4C02475)
Spectra Averaged: 1 (USB4C02475)
Boxcar Smoothing: 0 (USB4C02475)
Correct for Electrical Dark: No (USB4C02475)
Strobe/Lamp Enabled: No (USB4C02475)
Correct for Detector Non-linearity: No (USB4C02475)
Correct for Stray Light: No (USB4C02475)
Number of Pixels in Processed Spectrum: 3648
>>>>>Begin Processed Spectral Data<<<<<
344,91	2250,000
345,13	2250,000
345,35	2250,000
345,57	0,000
345,79	315,789
346,00	-833,333
346,22	-528,571
346,44	182,353
346,66	-283,333
346,87	-6500,000
347,09	287,879
347,31	-109,091
347,53	-117,949
347,74	156,923
347,96	221,212
348,18	273,684
348,40	248,387
348,61	523,529
348,83	250,000
349,05	150,980
349,27	-3750,000
349,48	307,692
349,70	-82,759
349,92	132,258
350,14	173,585
350,35	208,000
350,57	1750,000
350,79	284,000
351,01	-219,048
351,22	161,111
351,44	246,154
351,66	-180,000
351,87	-404,762
352,09	159,615
352,31	121,311
352,53	71,875
352,74	175,000
352,96	174,026
353,18	289,474
353,40	272,000
353,61	128,889
353,83	214,706
354,05	636,364
354,26	1550,000
354,48	208,000
354,70	309,091
354,92	-113,793
355,13	157,576
355,35	200,000
355,57	525,000
355,78	146,988
356,00	-1250,000
356,22	292,308
356,44	4200,000
356,65	106,818
356,87	261,538
357,09	295,833
357,30	204,444
357,52	151,724
357,74	450,000
357,95	158,974
358,17	186,885
358,39	145,161
358,60	205,405
358,82	358,333
359,04	325,926
359,26	302,857
359,47	5600,000
359,69	87,500
359,91	181,818
360,12	271,429
360,34	395,833
360,56	51,852
360,77	2200,000
360,99	257,143
361,21	190,000
361,42	2850,000
361,64	104,082
361,86	190,769
362,07	-358,065
362,29	157,333
362,51	-52,941
362,72	228,000
362,94	202,941
363,16	95,349
363,37	-771,429
363,59	346,154
363,81	234,091
364,02	250,000
364,24	345,833
364,46	2366,667
364,67	509,091
364,89	1528,571
365,11	127,143
365,32	165,517
365,54	263,889
365,76	236,735
365,97	211,765
366,19	136,207
366,41	309,091
366,62	277,778
366,84	141,860
367,05	204,082
367,27	1250,000
367,49	-253,846
367,70	294,118
367,92	170,492
368,14	127,083
368,35	-8400,000
368,57	392,000
368,79	217,241
369,00	228,261
369,22	-1162,500
369,43	150,588
369,65	219,355
369,87	302,703
370,08	109,639
370,30	125,000
370,51	180,328
370,73	153,333
370,95	161,290
371,16	54,762
371,38	133,333
371,60	775,000
371,81	115,625
372,03	726,667
372,24	366,667
372,46	147,170
372,68	152,857
372,89	248,485
373,11	196,154
373,32	300,000
373,54	-446,154
373,76	515,385
373,97	400,000
374,19	263,636
374,40	217,187
374,62	-1966,667
374,84	3075,000
375,05	271,429
375,27	194,000
375,48	-5600,000
375,70	102,667
375,92	142,857
376,13	156,250
376,35	180,822
376,56	800,000
376,78	136,111
376,99	246,429
377,21	168,750
377,43	137,879
377,64	76,812
377,86	200,000
378,07	205,128
378,29	-350,000
378,51	325,806
378,72	162,500
378,94	-666,667
379,15	169,697
379,37	170,588
379,58	209,231
379,80	313,333
380,01	775,000
380,23	168,627
380,45	1400,000
380,66	2466,667
380,88	195,455
381,09	122,857
381,31	110,000
381,52	143,137
381,74	511,111
381,95	454,545
382,17	400,000
382,39	300,000
382,60	177,551
382,82	266,667
383,03	176,923
383,25	183,871
383,46	250,000
383,68	237,037
383,89	410,000
384,11	274,194
384,32	-766,667
384,54	250,000
384,76	-2033,333
384,97	269,697
385,19	293,103
385,40	162,745
385,62	173,684
385,83	204,762
386,05	152,941
386,26	174,000
386,48	140,230
386,69	216,667
386,91	225,000
387,12	206,780
387,34	134,483
387,55	175,806
387,77	412,500
387,98	315,385
388,20	119,565
388,41	200,000
388,63	800,000
388,84	109,836
389,06	211,905
389,27	342,105
389,49	263,889
389,70	157,143
389,92	236,667
390,13	104,082
390,35	198,039
390,56	142,593
390,78	148,148
390,99	620,000
391,21	373,684
391,42	153,333
391,64	173,171
391,85	158,621
392,07	61,364
392,28	144,000
392,50	151,515
392,71	-850,000
392,93	155,769
393,14	316,667
393,36	134,694
393,57	109,023
393,79	311,111
394,00	134,043
394,22	136,986
394,43	131,325
394,65	146,512
394,86	875,000
395,08	414,286
395,29	81,132
395,50	284,615
395,72	244,444
395,93	385,714
396,15	163,380
396,36	111,765
396,58	70,000
396,79	232,500
397,01	220,000
397,22	136,111
397,44	157,576
397,65	136,842
397,87	247,619
398,08	104,082
398,29	234,375
398,51	75,000
398,72	197,561
398,94	98,462
399,15	197,143
399,37	143,860
399,58	142,857
399,80	413,636
400,01	87,037
400,22	138,095
400,44	175,309
400,65	296,429
400,87	175,000
401,08	98,571
401,30	139,130
401,51	94,737
401,72	257,692
401,94	182,278
402,15	180,000
402,37	105,882
402,58	472,222
402,80	62,857
403,01	235,211
403,22	354,545
403,44	172,464
403,65	98,214
403,87	121,429
404,08	284,615
404,30	116,471
404,51	-1533,333
404,72	81,429
404,94	98,039
405,15	134,000
405,37	132,911
405,58	85,882
405,79	134,146
406,01	97,561
406,22	82,759
406,44	163,830
406,65	128,070
406,86	-18,750
407,08	44,304
407,29	91,262
407,51	96,341
407,72	94,444
407,93	96,739
408,15	53,846
408,36	127,907
408,58	54,639
408,79	52,500
409,00	104,167
409,22	87,302
409,43	102,532
409,64	77,640
409,86	69,182
410,07	71,538
410,29	41,791
410,50	70,922
410,71	58,929
410,93	64,968
411,14	92,248
411,35	48,810
411,57	51,316
411,78	32,813
412,00	65,605
412,21	18,065
412,42	54,497
412,64	34,335
412,85	23,196
413,06	37,195
413,28	18,018
413,49	26,066
413,70	49,638
413,92	41,897
414,13	21,162
414,34	21,839
414,56	25,524
414,77	44,726
414,98	28,523
415,20	23,529
415,41	25,779
415,63	23,632
415,84	25,833
416,05	20,879
416,27	21,964
416,48	33,989
416,69	20,354
416,91	18,108
417,12	21,925
417,33	22,105
417,55	19,920
417,76	31,622
417,97	15,145
418,19	4,573
418,40	20,000
418,61	13,519
418,83	15,273
419,04	15,300
419,25	10,748
419,46	15,789
419,68	12,063
419,89	7,899
420,10	11,837
420,32	9,838
420,53	15,589
420,74	8,513
420,96	14,125
421,17	12,702
421,38	11,425
421,60	12,031
421,81	9,339
422,02	8,150
422,23	8,263
422,45	6,900
422,66	11,223
422,87	9,503
423,09	8,658
423,30	9,975
423,51	8,976
423,73	6,902
423,94	9,874
424,15	7,755
424,36	9,634
424,58	7,438
424,79	7,370
425,00	6,192
425,22	7,349
425,43	5,345
425,64	8,871
425,85	9,630
426,07	10,575
426,28	11,374
426,49	19,290
426,71	25,057
426,92	35,000
427,13	46,418
427,34	62,986
427,56	71,072
427,77	81,625
427,98	87,066
428,19	89,368
428,41	89,810
428,62	94,198
428,83	90,407
429,04	91,400
429,26	94,419
429,47	95,247
429,68	90,597
429,89	94,003
430,11	93,694
430,32	90,380
430,53	93,944
430,74	95,945
430,96	94,639
431,17	95,282
431,38	93,925
431,59	93,513
431,81	94,374
432,02	91,972
432,23	93,033
432,44	91,629
432,66	92,815
432,87	94,008
433,08	91,677
433,29	93,475
433,51	92,380
433,72	95,992
433,93	93,997
434,14	95,417
434,35	97,598
434,57	94,693
434,78	99,852
434,99	97,240
435,20	95,629
435,42	97,994
435,63	94,899
435,84	96,936
436,05	92,730
436,26	96,207
436,48	92,719
436,69	95,183
436,90	92,501
437,11	92,432
437,32	92,736
437,54	93,444
437,75	92,314
437,96	90,603
438,17	89,843
438,38	93,391
438,60	92,872
438,81	92,555
439,02	96,124
439,23	94,099
439,44	93,867
439,66	94,352
439,87	94,459
440,08	94,858
440,29	95,164
440,50	94,566
440,72	94,306
440,93	95,574
441,14	94,284
441,35	95,320
441,56	93,319
441,77	92,633
441,99	93,510
442,20	92,496
442,41	91,975
442,62	93,505
442,83	93,638
443,04	95,197
443,26	96,141
443,47	96,275
443,68	96,504
443,89	96,139
444,10	96,476
444,31	96,602
444,53	96,019
444,74	97,632
444,95	95,732
445,16	96,528
445,37	95,444
445,58	95,410
445,80	96,216
446,01	95,986
446,22	95,356
446,43	94,685
446,64	93,363
446,85	94,170
447,06	93,176
447,28	92,684
447,49	91,211
447,70	92,473
447,91	92,438
448,12	92,745
448,33	93,122
448,54	94,243
448,76	93,881
448,97	92,950
449,18	94,130
449,39	94,154
449,60	94,565
449,81	94,430
450,02	96,077
450,23	95,785
450,45	96,293
450,66	96,783
450,87	97,469
451,08	96,920
451,29	95,866
451,50	96,730
451,71	95,412
451,92	95,820
452,13	94,367
452,35	95,564
452,56	93,808
452,77	93,616
452,98	91,865
453,19	93,163
453,40	91,615
453,61	91,703
453,82	91,491
454,03	90,799
454,25	92,639
454,46	93,257
454,67	91,783
454,88	93,230
455,09	93,914
455,30	93,339
455,51	93,778
455,72	94,993
455,93	94,667
456,14	94,410
456,35	95,555
456,56	95,019
456,78	94,997
456,99	95,251
457,20	95,294
457,41	94,954
457,62	95,179
457,83	94,533
458,04	95,841
458,25	96,739
458,46	94,965
458,67	94,017
458,88	93,036
459,09	92,107
459,30	91,563
459,51	90,810
459,73	90,437
459,94	90,215
460,15	89,518
460,36	89,124
460,57	88,391
460,78	84,793
460,99	82,372
461,20	79,529
461,41	77,416
461,62	74,507
461,83	74,199
462,04	72,821
462,25	74,233
462,46	73,899
462,67	74,835
462,88	73,477
463,09	69,251
463,30	60,931
463,51	49,329
463,72	33,988
463,93	19,574
464,15	10,409
464,36	4,801
464,57	2,661
464,78	1,629
464,99	1,193
465,20	0,885
465,41	0,805
465,62	0,808
465,83	0,728
466,04	0,695
466,25	0,507
466,46	0,600
466,67	0,373
466,88	0,658
467,09	0,680
467,30	0,527
467,51	0,560
467,72	0,555
467,93	0,670
468,14	0,391
468,35	0,490
468,56	0,417
468,77	0,484
468,98	0,650
469,19	0,506
469,40	0,498
469,61	0,533
469,82	0,423
470,03	0,472
470,24	0,754
470,45	0,477
470,66	0,545
470,87	0,412
471,08	0,651
471,29	0,412
471,50	0,496
471,71	0,450
471,92	0,570
472,13	0,436
472,34	0,528
472,55	0,528
472,76	0,442
472,97	0,372
473,18	0,578
473,39	0,474
473,60	0,635
473,81	0,497
474,01	0,579
474,22	0,561
474,43	0,791
474,64	0,515
474,85	0,365
475,06	0,446
475,27	0,404
475,48	0,589
475,69	0,483
475,90	0,448
476,11	0,351
476,32	0,411
476,53	0,504
476,74	0,610
476,95	0,543
477,16	0,488
477,37	0,452
477,58	0,482
477,79	0,594
478,00	0,393
478,21	0,590
478,41	0,602
478,62	0,366
478,83	0,463
479,04	0,580
479,25	0,504
479,46	0,437
479,67	0,677
479,88	0,729
480,09	0,562
480,30	0,740
480,51	0,635
480,72	0,694
480,93	0,656
481,14	0,599
481,34	0,497
481,55	0,452
481,76	0,445
481,97	0,669
482,18	0,565
482,39	0,634
482,60	0,456
482,81	0,663
483,02	0,453
483,23	0,535
483,44	0,598
483,65	0,720
483,85	0,463
484,06	0,622
484,27	0,449
484,48	0,514
484,69	0,617
484,90	0,617
485,11	0,454
485,32	0,529
485,53	0,536
485,73	0,771
485,94	0,439
486,15	0,562
486,36	0,328
486,57	0,558
486,78	0,664
486,99	0,730
487,20	0,768
487,41	0,585
487,61	0,670
487,82	0,633
488,03	0,454
488,24	0,523
488,45	0,575
488,66	0,681
488,87	0,516
489,08	0,505
489,28	0,520
489,49	0,863
489,70	0,574
489,91	0,577
490,12	0,596
490,33	0,596
490,54	0,621
490,74	0,596
490,95	0,618
491,16	0,754
491,37	0,780
491,58	0,597
491,79	0,406
492,00	0,639
492,20	0,725
492,41	0,541
492,62	0,449
492,83	0,594
493,04	0,552
493,25	0,501
493,45	0,581
493,66	0,695
493,87	0,676
494,08	0,532
494,29	0,487
494,50	0,682
494,70	0,595
494,91	0,714
495,12	0,836
495,33	0,816
495,54	0,937
495,75	1,032
495,95	0,770
496,16	0,964
496,37	0,866
496,58	0,995
496,79	0,896
496,99	0,726
497,20	0,745
497,41	0,835
497,62	0,876
497,83	1,016
498,04	0,933
498,24	0,988
498,45	1,093
498,66	1,291
498,87	1,347
499,08	1,660
499,28	3,033
499,49	5,647
499,70	11,756
499,91	22,321
500,12	36,088
500,32	52,321
500,53	66,256
500,74	74,853
500,95	77,495
501,15	75,587
501,36	72,486
501,57	69,008
501,78	65,809
501,99	65,087
502,19	66,429
502,40	67,856
502,61	72,763
502,82	77,926
503,02	82,467
503,23	86,631
503,44	90,578
503,65	92,812
503,86	93,502
504,06	94,490
504,27	93,876
504,48	94,379
504,69	94,303
504,89	94,066
505,10	92,637
505,31	92,995
505,52	92,666
505,72	93,308
505,93	92,155
506,14	92,784
506,35	92,740
506,55	93,038
506,76	92,807
506,97	94,225
507,18	94,910
507,38	96,090
507,59	95,015
507,80	95,728
508,01	95,650
508,21	94,837
508,42	96,111
508,63	95,405
508,84	95,557
509,04	96,040
509,25	95,050
509,46	94,697
509,67	94,762
509,87	95,965
510,08	96,738
510,29	96,296
510,49	96,538
510,70	97,568
510,91	97,097
511,12	96,915
511,32	97,513
511,53	95,023
511,74	95,684
511,94	96,274
512,15	96,200
512,36	96,949
512,57	96,319
512,77	96,706
512,98	94,830
513,19	95,111
513,39	95,275
513,60	94,281
513,81	95,083
514,01	95,004
514,22	94,012
514,43	94,570
514,64	94,344
514,84	95,038
515,05	94,885
515,26	95,012
515,46	95,045
515,67	94,583
515,88	94,837
516,08	95,358
516,29	95,205
516,50	94,736
516,70	94,257
516,91	94,071
517,12	94,822
517,32	94,869
517,53	95,563
517,74	95,959
517,95	95,511
518,15	95,689
518,36	95,121
518,57	96,355
518,77	96,691
518,98	97,006
519,19	97,812
519,39	96,776
519,60	97,036
519,80	97,364
520,01	97,607
520,22	98,006
520,42	97,826
520,63	96,854
520,84	97,308
521,04	97,322
521,25	96,154
521,46	95,774
521,66	94,690
521,87	94,483
522,08	94,761
522,28	93,634
522,49	94,309
522,70	93,373
522,90	93,755
523,11	95,292
523,31	95,561
523,52	96,250
523,73	96,781
523,93	94,967
524,14	96,249
524,35	96,071
524,55	95,099
524,76	95,804
524,97	95,377
525,17	95,400
525,38	94,263
525,58	93,779
525,79	93,361
526,00	94,613
526,20	93,899
526,41	94,372
526,61	94,457
526,82	94,248
527,03	94,699
527,23	95,611
527,44	94,654
527,64	95,763
527,85	96,080
528,06	95,410
528,26	96,927
528,47	96,210
528,68	96,539
528,88	97,390
529,09	96,769
529,29	97,515
529,50	98,499
529,70	98,730
529,91	96,776
530,12	96,731
530,32	96,147
530,53	96,651
530,73	96,170
530,94	96,478
531,15	96,615
531,35	95,711
531,56	96,554
531,76	95,351
531,97	96,059
532,17	96,379
532,38	95,994
532,59	96,654
532,79	96,950
533,00	95,419
533,20	95,182
533,41	95,645
533,61	95,072
533,82	95,044
534,03	94,104
534,23	94,930
534,44	95,575
534,64	94,513
534,85	94,224
535,05	96,410
535,26	95,582
535,46	96,087
535,67	97,341
535,88	96,736
536,08	96,914
536,29	97,907
536,49	96,796
536,70	96,928
536,90	97,298
537,11	96,239
537,31	96,067
537,52	98,313
537,72	97,919
537,93	97,258
538,13	96,864
538,34	97,727
538,55	97,771
538,75	95,739
538,96	95,390
539,16	94,070
539,37	93,320
539,57	93,183
539,78	91,122
539,98	90,395
540,19	90,501
540,39	90,730
540,60	90,820
540,80	90,772
541,01	91,063
541,21	92,544
541,42	89,810
541,62	89,574
541,83	88,295
542,03	86,095
542,24	83,994
542,44	81,995
542,65	79,863
542,85	79,059
543,06	78,473
543,26	77,776
543,47	79,368
543,67	78,658
543,88	80,578
544,08	83,186
544,29	82,740
544,49	83,159
544,70	83,118
544,90	80,993
545,11	80,652
545,31	77,751
545,52	76,845
545,72	75,904
545,93	73,843
546,13	68,129
546,34	58,178
546,54	43,979
546,75	29,416
546,95	17,453
547,15	10,341
547,36	5,969
547,56	3,958
547,77	2,534
547,97	1,949
548,18	1,513
548,38	1,125
548,59	0,837
548,79	0,565
549,00	0,698
549,20	0,832
549,41	0,683
549,61	0,597
549,81	0,612
550,02	0,806
550,22	0,676
550,43	0,543
550,63	0,736
550,84	0,527
551,04	0,751
551,25	0,712
551,45	0,530
551,65	0,574
551,86	0,716
552,06	0,743
552,27	0,513
552,47	0,838
552,68	0,675
552,88	0,459
553,08	0,486
553,29	0,584
553,49	0,431
553,70	0,614
553,90	0,502
554,11	0,524
554,31	0,523
554,51	0,477
554,72	0,600
554,92	0,668
555,13	0,594
555,33	0,808
555,53	0,618
555,74	0,475
555,94	0,582
556,15	0,376
556,35	0,511
556,56	0,561
556,76	0,698
556,96	0,509
557,17	0,535
557,37	0,639
557,58	0,614
557,78	0,479
557,98	0,423
558,19	0,539
558,39	0,690
558,59	0,479
558,80	0,679
559,00	0,490
559,21	0,549
559,41	0,325
559,61	0,443
559,82	0,541
560,02	0,494
560,23	0,655
560,43	0,472
560,63	0,520
560,84	0,497
561,04	0,484
561,24	0,471
561,45	0,370
561,65	0,538
561,85	0,698
562,06	0,530
562,26	0,425
562,47	0,537
562,67	0,532
562,87	0,481
563,08	0,532
563,28	0,409
563,48	0,610
563,69	0,526
563,89	0,592
564,09	0,680
564,30	0,673
564,50	0,709
564,70	0,609
564,91	0,645
565,11	0,435
565,31	0,557
565,52	0,433
565,72	0,490
565,92	0,732
566,13	0,493
566,33	0,442
566,53	0,518
566,74	0,556
566,94	0,547
567,14	0,347
567,35	0,532
567,55	0,651
567,75	0,597
567,96	0,504
568,16	0,539
568,36	0,459
568,57	0,621
568,77	0,510
568,97	0,493
569,18	0,557
569,38	0,621
569,58	0,521
569,79	0,522
569,99	0,510
570,19	0,743
570,39	0,557
570,60	0,420
570,80	0,614
571,00	0,521
571,21	0,508
571,41	0,600
571,61	0,665
571,82	0,565
572,02	0,700
572,22	0,618
572,42	0,660
572,63	0,784
572,83	0,665
573,03	0,422
573,24	0,722
573,44	0,491
573,64	0,645
573,84	0,733
574,05	0,605
574,25	0,679
574,45	0,694
574,66	0,873
574,86	0,871
575,06	1,027
575,26	0,847
575,47	0,872
575,67	1,037
575,87	0,807
576,07	0,826
576,28	1,113
576,48	0,982
576,68	1,034
576,88	1,001
577,09	0,922
577,29	1,037
577,49	1,145
577,69	1,369
577,90	1,916
578,10	2,813
578,30	4,863
578,50	9,055
578,71	16,194
578,91	26,873
579,11	39,970
579,31	53,941
579,52	67,840
579,72	75,623
579,92	81,810
580,12	86,124
580,33	87,513
580,53	86,951
580,73	85,561
580,93	84,970
581,13	84,087
581,34	83,205
581,54	81,384
581,74	81,977
581,94	82,642
582,15	83,668
582,35	84,500
582,55	84,957
582,75	87,993
582,95	88,705
583,16	88,868
583,36	90,424
583,56	91,483
583,76	90,334
583,96	91,259
584,17	91,179
584,37	91,763
584,57	91,150
584,77	90,949
584,97	91,234
585,18	91,067
585,38	90,887
585,58	91,453
585,78	92,450
585,98	91,888
586,19	93,899
586,39	93,974
586,59	95,116
586,79	95,686
586,99	95,726
587,20	94,886
587,40	95,665
587,60	94,826
587,80	94,591
588,00	92,677
588,20	91,242
588,41	92,676
588,61	91,121
588,81	91,039
589,01	91,407
589,21	90,529
589,41	91,186
589,62	91,947
589,82	93,898
590,02	93,433
590,22	94,828
590,42	95,704
590,62	95,621
590,83	96,432
591,03	96,807
591,23	97,064
591,43	97,106
591,63	97,149
591,83	97,603
592,03	95,759
592,24	96,318
592,44	96,675
592,64	96,510
592,84	96,275
593,04	95,487
593,24	96,147
593,44	96,961
593,65	96,723
593,85	96,931
594,05	95,720
594,25	96,061
594,45	96,171
594,65	96,097
594,85	95,773
595,06	95,785
595,26	94,616
595,46	95,803
595,66	95,923
595,86	95,799
596,06	95,634
596,26	96,505
596,46	97,040
596,66	96,531
596,87	96,524
597,07	97,776
597,27	97,149
597,47	97,956
597,67	97,446
597,87	96,779
598,07	95,885
598,27	96,657
598,47	96,665
598,67	96,976
598,88	96,762
599,08	95,964
599,28	97,141
599,48	97,293
599,68	97,198
599,88	97,174
600,08	98,006
600,28	97,513
600,48	98,141
600,68	96,909
600,88	97,670
601,09	97,952
601,29	96,129
601,49	97,147
601,69	96,454
601,89	96,411
602,09	95,524
602,29	95,112
602,49	94,894
602,69	95,608
602,89	95,116
603,09	95,899
603,29	95,907
603,49	95,168
603,69	95,518
603,90	95,423
604,10	95,777
604,30	95,244
604,50	95,572
604,70	95,392
604,90	94,936
605,10	95,740
605,30	96,337
605,50	94,835
605,70	95,373
605,90	95,023
606,10	94,272
606,30	94,734
606,50	95,815
606,70	96,545
606,90	96,011
607,10	95,369
607,30	96,559
607,50	94,983
607,70	96,091
607,90	97,107
608,10	96,387
608,30	95,892
608,50	96,749
608,70	96,164
608,90	97,649
609,11	97,485
609,31	97,082
609,51	98,207
609,71	97,038
609,91	97,659
610,11	98,090
610,31	97,175
610,51	97,709
610,71	97,950
610,91	97,254
611,11	95,803
611,31	96,257
611,51	95,298
611,71	96,121
611,91	95,218
612,11	96,661
612,31	96,293
612,51	96,178
612,71	97,311
612,91	97,871
613,11	96,806
613,31	96,427
613,51	95,860
613,71	94,063
613,91	92,697
614,11	92,681
614,31	89,020
614,50	87,592
614,70	85,285
614,90	84,222
615,10	83,487
615,30	83,337
615,50	82,256
615,70	83,105
615,90	84,538
616,10	85,503
616,30	86,392
616,50	88,660
616,70	88,454
616,90	91,842
617,10	91,250
617,30	91,968
617,50	91,665
617,70	91,107
617,90	90,614
618,10	87,263
618,30	87,028
618,50	86,174
618,70	85,660
618,90	84,162
619,10	81,473
619,30	74,203
619,49	65,174
619,69	51,233
619,89	37,758
620,09	25,491
620,29	16,524
620,49	10,374
620,69	6,535
620,89	4,120
621,09	2,939
621,29	2,295
621,49	1,537
621,69	1,237
621,89	1,150
622,09	0,851
622,29	0,742
622,48	0,681
622,68	0,429
622,88	0,511
623,08	0,482
623,28	0,512
623,48	0,536
623,68	0,484
623,88	0,535
624,08	0,589
624,28	0,298
624,48	0,551
624,67	0,557
624,87	0,529
625,07	0,528
625,27	0,371
625,47	0,506
625,67	0,471
625,87	0,464
626,07	0,651
626,27	0,426
626,47	0,386
626,66	0,510
626,86	0,427
627,06	0,344
627,26	0,534
627,46	0,280
627,66	0,467
627,86	0,391
628,06	0,408
628,25	0,328
628,45	0,353
628,65	0,306
628,85	0,355
629,05	0,532
629,25	0,629
629,45	0,264
629,65	0,427
629,84	0,396
630,04	0,528
630,24	0,454
630,44	0,364
630,64	0,538
630,84	0,473
631,04	0,416
631,23	0,226
631,43	0,467
631,63	0,402
631,83	0,367
632,03	0,438
632,23	0,406
632,42	0,458
632,62	0,606
632,82	0,341
633,02	0,266
633,22	0,419
633,42	0,349
633,62	0,419
633,81	0,405
634,01	0,273
634,21	0,401
634,41	0,451
634,61	0,388
634,80	0,364
635,00	0,468
635,20	0,382
635,40	0,721
635,60	0,544
635,80	0,376
635,99	0,192
636,19	0,319
636,39	0,667
636,59	0,467
636,79	0,630
636,98	0,613
637,18	0,562
637,38	0,705
637,58	0,495
637,78	0,448
637,97	0,571
638,17	0,700
638,37	0,499
638,57	0,454
638,77	0,490
638,96	0,523
639,16	0,571
639,36	0,413
639,56	0,442
639,76	0,628
639,95	0,570
640,15	0,408
640,35	0,607
640,55	0,393
640,75	0,595
640,94	0,588
641,14	0,583
641,34	0,565
641,54	0,557
641,73	0,566
641,93	0,634
642,13	0,584
642,33	0,399
642,53	0,423
642,72	0,661
642,92	0,634
643,12	0,347
643,32	0,789
643,51	0,949
643,71	0,592
643,91	0,534
644,11	0,740
644,30	0,756
644,50	0,585
644,70	0,478
644,90	0,487
645,09	0,754
645,29	0,487
645,49	0,768
645,69	1,029
645,88	0,489
646,08	0,673
646,28	0,777
646,48	0,980
646,67	0,528
646,87	0,630
647,07	0,642
647,26	0,823
647,46	0,735
647,66	0,815
647,86	0,880
648,05	0,754
648,25	0,544
648,45	0,855
648,65	1,069
648,84	0,722
649,04	1,097
649,24	1,114
649,43	0,850
649,63	1,181
649,83	1,071
650,03	0,879
650,22	0,659
650,42	0,829
650,62	0,272
650,81	0,905
651,01	0,601
651,21	0,957
651,40	0,986
651,60	0,613
651,80	0,509
652,00	1,099
652,19	0,870
652,39	0,802
652,59	0,843
652,78	1,082
652,98	0,789
653,18	0,464
653,37	0,553
653,57	0,649
653,77	0,610
653,96	0,925
654,16	0,855
654,36	0,988
654,55	1,345
654,75	0,607
654,95	1,284
655,14	0,746
655,34	0,959
655,54	1,080
655,73	0,839
655,93	1,357
656,13	1,088
656,32	0,405
656,52	0,821
656,72	1,443
656,91	1,607
657,11	1,326
657,31	1,571
657,50	1,569
657,70	2,094
657,90	3,237
658,09	4,967
658,29	8,516
658,49	13,209
658,68	19,790
658,88	29,398
659,07	37,914
659,27	47,361
659,47	54,747
659,66	61,624
659,86	66,486
660,06	70,503
660,25	72,497
660,45	75,687
660,64	78,337
660,84	77,244
661,04	79,029
661,23	79,142
661,43	79,073
661,63	79,042
661,82	78,976
662,02	81,981
662,21	81,231
662,41	82,604
662,61	84,546
662,80	87,395
663,00	87,682
663,19	90,854
663,39	91,169
663,59	93,041
663,78	93,427
663,98	93,557
664,17	94,224
664,37	95,844
664,57	95,282
664,76	95,872
664,96	95,116
665,15	95,257
665,35	95,247
665,55	93,596
665,74	95,642
665,94	93,774
666,13	94,207
666,33	95,038
666,53	94,627
666,72	95,571
666,92	94,129
667,11	95,696
667,31	95,129
667,50	95,945
667,70	96,872
667,90	94,812
668,09	98,334
668,29	96,677
668,48	96,065
668,68	95,207
668,87	95,449
669,07	96,203
669,26	95,639
669,46	96,213
669,66	96,246
669,85	97,582
670,05	96,206
670,24	95,017
670,44	97,365
670,63	97,528
670,83	98,225
671,02	97,726
671,22	98,588
671,42	97,158
671,61	94,957
671,81	95,661
672,00	94,142
672,20	96,522
672,39	94,433
672,59	92,169
672,78	91,059
672,98	92,975
673,17	92,102
673,37	92,588
673,56	92,856
673,76	92,941
673,95	93,733
674,15	94,293
674,34	96,614
674,54	95,526
674,73	95,552
674,93	96,793
675,13	96,269
675,32	96,611
675,52	96,086
675,71	96,781
675,91	96,811
676,10	95,954
676,30	95,186
676,49	95,749
676,69	94,868
676,88	95,094
677,08	94,162
677,27	94,264
677,47	94,048
677,66	94,277
677,86	94,527
678,05	93,470
678,24	93,905
678,44	95,615
678,63	94,155
678,83	95,001
679,02	95,822
679,22	94,798
679,41	95,358
679,61	95,745
679,80	95,699
680,00	95,577
680,19	96,430
680,39	95,898
680,58	97,131
680,78	94,800
680,97	95,533
681,17	96,142
681,36	95,999
681,56	94,665
681,75	94,551
681,94	93,377
682,14	93,773
682,33	92,429
682,53	93,902
682,72	92,343
682,92	92,236
683,11	90,351
683,31	91,109
683,50	91,459
683,69	91,922
683,89	90,830
684,08	90,584
684,28	91,576
684,47	91,029
684,67	90,870
684,86	89,244
685,06	90,292
685,25	90,388
685,44	91,647
685,64	89,486
685,83	90,066
686,03	90,814
686,22	90,786
686,42	90,598
686,61	92,088
686,80	91,329
687,00	92,178
687,19	92,825
687,39	91,951
687,58	92,615
687,77	93,841
687,97	92,648
688,16	94,039
688,36	91,824
688,55	91,344
688,74	91,004
688,94	90,402
689,13	88,718
689,33	87,260
689,52	85,540
689,71	84,637
689,91	82,742
690,10	81,521
690,30	81,659
690,49	80,952
690,68	80,787
690,88	80,497
691,07	82,084
691,27	83,870
691,46	84,426
691,65	85,738
691,85	85,680
692,04	84,996
692,23	80,336
692,43	75,661
692,62	67,974
692,82	59,694
693,01	51,293
693,20	44,897
693,40	37,108
693,59	31,178
693,78	26,948
693,98	24,573
694,17	23,310
694,36	24,740
694,56	27,812
694,75	32,527
694,94	38,583
695,14	43,450
695,33	44,390
695,53	41,836
695,72	34,910
695,91	27,118
696,11	20,361
696,30	14,118
696,49	9,626
696,69	6,725
696,88	4,880
697,07	3,674
697,27	2,895
697,46	2,376
697,65	1,552
697,85	1,314
698,04	1,155
698,23	1,085
698,43	1,122
698,62	0,953
698,81	0,740
699,01	1,055
699,20	0,564
699,39	0,739
699,58	0,883
699,78	1,258
699,97	0,649
700,16	0,825
700,36	0,804
700,55	1,340
700,74	0,831
700,94	1,112
701,13	0,929
701,32	1,538
701,52	1,001
701,71	0,450
701,90	0,989
702,09	1,185
702,29	0,956
702,48	1,113
702,67	1,173
702,87	0,848
703,06	1,726
703,25	1,071
703,44	1,000
703,64	1,905
703,83	1,598
704,02	0,779
704,22	1,268
704,41	0,300
704,60	1,683
704,79	1,001
704,99	1,944
705,18	1,820
705,37	1,379
705,56	2,343
705,76	2,686
705,95	1,391
706,14	1,374
706,33	2,903
706,53	1,665
706,72	1,096
706,91	2,244
707,11	2,655
707,30	2,499
707,49	2,226
707,68	0,956
707,88	2,047
708,07	0,838
708,26	2,554
708,45	1,794
708,64	2,200
708,84	2,443
709,03	1,988
709,22	2,076
709,41	2,426
709,61	3,027
709,80	3,276
709,99	3,979
710,18	3,218
710,38	3,219
710,57	0,686
710,76	2,106
710,95	1,912
711,14	3,776
711,34	2,760
711,53	4,978
711,72	2,023
711,91	1,709
712,11	3,790
712,30	4,792
712,49	3,023
712,68	3,173
712,87	5,676
713,07	3,393
713,26	3,219
713,45	5,880
713,64	1,203
713,83	3,487
714,03	5,502
714,22	2,383
714,41	2,814
714,60	3,603
714,79	1,917
714,99	4,528
715,18	3,284
715,37	3,139
715,56	5,631
715,75	3,347
715,94	3,862
716,14	2,315
716,33	3,017
716,52	3,545
716,71	4,302
716,90	4,193
717,10	3,127
717,29	1,486
717,48	6,382
717,67	1,830
717,86	1,422
718,05	0,659
718,24	5,153
718,44	3,044
718,63	2,407
718,82	6,423
719,01	4,991
719,20	-0,131
719,39	4,688
719,59	3,579
719,78	5,548
719,97	3,835
720,16	5,963
720,35	4,705
720,54	5,430
720,73	3,360
720,93	6,452
721,12	2,362
721,31	3,736
721,50	3,709
721,69	2,752
721,88	3,997
722,07	3,440
722,27	5,041
722,46	3,713
722,65	4,088
722,84	5,730
723,03	-0,514
723,22	9,574
723,41	3,960
723,60	6,516
723,79	3,867
723,99	4,467
724,18	6,535
724,37	7,648
724,56	6,601
724,75	5,169
724,94	8,108
725,13	7,872
725,32	5,608
725,51	7,557
725,71	5,682
725,90	4,225
726,09	12,938
726,28	6,803
726,47	4,004
726,66	5,953
726,85	3,893
727,04	5,400
727,23	4,175
727,42	8,976
727,61	3,598
727,81	5,005
728,00	8,528
728,19	5,721
728,38	1,728
728,57	4,927
728,76	6,263
728,95	6,138
729,14	2,831
729,33	11,526
729,52	7,649
729,71	3,789
729,90	4,937
730,09	4,556
730,28	9,584
730,48	3,364
730,67	8,222
730,86	3,234
731,05	9,579
731,24	8,078
731,43	6,541
731,62	8,020
731,81	4,956
732,00	7,243
732,19	3,065
732,38	4,188
732,57	2,997
732,76	10,952
732,95	4,133
733,14	4,161
733,33	8,104
733,52	8,959
733,71	6,769
733,90	12,853
734,09	4,619
734,28	7,862
734,47	2,763
734,66	11,262
734,85	9,504
735,04	9,264
735,23	9,788
735,42	13,545
735,61	12,133
735,81	10,621
736,00	10,994
736,19	5,917
736,38	10,370
736,57	15,181
736,76	8,062
736,95	12,121
737,14	8,511
737,33	11,075
737,52	11,916
737,71	1,763
737,90	7,867
738,09	10,276
738,28	11,802
738,47	2,941
738,66	9,531
738,85	6,529
739,04	7,980
739,22	14,189
739,41	8,548
739,60	10,201
739,79	10,445
739,98	5,808
740,17	14,626
740,36	13,214
740,55	18,166
740,74	6,087
740,93	2,236
741,12	11,029
741,31	13,971
741,50	12,994
741,69	3,519
741,88	3,600
742,07	7,040
742,26	-0,187
742,45	8,498
742,64	15,827
742,83	3,830
743,02	8,468
743,21	14,487
743,40	9,405
743,59	2,049
743,78	12,882
743,97	13,722
744,16	8,426
744,34	13,386
744,53	5,533
744,72	18,503
744,91	8,211
745,10	17,970
745,29	7,801
745,48	12,720
745,67	14,257
745,86	1,643
746,05	14,612
746,24	17,429
746,43	15,366
746,62	13,364
746,81	5,708
747,00	18,372
747,18	14,505
747,37	16,205
747,56	14,382
747,75	6,346
747,94	20,350
748,13	10,959
748,32	27,991
748,51	14,447
748,70	22,542
748,89	15,700
749,08	13,143
749,26	16,229
749,45	16,000
749,64	8,437
749,83	12,977
750,02	13,536
750,21	4,106
750,40	13,021
750,59	17,689
750,78	18,639
750,96	24,302
751,15	18,579
751,34	32,723
751,53	12,808
751,72	16,173
751,91	13,699
752,10	0,926
752,29	14,972
752,47	4,494
752,66	21,408
752,85	8,050
753,04	19,243
753,23	-2,649
753,42	15,198
753,61	13,072
753,80	15,447
753,98	16,842
754,17	10,736
754,36	29,661
754,55	19,749
754,74	15,029
754,93	15,562
755,12	16,533
755,30	22,161
755,49	8,869
755,68	26,513
755,87	7,207
756,06	17,318
756,25	16,825
756,43	10,345
756,62	24,926
756,81	11,551
757,00	21,449
757,19	26,370
757,38	20,505
757,56	27,097
757,75	15,359
757,94	20,189
758,13	17,208
758,32	6,818
758,51	15,809
758,69	-1,600
758,88	20,120
759,07	20,430
759,26	-5,116
759,45	19,214
759,63	36,431
759,82	23,569
760,01	11,706
760,20	28,405
760,39	20,149
760,57	21,488
760,76	16,216
760,95	13,889
761,14	25,306
761,33	22,812
761,51	10,036
761,70	25,862
761,89	20,082
762,08	19,535
762,27	29,304
762,45	33,463
762,64	12,821
762,83	20,796
763,02	30,233
763,21	22,414
763,39	26,122
763,58	33,585
763,77	18,533
763,96	32,530
764,14	19,167
764,33	26,007
764,52	31,330
764,71	28,700
764,89	-2,941
765,08	30,603
765,27	28,253
765,46	35,326
765,65	20,524
765,83	36,797
766,02	13,617
766,21	32,044
766,40	34,762
766,58	26,829
766,77	25,373
766,96	38,182
767,15	32,367
767,33	29,825
767,52	29,878
767,71	38,261
767,90	24,157
768,08	42,023
768,27	16,500
768,46	30,078
768,64	43,005
768,83	27,083
769,02	38,000
769,21	23,581
769,39	31,395
769,58	26,590
769,77	54,789
769,96	48,691
770,14	9,524
770,33	12,617
770,52	24,868
770,70	14,000
770,89	62,416
771,08	39,407
771,27	26,804
771,45	40,351
771,64	38,542
771,83	34,579
772,01	9,639
772,20	50,754
772,39	42,000
772,57	31,008
772,76	16,296
772,95	21,986
773,14	41,398
773,32	38,710
773,51	34,328
773,70	40,000
773,88	46,995
774,07	43,455
774,26	17,730
774,44	10,976
774,63	57,360
774,82	16,463
775,00	26,000
775,19	-3,200
775,38	42,775
775,56	55,208
775,75	55,422
775,94	31,013
776,12	30,939
776,31	45,882
776,50	30,682
776,68	34,737
776,87	24,432
777,06	32,414
777,24	32,222
777,43	39,744
777,62	56,618
777,80	37,838
777,99	26,286
778,18	52,475
778,36	50,400
778,55	15,702
778,74	63,194
778,92	32,544
779,11	26,667
779,29	23,270
779,48	26,531
779,67	10,078
779,85	24,390
780,04	32,973
780,23	36,691
780,41	26,563
780,60	11,053
780,79	64,972
780,97	82,895
781,16	47,273
781,34	38,144
781,53	26,496
781,72	57,664
781,90	25,000
782,09	43,226
782,28	27,007
782,46	37,778
782,65	26,429
782,83	48,315
783,02	18,750
783,21	57,333
783,39	33,913
783,58	38,462
783,76	36,872
783,95	38,182
784,14	29,801
784,32	54,362
784,51	27,586
784,69	29,661
784,88	26,126
785,06	32,773
785,25	56,688
785,44	17,986
785,62	50,000
785,81	69,014
785,99	58,273
786,18	45,946
786,37	19,259
786,55	43,119
786,74	39,474
786,92	37,500
787,11	21,667
787,29	35,075
787,48	21,333
787,67	39,759
787,85	61,207
788,04	46,535
788,22	48,361
788,41	84,706
788,59	46,789
788,78	32,727
788,96	38,679
789,15	85,263
789,34	62,727
789,52	23,009
789,71	51,163
789,89	100,000
790,08	48,630
790,26	-10,000
790,45	52,273
790,63	51,852
790,82	38,182
791,00	34,028
791,19	26,882
791,38	56,944
791,56	38,596
791,75	60,550
791,93	47,126
792,12	34,320
792,30	58,400
792,49	72,269
792,67	59,701
792,86	49,612
793,04	10,280
793,23	20,833
793,41	30,380
793,60	48,485
793,78	71,930
793,97	61,538
794,15	60,909
794,34	51,648
794,52	76,623
794,71	51,852
794,89	0,000
795,08	57,282
795,26	53,889
795,45	61,194
795,63	71,212
795,82	36,449
796,00	82,569
796,19	30,000
796,37	51,095
796,56	52,688
796,74	67,257
796,93	35,955
797,11	74,684
797,30	72,500
797,48	77,931
797,67	69,167
797,85	31,633
798,04	76,042
798,22	65,079
798,41	65,686
798,59	77,895
798,77	56,923
798,96	64,516
799,14	75,862
799,33	88,550
799,51	63,846
799,70	42,953
799,88	71,212
800,07	25,000
800,25	40,690
800,44	76,768
800,62	49,412
800,80	73,913
800,99	22,222
801,17	48,276
801,36	43,448
801,54	89,583
801,73	46,465
801,91	39,344
802,10	38,095
802,28	59,813
802,46	51,852
802,65	34,483
802,83	94,382
803,02	88,421
803,20	66,406
803,39	15,517
803,57	49,398
803,75	60,811
803,94	50,420
804,12	22,500
804,31	53,982
804,49	31,731
804,67	58,400
804,86	44,643
805,04	56,081
805,23	75,172
805,41	86,066
805,59	52,459
805,78	55,303
805,96	44,872
806,15	41,406
806,33	34,454
806,51	6,195
806,70	78,333
806,88	40,650
807,07	18,254
807,25	30,818
807,43	61,589
807,62	56,911
807,80	82,796
807,99	26,190
808,17	46,809
808,35	36,842
808,54	61,290
808,72	48,000
808,90	43,421
809,09	47,500
809,27	54,054
809,46	56,250
809,64	44,118
809,82	29,885
810,01	39,394
810,19	48,000
810,37	44,615
810,56	100,000
810,74	44,371
810,92	66,667
811,11	45,098
811,29	53,191
811,48	71,717
811,66	51,163
811,84	77,982
812,03	15,455
812,21	60,256
812,39	82,203
812,58	52,941
812,76	21,495
812,94	66,000
813,13	40,476
813,31	44,167
813,49	85,870
813,68	40,870
813,86	21,429
814,04	52,427
814,23	69,697
814,41	49,265
814,59	62,712
814,78	54,412
814,96	59,459
815,14	36,667
815,33	61,594
815,51	47,407
815,69	20,988
815,87	75,652
816,06	76,875
816,24	58,940
816,42	23,718
816,61	77,119
816,79	48,193
816,97	55,856
817,16	41,290
817,34	46,207
817,52	49,655
817,70	46,825
817,89	19,008
818,07	28,448
818,25	55,856
818,44	38,372
818,62	44,828
818,80	59,441
818,98	57,143
819,17	60,000
819,35	46,471
819,53	48,515
819,72	41,860
819,90	47,305
820,08	27,922
820,26	76,316
820,45	37,349
820,63	47,917
820,81	50,336
820,99	44,361
821,18	8,148
821,36	62,381
821,54	61,628
821,73	35,135
821,91	37,234
822,09	49,412
822,27	24,873
822,46	20,625
822,64	38,411
822,82	38,537
823,00	23,423
823,19	11,364
823,37	47,857
823,55	45,882
823,73	30,000
823,91	12,707
824,10	41,899
824,28	31,852
824,46	28,488
824,64	31,863
824,83	26,016
825,01	34,783
825,19	36,000
825,37	33,854
825,56	56,875
825,74	44,762
825,92	62,360
826,10	42,236
826,28	22,819
826,47	44,715
826,65	17,568
826,83	20,430
827,01	25,758
827,19	25,316
827,38	51,813
827,56	48,558
827,74	35,772
827,92	53,171
828,10	30,435
828,29	30,000
828,47	58,333
828,65	16,757
828,83	27,273
829,01	15,333
829,20	28,481
829,38	31,950
829,56	34,413
829,74	27,273
829,92	20,103
830,10	33,333
830,29	28,108
830,47	34,896
830,65	9,821
830,83	8,000
831,01	26,667
831,20	23,762
831,38	25,366
831,56	29,150
831,74	34,286
831,92	43,182
832,10	41,818
832,29	33,649
832,47	12,832
832,65	23,830
832,83	33,953
833,01	18,182
833,19	33,937
833,37	32,593
833,56	26,761
833,74	24,696
833,92	19,469
834,10	29,949
834,28	31,538
834,46	33,218
834,64	35,156
834,83	32,423
835,01	44,358
835,19	19,431
835,37	17,928
835,55	37,184
835,73	30,515
835,91	20,849
836,09	5,809
836,28	18,321
836,46	20,000
836,64	36,066
836,82	0,746
837,00	27,891
837,18	34,387
837,36	21,390
837,54	18,182
837,72	19,920
837,91	9,639
838,09	21,600
838,27	31,136
838,45	27,832
838,63	13,559
838,81	31,579
838,99	18,118
839,17	27,832
839,35	28,519
839,53	26,510
839,72	15,678
839,90	8,511
840,08	27,885
840,26	25,237
840,44	14,198
840,62	13,131
840,80	27,778
840,98	20,242
841,16	6,050
841,34	18,841
841,52	29,712
841,70	4,377
841,89	25,484
842,07	15,405
842,25	0,325
842,43	15,806
842,61	18,499
842,79	25,000
842,97	10,671
843,15	19,771
843,33	18,765
843,51	15,752
843,69	17,222
843,87	22,372
844,05	17,520
844,23	14,054
844,41	13,317
844,59	8,807
844,77	-2,017
844,95	17,961
845,13	13,661
845,31	18,715
845,50	17,784
845,68	13,212
845,86	22,170
846,04	17,531
846,22	19,570
846,40	4,199
846,58	9,651
846,76	10,723
846,94	10,817
847,12	21,801
847,30	14,747
847,48	8,153
847,66	17,073
847,84	6,345
848,02	17,672
848,20	20,751
848,38	11,765
848,56	21,290
848,74	16,942
848,92	4,593
849,10	15,179
849,28	15,686
849,46	13,551
849,64	8,333
849,82	13,221
850,00	4,312
850,18	11,778
850,36	17,763
850,54	9,641
850,72	14,137
850,90	13,869
851,08	9,259
851,26	12,955
851,44	13,855
851,62	14,128
851,80	8,350
851,98	16,049
852,16	18,724
852,34	24,858
852,52	12,724
852,70	2,209
852,87	12,762
853,05	20,240
853,23	15,882
853,41	2,045
853,59	2,830
853,77	9,524
853,95	11,229
854,13	12,621
854,31	18,325
854,49	10,020
854,67	17,481
854,85	11,652
855,03	8,046
855,21	17,766
855,39	10,738
855,57	22,101
855,75	10,624
855,93	7,597
856,11	21,531
856,28	15,972
856,46	10,294
856,64	11,489
856,82	7,679
857,00	4,325
857,18	13,302
857,36	8,571
857,54	16,216
857,72	8,514
857,90	4,448
858,08	8,179
858,26	5,505
858,44	11,180
858,61	5,893
858,79	18,605
858,97	8,596
859,15	9,285
859,33	6,288
859,51	3,195
859,69	5,952
859,87	12,884
860,05	12,692
860,23	9,545
860,40	5,530
860,58	9,195
860,76	8,898
860,94	8,397
861,12	9,632
861,30	10,123
861,48	8,074
861,66	8,321
861,84	7,542
862,01	8,957
862,19	10,705
862,37	9,329
862,55	9,749
862,73	4,484
862,91	6,610
863,09	10,403
863,27	0,557
863,44	8,079
863,62	8,696
863,80	6,057
863,98	7,152
864,16	8,385
864,34	8,961
864,52	8,998
864,69	5,422
864,87	6,794
865,05	7,465
865,23	9,903
865,41	4,410
865,59	12,732
865,76	5,426
865,94	5,774
866,12	5,210
866,30	1,595
866,48	6,484
866,66	13,015
866,83	3,501
867,01	7,904
867,19	5,711
867,37	0,120
867,55	12,514
867,73	9,112
867,90	2,415
868,08	9,913
868,26	5,017
868,44	5,579
868,62	8,568
868,79	5,087
868,97	7,036
869,15	5,839
869,33	4,300
869,51	7,006
869,69	6,152
869,86	9,846
870,04	5,820
870,22	1,457
870,40	2,727
870,57	11,100
870,75	4,215
870,93	4,891
871,11	2,543
871,29	5,386
871,46	2,014
871,64	6,726
871,82	4,195
872,00	9,199
872,18	8,875
872,35	6,952
872,53	5,955
872,71	1,251
872,89	5,375
873,06	2,122
873,24	7,721
873,42	5,287
873,60	2,571
873,77	4,537
873,95	4,955
874,13	7,603
874,31	3,922
874,49	7,236
874,66	0,430
874,84	4,174
875,02	9,683
875,20	5,289
875,37	1,618
875,55	1,609
875,73	5,349
875,91	3,047
876,08	2,070
876,26	0,666
876,44	2,636
876,61	6,565
876,79	3,738
876,97	5,499
877,15	5,649
877,32	3,858
877,50	5,653
877,68	2,785
877,86	3,075
878,03	4,682
878,21	3,761
878,39	2,519
878,56	4,794
878,74	2,892
878,92	4,080
879,10	4,734
879,27	3,398
879,45	9,109
879,63	2,075
879,80	3,807
879,98	3,772
880,16	2,855
880,34	2,498
880,51	4,053
880,69	1,906
880,87	0,893
881,04	1,483
881,22	3,689
881,40	2,162
881,57	3,397
881,75	2,487
881,93	1,931
882,10	6,534
882,28	1,618
882,46	4,162
882,63	6,847
882,81	3,621
882,99	2,181
883,16	3,325
883,34	3,862
883,52	0,476
883,69	4,846
883,87	3,039
884,05	1,359
884,22	3,213
884,40	3,531
884,58	2,291
884,75	1,714
884,93	4,555
885,11	2,884
885,28	2,791
885,46	3,514
885,64	3,141
885,81	3,532
885,99	0,751
886,17	2,089
886,34	2,779
886,52	2,848
886,70	1,214
886,87	3,211
887,05	4,065
887,22	1,794
887,40	3,751
887,58	0,846
887,75	2,891
887,93	4,124
888,11	0,148
888,28	2,418
888,46	2,224
888,63	4,548
888,81	3,616
888,99	1,801
889,16	0,903
889,34	1,435
889,51	0,000
889,69	0,329
889,87	2,585
890,04	0,359
890,22	3,045
890,39	1,902
890,57	4,075
890,75	4,617
890,92	1,560
891,10	4,313
891,27	3,033
891,45	2,333
891,63	4,163
891,80	0,392
891,98	3,155
892,15	0,465
892,33	2,432
892,51	1,248
892,68	0,082
892,86	1,152
893,03	3,196
893,21	3,222
893,38	2,628
893,56	2,047
893,74	3,465
893,91	1,813
894,09	2,285
894,26	2,429
894,44	0,156
894,61	3,466
894,79	1,854
894,96	1,267
895,14	0,672
895,32	1,207
895,49	2,519
895,67	3,931
895,84	1,747
896,02	2,087
896,19	3,185
896,37	2,132
896,54	1,436
896,72	2,063
896,89	2,435
897,07	1,780
897,25	2,252
897,42	1,143
897,60	3,721
897,77	3,359
897,95	2,044
898,12	1,557
898,30	1,968
898,47	2,228
898,65	2,605
898,82	1,338
899,00	2,094
899,17	1,031
899,35	2,592
899,52	1,594
899,70	1,902
899,87	1,674
900,05	3,429
900,22	1,890
900,40	2,417
900,57	3,710
900,75	1,697
900,92	0,891
901,10	2,978
901,27	2,296
901,45	2,808
901,62	1,882
901,80	1,281
901,97	0,138
902,15	2,696
902,32	2,122
902,50	1,753
902,67	1,541
902,85	0,709
903,02	3,549
903,20	0,937
903,37	2,905
903,54	2,798
903,72	1,250
903,89	1,615
904,07	2,217
904,24	2,469
904,42	1,775
904,59	0,512
904,77	1,785
904,94	1,201
905,12	-0,626
905,29	2,203
905,47	1,893
905,64	1,775
905,81	0,870
905,99	0,502
906,16	2,098
906,34	2,508
906,51	1,074
906,69	1,894
906,86	1,907
907,03	1,833
907,21	0,489
907,38	0,676
907,56	1,657
907,73	1,670
907,91	2,143
908,08	1,587
908,25	0,792
908,43	1,948
908,60	0,901
908,78	3,723
908,95	2,487
909,13	1,999
909,30	-0,426
909,47	2,174
909,65	2,808
909,82	2,676
910,00	0,817
910,17	1,131
910,34	1,645
910,52	1,476
910,69	2,436
910,87	3,003
911,04	1,553
911,21	1,663
911,39	2,844
911,56	1,765
911,73	1,680
911,91	2,692
912,08	2,089
912,26	0,279
912,43	1,094
912,60	1,983
912,78	1,148
912,95	2,266
913,13	1,044
913,30	0,612
913,47	0,352
913,65	0,693
913,82	1,487
913,99	0,657
914,17	1,097
914,34	1,494
914,51	1,979
914,69	1,707
914,86	1,876
915,03	0,773
915,21	1,772
915,38	1,146
915,56	1,412
915,73	1,094
915,90	2,051
916,08	1,662
916,25	1,191
916,42	1,298
916,60	1,635
916,77	0,726
916,94	0,586
917,12	2,425
917,29	2,202
917,46	1,175
917,64	0,834
917,81	1,681
917,98	0,333
918,16	1,412
918,33	1,803
918,50	1,180
918,67	0,572
918,85	1,018
919,02	1,044
919,19	2,303
919,37	1,558
919,54	1,097
919,71	2,254
919,89	0,733
920,06	0,500
920,23	1,180
920,41	1,362
920,58	0,996
920,75	1,395
920,92	0,409
921,10	0,941
921,27	-0,114
921,44	1,995
921,62	0,489
921,79	1,137
921,96	1,903
922,13	0,583
922,31	0,462
922,48	1,692
922,65	1,404
922,82	0,472
923,00	1,953
923,17	1,047
923,34	1,189
923,52	0,494
923,69	0,339
923,86	1,011
924,03	1,264
924,21	0,846
924,38	1,970
924,55	2,183
924,72	0,617
924,90	1,116
925,07	1,490
925,24	1,578
925,41	0,893
925,59	0,307
925,76	1,271
925,93	1,745
926,10	1,832
926,28	1,143
926,45	0,919
926,62	1,167
926,79	0,266
926,96	1,728
927,14	1,067
927,31	0,673
927,48	1,746
927,65	0,622
927,83	1,127
928,00	1,056
928,17	0,756
928,34	2,462
928,51	1,225
928,69	0,429
928,86	1,672
929,03	1,331
929,20	0,275
929,37	2,128
929,55	0,469
929,72	1,133
929,89	0,824
930,06	0,993
930,23	0,512
930,41	0,976
930,58	1,489
930,75	1,349
930,92	1,301
931,09	1,720
931,27	0,831
931,44	0,679
931,61	1,808
931,78	0,864
931,95	0,670
932,12	1,362
932,30	1,308
932,47	1,501
932,64	1,014
932,81	0,415
932,98	0,771
933,16	0,504
933,33	1,039
933,50	1,253
933,67	1,822
933,84	1,157
934,01	1,082
934,18	0,838
934,36	0,093
934,53	0,150
934,70	1,073
934,87	0,710
935,04	1,630
935,21	1,089
935,38	1,029
935,56	0,369
935,73	1,163
935,90	0,350
936,07	1,679
936,24	1,777
936,41	1,051
936,58	0,460
936,76	0,903
936,93	0,313
937,10	0,903
937,27	0,916
937,44	0,748
937,61	1,424
937,78	1,018
937,95	0,503
938,13	0,337
938,30	0,770
938,47	1,754
938,64	0,890
938,81	1,167
938,98	0,682
939,15	0,415
939,32	0,684
939,49	0,933
939,66	1,600
939,84	1,295
940,01	1,189
940,18	0,638
940,35	1,188
940,52	-0,308
940,69	2,262
940,86	0,503
941,03	0,504
941,20	1,421
941,37	2,041
941,54	-0,632
941,71	-0,178
941,89	1,374
942,06	0,794
942,23	1,200
942,40	0,788
942,57	1,122
942,74	1,026
942,91	0,083
943,08	0,991
943,25	0,851
943,42	1,051
943,59	0,827
943,76	1,848
943,93	1,281
944,10	0,889
944,27	0,875
944,44	1,052
944,61	0,367
944,79	0,850
944,96	1,980
945,13	0,247
945,30	0,388
945,47	1,320
945,64	1,522
945,81	2,102
945,98	2,000
946,15	1,213
946,32	1,331
946,49	1,513
946,66	0,665
946,83	1,588
947,00	0,303
947,17	0,260
947,34	1,337
947,51	0,951
947,68	0,691
947,85	0,268
948,02	0,762
948,19	2,617
948,36	0,694
948,53	1,586
948,70	2,850
948,87	1,570
949,04	0,737
949,21	-0,060
949,38	1,198
949,55	0,878
949,72	1,876
949,89	0,448
950,06	0,000
950,23	2,361
950,40	2,875
950,57	0,542
950,74	2,902
950,91	1,169
951,08	0,874
951,25	2,326
951,42	3,595
951,59	0,529
951,76	1,183
951,93	2,667
952,10	1,350
952,27	1,953
952,44	1,476
952,61	0,166
952,77	1,534
952,94	2,307
953,11	3,242
953,28	1,815
953,45	0,988
953,62	2,554
953,79	2,965
953,96	3,438
954,13	0,879
954,30	3,532
954,47	4,071
954,64	1,118
954,81	3,876
954,98	2,567
955,15	1,565
955,32	1,906
955,49	0,000
955,65	3,019
955,82	3,985
955,99	3,944
956,16	4,796
956,33	1,953
956,50	2,859
956,67	3,011
956,84	2,296
957,01	5,694
957,18	6,835
957,35	2,329
957,52	3,020
957,68	4,250
957,85	3,915
958,02	4,910
958,19	5,744
958,36	7,447
958,53	4,240
958,70	2,986
958,87	6,556
959,04	10,766
959,21	6,162
959,37	5,952
959,54	5,513
959,71	3,102
959,88	7,355
960,05	6,843
960,22	1,775
960,39	5,333
960,56	4,937
960,72	9,661
960,89	11,914
961,06	6,242
961,23	8,588
961,40	9,524
961,57	11,270
961,74	2,215
961,90	6,406
962,07	9,589
962,24	11,057
962,41	8,543
962,58	8,950
962,75	7,611
962,92	7,290
963,08	2,000
963,25	4,865
963,42	7,246
963,59	12,190
963,76	11,685
963,93	7,780
964,10	13,704
964,26	11,184
964,43	11,628
964,60	9,845
964,77	19,759
964,94	14,773
965,10	15,476
965,27	15,666
965,44	22,597
965,61	20,386
965,78	-8,307
965,95	17,066
966,11	2,477
966,28	4,089
966,45	11,215
966,62	20,923
966,79	30,612
966,95	9,851
967,12	9,779
967,29	32,986
967,46	15,530
967,63	12,453
967,79	29,730
967,96	25,541
968,13	8,500
968,30	20,565
968,47	37,801
968,63	32,432
968,80	28,899
968,97	17,788
969,14	12,791
969,31	22,222
969,47	16,471
969,64	52,020
969,81	14,508
969,98	20,330
970,14	21,472
970,31	43,396
970,48	-15,833
970,65	51,479
970,81	36,301
970,98	29,197
971,15	39,796
971,32	36,719
971,48	55,102
971,65	-4,615
971,82	19,608
971,99	18,391
972,15	54,225
972,32	63,063
972,49	58,042
972,66	76,364
972,82	48,837
972,99	43,089
973,16	45,977
973,33	41,071
973,49	31,579
973,66	43,011
973,83	78,641
974,00	81,395
974,16	87,255
974,33	77,193
974,50	41,053
974,67	97,895
974,83	32,143
975,00	69,474
975,17	83,516
975,33	42,697
975,50	64,179
975,67	144,898
975,84	132,836
976,00	94,382
976,17	44,262
976,34	52,000
976,50	64,045
976,67	81,553
976,84	-233,333
977,00	142,857
977,17	88,889
977,34	106,593
977,50	19,403
977,67	105,357
977,84	162,903
978,01	110,638
978,17	300,000
978,34	80,556
978,51	97,059
978,67	85,526
978,84	57,031
979,01	162,162
979,17	58,974
979,34	79,452
979,51	69,388
979,67	87,654
979,84	75,510
980,01	168,889
980,17	142,254
980,34	285,185
980,51	131,884
980,67	78,824
980,84	323,333
981,01	300,000
981,17	320,000
981,34	500,000
981,50	157,353
981,67	135,593
981,84	3000,000
982,00	213,333
982,17	95,238
982,34	84,444
982,50	333,333
982,67	100,000
982,84	1220,000
983,00	133,333
983,17	91,045
983,33	115,517
983,50	180,000
983,67	-65,517
983,83	242,424
984,00	-557,143
984,17	322,222
984,33	-3250,000
984,50	274,286
984,66	152,174
984,83	116,883
985,00	-266,667
985,16	134,483
985,33	200,000
985,49	233,333
985,66	97,059
985,83	73,913
985,99	223,077
986,16	-1100,000
986,32	371,429
986,49	2600,000
986,66	139,394
986,82	433,333
986,99	116,981
987,15	-31,579
987,32	17,857
987,49	166,000
987,65	3850,000
987,82	220,833
987,98	134,694
988,15	153,333
988,31	450,000
988,48	-333,333
988,65	173,810
988,81	222,222
988,98	185,366
989,14	123,810
989,31	190,476
989,47	138,235
989,64	-407,692
989,80	375,000
989,97	227,027
990,14	-123,913
990,30	-77,273
990,47	171,429
990,63	158,333
990,80	184,000
990,96	-300,000
991,13	221,875
991,29	203,448
991,46	0,000
991,62	-261,538
991,79	516,667
991,95	3300,000
992,12	-470,000
992,29	-187,500
992,45	121,176
992,62	134,884
992,78	188,636
992,95	-193,333
993,11	292,857
993,28	570,000
993,44	-500,000
993,61	-387,500
993,77	-1575,000
993,94	-2000,000
994,10	-60,000
994,27	626,316
994,43	160,465
994,60	0,000
994,76	1675,000
994,93	395,000
995,09	-35,294
995,26	611,111
995,42	164,706
995,59	471,429
995,75	153,846
995,92	1185,714
996,08	200,000
996,25	-225,000
996,41	-2400,000
996,58	320,000
996,74	177,273
996,91	334,483
997,07	0,000
997,23	6300,000
997,40	-6600,000
997,56	-538,462
997,73	-1137,500
997,89	202,632
998,06	484,615
998,22	-238,889
998,39	416,000
998,55	1055,556
998,72	-1325,000
998,88	-50,000
999,05	-56,410
999,21	228,571
999,37	-266,667
999,54	-275,000
999,70	-216,667
999,87	256,250
1000,03	271,795
1000,20	206,250
1000,36	0,000
1000,52	200,000
1000,69	-171,429
1000,85	-740,000
1001,02	-83,333
1001,18	1700,000
1001,35	723,077
1001,51	452,941
1001,67	-669,231
1001,84	-1180,000
1002,00	224,324
1002,17	390,909
1002,33	-1775,000
1002,50	366,667
1002,66	-184,615
1002,82	112,500
1002,99	421,429
1003,15	-1157,143
1003,32	-436,364
1003,48	271,429
1003,64	233,333
1003,81	155,556
1003,97	-2650,000
1004,14	763,636
1004,30	230,000
1004,46	-173,333
1004,63	700,000
1004,79	238,889
1004,95	613,333
1005,12	3200,000
1005,28	206,897
1005,45	213,514
1005,61	186,207
1005,77	-129,167
1005,94	-195,238
1006,10	-1150,000
1006,26	592,308
1006,43	-0,000
1006,59	-445,455
1006,76	407,143
1006,92	833,333
1007,08	6200,000
1007,25	-159,259
1007,41	172,414
1007,57	2050,000
1007,74	380,000
1007,90	-96,552
1008,06	128,261
1008,23	594,118
1008,39	-312,500
1008,55	-84,615
1008,72	-742,857
1008,88	0,000
1009,04	192,683
1009,21	-139,474
1009,37	-366,667
1009,53	123,810
1009,70	1066,667
1009,86	-257,143
1010,02	333,333
1010,19	427,273
1010,35	198,529
1010,51	-3750,000
1010,68	-625,000
1010,84	-31,818
1011,00	281,250
1011,17	-200,000
1011,33	0,000
1011,49	-286,667
1011,66	592,857
1011,82	229,032
1011,98	450,000
1012,14	-63,636
1012,31	174,359
1012,47	0,000
1012,63	450,000
1012,80	457,143
1012,96	-406,250
1013,12	-350,000
1013,29	277,778
1013,45	156,098
1013,61	4466,667
1013,77	-1,786
1013,94	1340,000
1014,10	98,305
1014,26	-825,000
1014,43	72,000
1014,59	350,000
1014,75	-161,111
1014,91	-426,667
1015,08	269,444
1015,24	5900,000
1015,40	323,529
1015,56	-6700,000
1015,73	64,286
1015,89	436,364
1016,05	2225,000
1016,21	-487,500
1016,38	563,158
1016,54	538,462
1016,70	-1833,333
1016,86	109,375
1017,03	412,500
1017,19	-546,154
1017,35	-505,882
1017,51	-840,000
1017,68	-290,000
1017,84	-942,857
1018,00	235,714
1018,16	215,385
1018,33	-428,571
1018,49	-191,667
1018,65	-40,541
1018,81	133,333
1018,97	-1014,286
1019,14	-900,000
1019,30	-64,103
1019,46	0,000
1019,62	-188,235
1019,79	-733,333
1019,95	900,000
1020,11	3900,000
1020,27	-255,556
1020,43	-123,077
1020,60	1100,000
1020,76	361,111
1020,92	553,333
1021,08	385,000
1021,24	660,000
1021,41	477,778
1021,57	725,000
1021,73	523,077
1021,89	960,000
1022,05	-150,000
1022,21	255,000
1022,38	-375,000
1022,54	-950,000
1022,70	215,556
1022,86	-900,000
1023,02	208,333
1023,19	980,000
1023,35	2633,333
1023,51	141,667
1023,67	229,630
1023,83	-306,250
1023,99	115,789
1024,16	-219,231
1024,32	-577,778
1024,48	-640,000
1024,64	192,857
1024,80	173,913
1024,96	174,359
1025,12	190,476
1025,29	452,381
1025,45	123,684
1025,61	572,222
1025,77	-1760,000
1025,93	-2200,000
1026,09	-642,857
1026,26	358,333
1026,42	481,250
1026,58	230,303
1026,74	1083,333
1026,90	188,000
1027,06	200,000
1027,22	428,571
1027,38	109,615
1027,55	2466,667
1027,71	300,000
1027,87	-112,000
1028,03	820,000
1028,19	178,125
1028,35	245,000
1028,51	720,000
1028,67	575,000
1028,83	-1375,000
1029,00	-133,333
1029,16	950,000
1029,32	-164,286
1029,48	102,222
1029,64	177,778
1029,80	1150,000
1029,96	553,333
1030,12	482,609
1030,28	-1266,667
1030,44	-169,231
1030,61	-254,167
1030,77	17,143
1030,93	-300,000
1031,09	1033,333
1031,25	-5000,000
1031,41	-86,667
1031,57	207,692
1031,73	356,250
1031,89	-481,818
1032,05	-85,185
1032,21	609,091
1032,37	-53,704
1032,53	-414,286
1032,69	-16,667
1032,86	251,852
1033,02	-105,000
1033,18	-487,500
1033,34	336,842
1033,50	-2150,000
1033,66	-51,220
1033,82	395,652
1033,98	-251,852
1034,14	137,179
1034,30	170,968
1034,46	-1233,333
1034,62	415,000
1034,78	-123,810
1034,94	76,316
1035,10	-323,077
1035,26	-34,884
1035,42	-110,345
1035,58	-138,889
1035,74	350,000
1035,90	-423,077
1036,06	-600,000
1036,22	1150,000
1036,38	-388,235
1036,54	-266,667
1036,70	-69,697
1036,86	600,000
1037,02	200,000
1037,18	368,421
1037,34	80,952
1037,50	-70,732
1037,66	-129,412
1037,82	1800,000
1037,98	-185,185
1038,14	-208,000
1038,30	600,000
1038,46	-371,429
1038,62	330,435
1038,78	-2466,667
1038,94	-252,632
1039,10	200,000
1039,26	114,815
1039,42	16,667
1039,58	1071,429
1039,74	-478,947
1039,90	131,250
1040,06	-234,615
>>>>>End Processed Spectral Data<<<<<
