SpectraSuite Data File
++++++++++++++++++++++++++++++++++++
Date: Wed Feb 01 15:34:27 EET 2017
User: optolab
Dark Spectrum Present: Yes
Reference Spectrum Present: Yes
Number of Sampled Component Spectra: 1
Spectrometers: USB4C02475
Integration Time (usec): 100000 (USB4C02475)
Spectra Averaged: 1 (USB4C02475)
Boxcar Smoothing: 0 (USB4C02475)
Correct for Electrical Dark: No (USB4C02475)
Strobe/Lamp Enabled: No (USB4C02475)
Correct for Detector Non-linearity: No (USB4C02475)
Correct for Stray Light: No (USB4C02475)
Number of Pixels in Processed Spectrum: 3648
>>>>>Begin Processed Spectral Data<<<<<
344,91	2650,000
345,13	2650,000
345,35	2650,000
345,57	0,000
345,79	31,579
346,00	-1322,222
346,22	-1128,571
346,44	247,059
346,66	-254,167
346,87	-10000,000
347,09	290,909
347,31	-263,636
347,53	-207,692
347,74	135,385
347,96	318,182
348,18	631,579
348,40	238,710
348,61	441,176
348,83	307,143
349,05	286,275
349,27	-4350,000
349,48	492,308
349,70	-275,862
349,92	316,129
350,14	186,792
350,35	214,000
350,57	1350,000
350,79	420,000
351,01	-557,143
351,22	177,778
351,44	484,615
351,66	-264,000
351,87	-152,381
352,09	138,462
352,31	154,098
352,53	214,063
352,74	375,000
352,96	198,701
353,18	573,684
353,40	328,000
353,61	208,889
353,83	285,294
354,05	709,091
354,26	1366,667
354,48	130,000
354,70	378,788
354,92	-103,448
355,13	162,626
355,35	234,091
355,57	554,167
355,78	142,169
356,00	-2575,000
356,22	430,769
356,44	3450,000
356,65	193,182
356,87	346,154
357,09	358,333
357,30	220,000
357,52	170,690
357,74	495,000
357,95	258,974
358,17	173,770
358,39	179,032
358,60	162,162
358,82	262,500
359,04	281,481
359,26	354,286
359,47	5900,000
359,69	397,500
359,91	348,485
360,12	252,381
360,34	441,667
360,56	-88,889
360,77	1975,000
360,99	400,000
361,21	222,000
361,42	2600,000
361,64	181,633
361,86	169,231
362,07	-567,742
362,29	181,333
362,51	-411,765
362,72	476,000
362,94	326,471
363,16	232,558
363,37	-621,429
363,59	361,538
363,81	318,182
364,02	411,111
364,24	279,167
364,46	2733,333
364,67	663,636
364,89	1700,000
365,11	125,714
365,32	386,207
365,54	205,556
365,76	155,102
365,97	308,824
366,19	162,069
366,41	527,273
366,62	329,630
366,84	172,093
367,05	351,020
367,27	1466,667
367,49	-638,462
367,70	335,294
367,92	178,689
368,14	175,000
368,35	-6900,000
368,57	368,000
368,79	424,138
369,00	180,435
369,22	-862,500
369,43	148,235
369,65	220,968
369,87	362,162
370,08	125,301
370,30	175,000
370,51	121,311
370,73	188,889
370,95	195,161
371,16	228,571
371,38	323,333
371,60	1100,000
371,81	106,250
372,03	373,333
372,24	320,000
372,46	145,283
372,68	151,429
372,89	293,939
373,11	284,615
373,32	272,727
373,54	-523,077
373,76	538,462
373,97	520,000
374,19	472,727
374,40	190,625
374,62	-2100,000
374,84	2800,000
375,05	414,286
375,27	236,000
375,48	-6300,000
375,70	152,000
375,92	191,071
376,13	175,000
376,35	169,863
376,56	625,000
376,78	144,444
376,99	303,571
377,21	158,333
377,43	177,273
377,64	134,783
377,86	182,759
378,07	223,077
378,29	-587,500
378,51	435,484
378,72	222,917
378,94	-622,222
379,15	148,485
379,37	458,824
379,58	172,308
379,80	326,667
380,01	356,250
380,23	225,490
380,45	1020,000
380,66	2700,000
380,88	250,000
381,09	182,857
381,31	183,333
381,52	180,392
381,74	1077,778
381,95	413,636
382,17	380,769
382,39	500,000
382,60	159,184
382,82	248,718
383,03	255,769
383,25	290,323
383,46	209,091
383,68	259,259
383,89	265,000
384,11	267,742
384,32	-2166,667
384,54	516,667
384,76	-2466,667
384,97	254,545
385,19	293,103
385,40	198,039
385,62	235,088
385,83	150,000
386,05	170,588
386,26	262,000
386,48	168,966
386,69	150,000
386,91	305,000
387,12	210,169
387,34	193,103
387,55	203,226
387,77	406,250
387,98	407,692
388,20	161,957
388,41	302,941
388,63	3600,000
388,84	181,967
389,06	340,476
389,27	484,211
389,49	311,111
389,70	193,878
389,92	196,667
390,13	165,306
390,35	247,059
390,56	174,074
390,78	140,741
390,99	930,000
391,21	515,789
391,42	253,333
391,64	241,463
391,85	218,966
392,07	184,091
392,28	134,667
392,50	245,455
392,71	-1087,500
392,93	221,154
393,14	377,778
393,36	189,796
393,57	100,000
393,79	300,000
394,00	238,298
394,22	71,233
394,43	148,193
394,65	134,884
394,86	750,000
395,08	376,190
395,29	158,491
395,50	200,000
395,72	416,667
395,93	366,667
396,15	142,254
396,36	152,941
396,58	158,333
396,79	287,500
397,01	190,000
397,22	83,333
397,44	145,455
397,65	126,316
397,87	307,143
398,08	169,388
398,29	250,000
398,51	192,857
398,72	182,927
398,94	98,462
399,15	268,571
399,37	159,649
399,58	146,154
399,80	381,818
400,01	240,741
400,22	219,048
400,44	207,407
400,65	410,714
400,87	173,529
401,08	144,286
401,30	113,043
401,51	182,456
401,72	65,385
401,94	132,911
402,15	380,000
402,37	99,160
402,58	633,333
402,80	120,000
403,01	154,930
403,22	972,727
403,44	204,348
403,65	123,214
403,87	165,714
404,08	361,538
404,30	149,412
404,51	-1400,000
404,72	98,571
404,94	97,059
405,15	104,000
405,37	167,089
405,58	117,647
405,79	160,976
406,01	236,585
406,22	210,345
406,44	202,128
406,65	212,281
406,86	114,583
407,08	103,797
407,29	114,563
407,51	118,293
407,72	103,704
407,93	108,696
408,15	74,359
408,36	95,349
408,58	120,619
408,79	48,333
409,00	90,625
409,22	82,540
409,43	79,747
409,64	60,248
409,86	61,006
410,07	78,462
410,29	74,627
410,50	75,887
410,71	82,143
410,93	40,127
411,14	75,194
411,35	68,452
411,57	71,053
411,78	44,531
412,00	62,420
412,21	66,452
412,42	67,725
412,64	42,918
412,85	41,753
413,06	50,610
413,28	36,036
413,49	23,697
413,70	41,667
413,92	39,526
414,13	25,311
414,34	33,333
414,56	28,322
414,77	50,633
414,98	40,268
415,20	36,678
415,41	33,144
415,63	27,861
415,84	35,000
416,05	26,099
416,27	16,021
416,48	30,337
416,69	21,903
416,91	18,919
417,12	21,925
417,33	28,000
417,55	16,097
417,76	36,345
417,97	17,635
418,19	17,495
418,40	13,830
418,61	24,259
418,83	12,000
419,04	17,508
419,25	11,994
419,46	18,947
419,68	15,079
419,89	15,648
420,10	16,190
420,32	13,823
420,53	15,336
420,74	15,756
420,96	16,250
421,17	12,125
421,38	12,949
421,60	11,148
421,81	9,795
422,02	13,480
422,23	12,770
422,45	10,120
422,66	10,804
422,87	10,549
423,09	11,041
423,30	10,140
423,51	8,189
423,73	10,503
423,94	12,745
424,15	14,694
424,36	19,480
424,58	19,438
424,79	26,171
425,00	32,198
425,22	42,530
425,43	49,443
425,64	58,280
425,85	64,309
426,07	72,836
426,28	78,024
426,49	86,038
426,71	86,441
426,92	92,876
427,13	92,044
427,34	94,247
427,56	98,518
427,77	89,246
427,98	94,517
428,19	90,314
428,41	93,426
428,62	97,339
428,83	91,119
429,04	93,929
429,26	97,659
429,47	95,057
429,68	95,237
429,89	96,370
430,11	94,583
430,32	93,132
430,53	92,667
430,74	94,267
430,96	95,164
431,17	94,231
431,38	95,984
431,59	94,362
431,81	96,505
432,02	97,077
432,23	92,679
432,44	97,707
432,66	97,513
432,87	98,716
433,08	94,869
433,29	96,860
433,51	97,869
433,72	99,964
433,93	95,402
434,14	97,144
434,35	98,116
434,57	95,328
434,78	98,868
434,99	95,118
435,20	95,506
435,42	93,567
435,63	92,269
435,84	94,372
436,05	92,286
436,26	93,473
436,48	91,299
436,69	94,293
436,90	94,576
437,11	92,337
437,32	94,916
437,54	95,525
437,75	94,847
437,96	95,941
438,17	92,725
438,38	96,768
438,60	96,391
438,81	94,079
439,02	96,876
439,23	95,132
439,44	93,707
439,66	94,584
439,87	92,711
440,08	93,515
440,29	93,096
440,50	92,940
440,72	94,378
440,93	92,825
441,14	94,425
441,35	94,666
441,56	95,700
441,77	95,470
441,99	94,475
442,20	96,798
442,41	94,370
442,62	95,497
442,83	95,743
443,04	96,630
443,26	96,095
443,47	96,831
443,68	95,882
443,89	95,050
444,10	95,619
444,31	95,753
444,53	94,828
444,74	94,651
444,95	94,900
445,16	95,566
445,37	93,420
445,58	93,756
445,80	94,594
446,01	95,362
446,22	95,385
446,43	94,884
446,64	94,547
446,85	95,980
447,06	95,053
447,28	95,331
447,49	95,489
447,70	94,870
447,91	95,976
448,12	95,692
448,33	96,133
448,54	97,283
448,76	96,557
448,97	96,043
449,18	96,581
449,39	95,528
449,60	95,460
449,81	95,413
450,02	96,598
450,23	94,707
450,45	95,707
450,66	93,348
450,87	95,330
451,08	93,151
451,29	93,178
451,50	93,440
451,71	95,343
451,92	93,983
452,13	95,402
452,35	95,687
452,56	95,012
452,77	96,333
452,98	94,922
453,19	96,381
453,40	95,404
453,61	96,123
453,82	96,006
454,03	95,925
454,25	96,116
454,46	96,252
454,67	94,204
454,88	94,513
455,09	94,717
455,30	94,399
455,51	95,469
455,72	94,300
455,93	95,703
456,14	92,734
456,35	95,198
456,56	93,292
456,78	93,414
456,99	94,011
457,20	92,370
457,41	89,930
457,62	90,802
457,83	88,541
458,04	88,074
458,25	87,156
458,46	85,341
458,67	82,680
458,88	80,535
459,09	78,212
459,30	75,070
459,51	73,552
459,73	72,569
459,94	71,411
460,15	69,983
460,36	68,506
460,57	66,661
460,78	63,793
460,99	58,188
461,20	50,867
461,41	42,689
461,62	32,914
461,83	23,910
462,04	15,938
462,25	10,246
462,46	5,766
462,67	3,515
462,88	2,289
463,09	1,467
463,30	1,112
463,51	1,171
463,72	0,720
463,93	0,750
464,15	0,650
464,36	0,603
464,57	0,436
464,78	0,600
464,99	0,682
465,20	0,596
465,41	0,623
465,62	0,584
465,83	0,580
466,04	0,799
466,25	0,522
466,46	0,663
466,67	0,591
466,88	0,640
467,09	0,725
467,30	0,537
467,51	0,619
467,72	0,544
467,93	0,527
468,14	0,535
468,35	0,577
468,56	0,519
468,77	0,480
468,98	0,522
469,19	0,637
469,40	0,673
469,61	0,511
469,82	0,427
470,03	0,667
470,24	0,671
470,45	0,621
470,66	0,499
470,87	0,480
471,08	0,606
471,29	0,564
471,50	0,527
471,71	0,637
471,92	0,650
472,13	0,581
472,34	0,489
472,55	0,649
472,76	0,535
472,97	0,673
473,18	0,423
473,39	0,486
473,60	0,703
473,81	0,440
474,01	0,746
474,22	0,429
474,43	0,861
474,64	0,565
474,85	0,489
475,06	0,425
475,27	0,659
475,48	0,614
475,69	0,406
475,90	0,743
476,11	0,649
476,32	0,692
476,53	0,531
476,74	0,610
476,95	0,738
477,16	0,501
477,37	0,645
477,58	0,649
477,79	0,692
478,00	0,663
478,21	0,599
478,41	0,664
478,62	0,547
478,83	0,670
479,04	0,723
479,25	0,495
479,46	0,720
479,67	0,828
479,88	0,742
480,09	0,759
480,30	0,788
480,51	0,653
480,72	0,849
480,93	0,893
481,14	0,538
481,34	0,515
481,55	0,629
481,76	0,533
481,97	0,695
482,18	0,574
482,39	0,856
482,60	0,552
482,81	0,749
483,02	0,517
483,23	0,599
483,44	0,843
483,65	0,651
483,85	0,606
484,06	0,652
484,27	0,508
484,48	0,608
484,69	0,776
484,90	0,746
485,11	0,643
485,32	0,831
485,53	0,918
485,73	0,717
485,94	0,497
486,15	0,731
486,36	0,478
486,57	0,768
486,78	0,800
486,99	0,828
487,20	0,768
487,41	0,506
487,61	0,528
487,82	0,766
488,03	0,508
488,24	0,874
488,45	0,693
488,66	0,846
488,87	0,621
489,08	0,725
489,28	0,736
489,49	0,875
489,70	0,681
489,91	0,786
490,12	0,703
490,33	0,711
490,54	0,453
490,74	0,816
490,95	0,660
491,16	0,700
491,37	0,857
491,58	0,524
491,79	0,651
492,00	0,874
492,20	0,729
492,41	0,827
492,62	0,860
492,83	0,857
493,04	0,817
493,25	0,979
493,45	0,997
493,66	0,988
493,87	0,976
494,08	0,957
494,29	0,894
494,50	1,109
494,70	1,179
494,91	1,034
495,12	1,085
495,33	1,108
495,54	1,162
495,75	1,131
495,95	1,165
496,16	1,474
496,37	1,739
496,58	2,250
496,79	3,248
496,99	5,063
497,20	7,793
497,41	12,149
497,62	17,650
497,83	25,912
498,04	34,387
498,24	44,404
498,45	54,402
498,66	62,204
498,87	66,258
499,08	68,467
499,28	68,765
499,49	66,893
499,70	65,356
499,91	65,584
500,12	66,009
500,32	69,561
500,53	72,961
500,74	76,233
500,95	80,217
501,15	85,018
501,36	87,886
501,57	90,341
501,78	92,413
501,99	93,228
502,19	94,547
502,40	92,616
502,61	93,390
502,82	93,219
503,02	92,825
503,23	92,144
503,44	92,346
503,65	91,555
503,86	91,852
504,06	91,382
504,27	92,914
504,48	93,771
504,69	93,653
504,89	93,759
505,10	94,243
505,31	95,805
505,52	96,174
505,72	96,553
505,93	97,561
506,14	97,323
506,35	97,306
506,55	96,884
506,76	96,486
506,97	96,973
507,18	96,635
507,38	96,768
507,59	95,700
507,80	95,605
508,01	95,535
508,21	95,679
508,42	95,743
508,63	95,870
508,84	96,137
509,04	97,400
509,25	97,215
509,46	97,288
509,67	97,205
509,87	97,290
510,08	97,327
510,29	97,186
510,49	97,290
510,70	96,686
510,91	95,818
511,12	96,283
511,32	96,609
511,53	95,161
511,74	95,561
511,94	96,441
512,15	94,795
512,36	96,344
512,57	95,769
512,77	96,581
512,98	95,966
513,19	96,963
513,39	97,102
513,60	95,823
513,81	97,580
514,01	97,162
514,22	95,811
514,43	97,353
514,64	96,325
514,84	96,417
515,05	97,063
515,26	96,380
515,46	96,555
515,67	96,809
515,88	97,845
516,08	97,540
516,29	97,686
516,50	96,822
516,70	97,502
516,91	97,344
517,12	97,774
517,32	97,440
517,53	98,288
517,74	98,312
517,95	96,757
518,15	96,524
518,36	96,577
518,57	95,974
518,77	96,618
518,98	95,958
519,19	95,568
519,39	95,052
519,60	95,102
519,80	94,444
520,01	93,500
520,22	95,216
520,42	95,055
520,63	94,808
520,84	95,110
521,04	96,109
521,25	95,904
521,46	95,354
521,66	95,721
521,87	96,086
522,08	96,179
522,28	96,158
522,49	95,523
522,70	95,749
522,90	95,399
523,11	96,114
523,31	95,423
523,52	95,057
523,73	95,575
523,93	94,850
524,14	94,820
524,35	94,474
524,55	94,322
524,76	94,717
524,97	94,335
525,17	95,680
525,38	95,206
525,58	95,256
525,79	94,714
526,00	96,191
526,20	96,304
526,41	97,198
526,61	98,182
526,82	97,594
527,03	97,358
527,23	97,644
527,44	98,329
527,64	98,463
527,85	98,625
528,06	96,864
528,26	97,154
528,47	97,454
528,68	96,954
528,88	96,451
529,09	96,247
529,29	97,202
529,50	98,516
529,70	97,692
529,91	97,014
530,12	97,286
530,32	95,115
530,53	96,080
530,73	94,448
530,94	94,786
531,15	94,195
531,35	94,255
531,56	93,502
531,76	92,745
531,97	93,743
532,17	94,205
532,38	93,289
532,59	94,047
532,79	94,741
533,00	95,174
533,20	95,816
533,41	95,908
533,61	95,711
533,82	95,267
534,03	96,048
534,23	96,824
534,44	97,488
534,64	96,107
534,85	96,565
535,05	96,906
535,26	97,006
535,46	97,516
535,67	96,634
535,88	97,393
536,08	96,333
536,29	96,543
536,49	94,531
536,70	93,631
536,90	93,382
537,11	92,167
537,31	92,411
537,52	92,479
537,72	91,866
537,93	92,238
538,13	91,540
538,34	92,131
538,55	90,874
538,75	90,859
538,96	90,304
539,16	89,008
539,37	87,566
539,57	86,130
539,78	84,151
539,98	82,459
540,19	80,701
540,39	79,548
540,60	78,308
540,80	78,212
541,01	77,669
541,21	79,150
541,42	78,318
541,62	79,576
541,83	79,636
542,03	79,665
542,24	78,608
542,44	77,643
542,65	75,459
542,85	73,569
543,06	69,332
543,26	65,862
543,47	60,582
543,67	53,839
543,88	45,693
544,08	35,910
544,29	27,552
544,49	19,051
544,70	12,563
544,90	8,348
545,11	5,501
545,31	3,601
545,52	2,467
545,72	2,007
545,93	1,267
546,13	1,323
546,34	0,967
546,54	0,948
546,75	0,930
546,95	0,956
547,15	0,810
547,36	0,723
547,56	0,969
547,77	0,817
547,97	0,931
548,18	0,689
548,38	0,701
548,59	0,712
548,79	0,695
549,00	0,544
549,20	0,733
549,41	0,593
549,61	0,692
549,81	0,561
550,02	0,974
550,22	0,595
550,43	0,614
550,63	0,650
550,84	0,621
551,04	0,739
551,25	0,728
551,45	0,638
551,65	0,597
551,86	0,763
552,06	0,627
552,27	0,599
552,47	0,799
552,68	0,788
552,88	0,459
553,08	0,676
553,29	0,612
553,49	0,527
553,70	0,769
553,90	0,526
554,11	0,667
554,31	0,623
554,51	0,682
554,72	0,569
554,92	0,614
555,13	0,701
555,33	0,670
555,53	0,765
555,74	0,736
555,94	0,544
556,15	0,588
556,35	0,687
556,56	0,657
556,76	0,672
556,96	0,578
557,17	0,695
557,37	0,674
557,58	0,774
557,78	0,468
557,98	0,640
558,19	0,649
558,39	0,671
558,59	0,665
558,80	0,709
559,00	0,782
559,21	0,476
559,41	0,484
559,61	0,552
559,82	0,549
560,02	0,605
560,23	0,826
560,43	0,502
560,63	0,636
560,84	0,629
561,04	0,533
561,24	0,557
561,45	0,455
561,65	0,542
561,85	0,773
562,06	0,635
562,26	0,500
562,47	0,598
562,67	0,423
562,87	0,594
563,08	0,595
563,28	0,537
563,48	0,588
563,69	0,631
563,89	0,648
564,09	0,732
564,30	0,726
564,50	0,713
564,70	0,631
564,91	0,814
565,11	0,676
565,31	0,640
565,52	0,777
565,72	0,702
565,92	0,874
566,13	0,567
566,33	0,764
566,53	0,653
566,74	0,690
566,94	0,618
567,14	0,589
567,35	0,517
567,55	0,573
567,75	0,668
567,96	0,571
568,16	0,729
568,36	0,507
568,57	0,767
568,77	0,614
568,97	0,695
569,18	0,800
569,38	0,689
569,58	0,687
569,79	0,503
569,99	0,674
570,19	0,661
570,39	0,767
570,60	0,578
570,80	0,688
571,00	0,840
571,21	0,694
571,41	0,779
571,61	0,903
571,82	0,786
572,02	0,940
572,22	0,987
572,42	0,805
572,63	1,162
572,83	1,171
573,03	1,034
573,24	0,987
573,44	1,138
573,64	1,183
573,84	1,233
574,05	1,180
574,25	1,240
574,45	1,304
574,66	1,824
574,86	2,482
575,06	3,622
575,26	5,298
575,47	7,987
575,67	11,944
575,87	17,324
576,07	24,385
576,28	33,511
576,48	42,956
576,68	52,148
576,88	61,354
577,09	69,612
577,29	74,731
577,49	79,328
577,69	81,503
577,90	82,318
578,10	81,976
578,30	82,863
578,50	83,044
578,71	82,528
578,91	82,941
579,11	83,339
579,31	83,603
579,52	84,712
579,72	84,659
579,92	85,354
580,12	87,050
580,33	88,240
580,53	88,373
580,73	89,515
580,93	89,589
581,13	90,064
581,34	91,672
581,54	90,694
581,74	91,630
581,94	92,697
582,15	91,980
582,35	92,360
582,55	92,953
582,75	92,198
582,95	94,000
583,16	94,208
583,36	95,539
583,56	96,094
583,76	96,678
583,96	95,610
584,17	96,437
584,37	96,977
584,57	96,004
584,77	95,808
584,97	94,896
585,18	94,401
585,38	93,930
585,58	92,703
585,78	91,903
585,98	91,225
586,19	92,044
586,39	91,001
586,59	92,291
586,79	92,508
586,99	93,223
587,20	92,388
587,40	94,476
587,60	94,450
587,80	95,990
588,00	95,249
588,20	95,942
588,41	97,358
588,61	97,014
588,81	97,887
589,01	97,736
589,21	97,204
589,41	97,281
589,62	98,099
589,82	98,694
590,02	97,316
590,22	98,479
590,42	99,253
590,62	98,140
590,83	96,577
591,03	98,697
591,23	97,359
591,43	98,048
591,63	97,279
591,83	97,361
592,03	96,221
592,24	97,359
592,44	97,703
592,64	96,221
592,84	98,376
593,04	97,170
593,24	97,468
593,44	97,580
593,65	97,950
593,85	97,541
594,05	97,795
594,25	97,495
594,45	97,664
594,65	97,348
594,85	97,676
595,06	97,261
595,26	96,912
595,46	97,734
595,66	96,519
595,86	97,242
596,06	97,115
596,26	96,727
596,46	97,141
596,66	96,927
596,87	97,488
597,07	97,650
597,27	97,897
597,47	98,812
597,67	98,464
597,87	97,700
598,07	96,754
598,27	96,821
598,47	97,101
598,67	96,801
598,88	96,992
599,08	96,109
599,28	97,318
599,48	96,388
599,68	96,779
599,88	97,090
600,08	96,282
600,28	96,986
600,48	97,702
600,68	96,228
600,88	96,929
601,09	96,391
601,29	95,597
601,49	97,213
601,69	96,208
601,89	96,463
602,09	96,430
602,29	95,697
602,49	95,625
602,69	95,774
602,89	95,295
603,09	95,917
603,29	95,588
603,49	95,347
603,69	95,188
603,90	95,019
604,10	95,656
604,30	94,701
604,50	95,089
604,70	95,237
604,90	96,089
605,10	96,043
605,30	96,429
605,50	94,964
605,70	96,220
605,90	96,034
606,10	95,486
606,30	95,834
606,50	96,922
606,70	96,092
606,90	95,321
607,10	95,022
607,30	96,170
607,50	94,132
607,70	95,299
607,90	94,225
608,10	94,677
608,30	94,600
608,50	95,510
608,70	94,927
608,90	95,180
609,11	95,642
609,31	95,431
609,51	96,386
609,71	95,752
609,91	96,033
610,11	95,269
610,31	95,371
610,51	93,139
610,71	92,876
610,91	90,217
611,11	89,264
611,31	88,037
611,51	86,576
611,71	85,146
611,91	83,242
612,11	83,745
612,31	82,874
612,51	83,737
612,71	84,416
612,91	85,519
613,11	86,063
613,31	87,511
613,51	88,758
613,71	89,310
613,91	90,141
614,11	90,546
614,31	88,869
614,50	89,179
614,70	88,172
614,90	86,512
615,10	83,807
615,30	81,139
615,50	77,852
615,70	74,472
615,90	70,569
616,10	65,560
616,30	59,550
616,50	52,978
616,70	45,161
616,90	38,388
617,10	29,820
617,30	22,928
617,50	16,564
617,70	11,378
617,90	7,794
618,10	5,532
618,30	3,867
618,50	2,888
618,70	2,113
618,90	1,387
619,10	1,354
619,30	1,154
619,49	0,883
619,69	0,926
619,89	0,729
620,09	0,666
620,29	0,923
620,49	0,801
620,69	0,559
620,89	0,560
621,09	0,586
621,29	0,665
621,49	0,493
621,69	0,657
621,89	0,636
622,09	0,488
622,29	0,668
622,48	0,607
622,68	0,574
622,88	0,487
623,08	0,567
623,28	0,550
623,48	0,365
623,68	0,566
623,88	0,665
624,08	0,554
624,28	0,325
624,48	0,482
624,67	0,553
624,87	0,464
625,07	0,490
625,27	0,545
625,47	0,487
625,67	0,608
625,87	0,423
626,07	0,576
626,27	0,333
626,47	0,581
626,66	0,454
626,86	0,445
627,06	0,430
627,26	0,527
627,46	0,453
627,66	0,474
627,86	0,424
628,06	0,464
628,25	0,471
628,45	0,390
628,65	0,501
628,85	0,534
629,05	0,580
629,25	0,516
629,45	0,385
629,65	0,571
629,84	0,415
630,04	0,429
630,24	0,450
630,44	0,482
630,64	0,500
630,84	0,526
631,04	0,499
631,23	0,520
631,43	0,463
631,63	0,468
631,83	0,501
632,03	0,434
632,23	0,470
632,42	0,503
632,62	0,450
632,82	0,433
633,02	0,430
633,22	0,380
633,42	0,650
633,62	0,476
633,81	0,636
634,01	0,408
634,21	0,518
634,41	0,584
634,61	0,508
634,80	0,378
635,00	0,288
635,20	0,421
635,40	0,779
635,60	0,588
635,80	0,436
635,99	0,460
636,19	0,577
636,39	0,799
636,59	0,780
636,79	0,620
636,98	0,644
637,18	0,736
637,38	0,705
637,58	0,718
637,78	0,692
637,97	0,516
638,17	0,989
638,37	0,577
638,57	0,825
638,77	0,672
638,96	0,529
639,16	0,738
639,36	0,500
639,56	0,371
639,76	0,854
639,95	0,642
640,15	0,420
640,35	0,758
640,55	0,546
640,75	0,570
640,94	0,669
641,14	0,634
641,34	0,665
641,54	0,703
641,73	0,572
641,93	0,544
642,13	0,636
642,33	0,804
642,53	0,689
642,72	0,530
642,92	0,621
643,12	0,500
643,32	0,815
643,51	0,908
643,71	0,762
643,91	0,733
644,11	0,893
644,30	0,654
644,50	0,599
644,70	0,555
644,90	0,593
645,09	0,995
645,29	0,550
645,49	0,969
645,69	1,050
645,88	0,813
646,08	0,767
646,28	0,872
646,48	0,914
646,67	0,506
646,87	0,813
647,07	0,881
647,26	1,107
647,46	1,080
647,66	1,222
647,86	0,819
648,05	0,998
648,25	0,850
648,45	0,939
648,65	0,848
648,84	0,714
649,04	1,129
649,24	1,152
649,43	0,632
649,63	1,425
649,83	1,274
650,03	0,800
650,22	0,723
650,42	1,074
650,62	0,392
650,81	0,937
651,01	1,066
651,21	1,241
651,40	0,832
651,60	0,976
651,80	0,748
652,00	1,188
652,19	0,661
652,39	1,490
652,59	1,306
652,78	1,541
652,98	1,030
653,18	1,210
653,37	1,348
653,57	1,696
653,77	2,015
653,96	2,363
654,16	3,220
654,36	4,232
654,55	6,094
654,75	8,079
654,95	11,050
655,14	14,521
655,34	19,540
655,54	24,396
655,73	30,246
655,93	36,919
656,13	42,773
656,32	48,531
656,52	55,377
656,72	60,159
656,91	63,413
657,11	67,205
657,31	68,964
657,50	72,531
657,70	74,346
657,90	75,241
658,09	76,298
658,29	79,245
658,49	78,180
658,68	80,055
658,88	81,233
659,07	81,931
659,27	83,345
659,47	84,192
659,66	85,334
659,86	87,306
660,06	90,656
660,25	89,274
660,45	90,635
660,64	91,016
660,84	89,612
661,04	92,829
661,23	91,625
661,43	91,733
661,63	92,239
661,82	91,853
662,02	94,156
662,21	92,842
662,41	94,187
662,61	94,144
662,80	95,646
663,00	94,208
663,19	95,752
663,39	98,884
663,59	97,291
663,78	97,742
663,98	96,277
664,17	98,466
664,37	99,256
664,57	98,141
664,76	99,878
664,96	99,558
665,15	98,127
665,35	100,130
665,55	98,623
665,74	98,624
665,94	98,991
666,13	97,999
666,33	99,879
666,53	97,229
666,72	98,271
666,92	97,805
667,11	98,442
667,31	97,252
667,50	96,545
667,70	97,037
667,90	96,331
668,09	97,688
668,29	97,837
668,48	96,964
668,68	95,835
668,87	96,729
669,07	95,667
669,26	95,079
669,46	95,103
669,66	95,344
669,85	95,730
670,05	95,423
670,24	94,835
670,44	95,519
670,63	96,324
670,83	97,301
671,02	97,044
671,22	97,738
671,42	96,633
671,61	97,882
671,81	98,397
672,00	97,334
672,20	98,080
672,39	97,277
672,59	97,444
672,78	97,815
672,98	97,090
673,17	96,982
673,37	97,225
673,56	96,829
673,76	96,242
673,95	96,968
674,15	96,544
674,34	96,910
674,54	97,295
674,73	97,399
674,93	97,122
675,13	97,527
675,32	96,576
675,52	96,682
675,71	96,106
675,91	96,564
676,10	96,258
676,30	96,137
676,49	97,542
676,69	96,389
676,88	96,608
677,08	96,014
677,27	97,563
677,47	95,500
677,66	96,629
677,86	95,994
678,05	95,518
678,24	96,795
678,44	96,785
678,63	94,305
678,83	95,253
679,02	94,174
679,22	92,892
679,41	94,389
679,61	94,011
679,80	93,210
680,00	91,550
680,19	93,408
680,39	93,075
680,58	92,331
680,78	91,939
680,97	93,053
681,17	90,616
681,36	92,191
681,56	90,956
681,75	90,083
681,94	91,521
682,14	91,004
682,33	91,776
682,53	93,509
682,72	92,101
682,92	93,041
683,11	91,941
683,31	93,054
683,50	91,699
683,69	92,933
683,89	93,439
684,08	93,652
684,28	93,623
684,47	91,977
684,67	91,409
684,86	89,098
685,06	88,780
685,25	88,567
685,44	86,875
685,64	83,832
685,83	82,912
686,03	80,517
686,22	78,867
686,42	77,926
686,61	76,654
686,80	75,377
687,00	75,049
687,19	73,549
687,39	73,339
687,58	72,936
687,77	73,434
687,97	71,415
688,16	71,524
688,36	69,394
688,55	68,206
688,74	65,518
688,94	62,924
689,13	58,133
689,33	54,751
689,52	49,699
689,71	45,746
689,91	41,070
690,10	37,280
690,30	34,781
690,49	32,770
690,68	30,577
690,88	29,914
691,07	29,586
691,27	29,594
691,46	29,533
691,65	29,317
691,85	28,498
692,04	27,970
692,23	26,341
692,43	24,816
692,62	21,796
692,82	18,085
693,01	14,488
693,20	11,863
693,40	8,852
693,59	6,727
693,78	4,863
693,98	3,943
694,17	2,731
694,36	2,448
694,56	1,818
694,75	1,280
694,94	1,126
695,14	0,972
695,33	0,770
695,53	0,771
695,72	0,777
695,91	0,659
696,11	0,540
696,30	0,563
696,49	0,456
696,69	0,538
696,88	0,598
697,07	0,366
697,27	0,552
697,46	0,527
697,65	0,673
697,85	0,550
698,04	0,647
698,23	0,589
698,43	0,867
698,62	0,273
698,81	0,725
699,01	1,032
699,20	0,580
699,39	0,677
699,58	0,761
699,78	0,914
699,97	0,528
700,16	0,745
700,36	0,375
700,55	1,124
700,74	0,734
700,94	1,162
701,13	0,816
701,32	1,454
701,52	1,324
701,71	0,877
701,90	1,362
702,09	1,001
702,29	1,271
702,48	1,252
702,67	1,160
702,87	1,063
703,06	1,014
703,25	1,128
703,44	0,814
703,64	1,920
703,83	2,110
704,02	1,065
704,22	0,708
704,41	0,701
704,60	2,457
704,79	0,790
704,99	1,765
705,18	1,452
705,37	1,704
705,56	2,537
705,76	2,034
705,95	1,834
706,14	1,686
706,33	1,921
706,53	2,682
706,72	1,380
706,91	1,877
707,11	2,444
707,30	2,403
707,49	2,373
707,68	1,082
707,88	2,993
708,07	2,462
708,26	2,554
708,45	1,876
708,64	1,898
708,84	2,190
709,03	1,383
709,22	2,377
709,41	3,018
709,61	2,996
709,80	2,195
709,99	2,350
710,18	3,122
710,38	1,991
710,57	2,093
710,76	0,964
710,95	2,990
711,14	4,631
711,34	4,337
711,53	3,624
711,72	3,597
711,91	1,321
712,11	3,558
712,30	4,634
712,49	2,459
712,68	3,841
712,87	4,659
713,07	4,045
713,26	3,906
713,45	4,972
713,64	2,984
713,83	1,743
714,03	5,319
714,22	2,526
714,41	2,908
714,60	2,726
714,79	1,721
714,99	3,494
715,18	4,413
715,37	5,266
715,56	4,067
715,75	3,975
715,94	4,071
716,14	4,366
716,33	4,957
716,52	6,861
716,71	4,302
716,90	5,949
717,10	3,013
717,29	6,171
717,48	5,445
717,67	2,379
717,86	3,399
718,05	2,458
718,24	5,992
718,44	4,534
718,63	4,489
718,82	5,730
719,01	5,614
719,20	5,450
719,39	4,620
719,59	3,444
719,78	4,871
719,97	6,067
720,16	5,346
720,35	3,862
720,54	4,654
720,73	2,573
720,93	5,950
721,12	2,509
721,31	4,598
721,50	8,086
721,69	4,634
721,88	3,922
722,07	4,969
722,27	4,065
722,46	2,906
722,65	4,579
722,84	5,808
723,03	1,627
723,22	5,632
723,41	7,751
723,60	6,767
723,79	5,919
723,99	4,381
724,18	8,147
724,37	7,401
724,56	9,188
724,75	5,704
724,94	11,160
725,13	13,408
725,32	8,840
725,51	8,612
725,71	6,250
725,90	3,568
726,09	12,399
726,28	8,667
726,47	7,910
726,66	6,326
726,85	2,971
727,04	4,984
727,23	4,175
727,42	10,341
727,61	0,847
727,81	10,115
728,00	7,919
728,19	4,920
728,38	5,832
728,57	8,910
728,76	13,361
728,95	7,366
729,14	1,586
729,33	11,526
729,52	13,611
729,71	10,563
729,90	8,726
730,09	9,112
730,28	13,164
730,48	8,121
730,67	11,608
730,86	5,970
731,05	8,061
731,24	7,834
731,43	5,786
731,62	11,278
731,81	7,751
732,00	5,083
732,19	8,301
732,38	7,330
732,57	8,447
732,76	13,333
732,95	4,800
733,14	3,901
733,33	7,555
733,52	11,259
733,71	7,535
733,90	10,411
734,09	7,990
734,28	15,034
734,47	6,842
734,66	12,347
734,85	9,929
735,04	12,534
735,23	13,360
735,42	7,637
735,61	12,667
735,81	11,310
736,00	15,663
736,19	14,349
736,38	7,556
736,57	14,903
736,76	6,822
736,95	10,455
737,14	14,438
737,33	13,804
737,52	9,502
737,71	2,724
737,90	12,103
738,09	14,417
738,28	11,802
738,47	8,497
738,66	11,250
738,85	7,045
739,04	13,752
739,22	11,318
739,41	14,677
739,60	4,348
739,79	15,925
739,98	4,537
740,17	15,646
740,36	18,750
740,55	20,282
740,74	11,478
740,93	11,179
741,12	11,397
741,31	12,500
741,50	11,676
741,69	17,407
741,88	4,200
742,07	11,372
742,26	3,558
742,45	19,368
742,64	20,144
742,83	8,723
743,02	11,712
743,21	15,895
743,40	13,628
743,59	12,295
743,78	13,100
743,97	14,662
744,16	9,313
744,34	14,370
744,53	9,631
744,72	16,424
744,91	12,632
745,10	20,930
745,29	9,929
745,48	13,307
745,67	20,570
745,86	12,441
746,05	14,612
746,24	9,586
746,43	13,948
746,62	10,369
746,81	15,297
747,00	14,196
747,18	24,176
747,37	11,514
747,56	9,663
747,75	14,661
747,94	18,381
748,13	15,525
748,32	23,077
748,51	19,413
748,70	19,664
748,89	20,290
749,08	17,429
749,26	12,888
749,45	22,824
749,64	20,844
749,83	10,687
750,02	19,890
750,21	14,956
750,40	10,156
750,59	23,585
750,78	23,964
750,96	18,436
751,15	24,317
751,34	26,963
751,53	26,601
751,72	15,633
751,91	15,890
752,10	16,049
752,29	20,621
752,47	22,472
752,66	23,099
752,85	20,743
753,04	11,356
753,23	13,245
753,42	24,620
753,61	13,725
753,80	28,726
753,98	4,912
754,17	17,791
754,36	24,576
754,55	19,436
754,74	17,052
754,93	21,614
755,12	14,667
755,30	15,235
755,49	11,315
755,68	32,565
755,87	11,411
756,06	26,536
756,25	32,063
756,43	11,724
756,62	34,125
756,81	16,172
757,00	15,942
757,19	25,000
757,38	34,700
757,56	22,581
757,75	26,471
757,94	28,076
758,13	17,532
758,32	28,030
758,51	17,647
758,69	5,200
758,88	13,814
759,07	24,014
759,26	7,907
759,45	26,201
759,63	22,305
759,82	19,529
760,01	16,054
760,20	22,957
760,39	25,373
760,57	29,752
760,76	13,063
760,95	32,407
761,14	41,224
761,33	18,438
761,51	31,900
761,70	40,345
761,89	24,180
762,08	30,698
762,27	21,612
762,45	25,292
762,64	19,048
762,83	21,239
763,02	22,326
763,21	26,724
763,39	20,408
763,58	30,189
763,77	35,907
763,96	39,759
764,14	18,333
764,33	20,513
764,52	57,511
764,71	26,906
764,89	16,176
765,08	44,828
765,27	41,636
765,46	21,196
765,65	22,707
765,83	27,273
766,02	19,574
766,21	24,862
766,40	23,810
766,58	32,520
766,77	19,900
766,96	43,182
767,15	33,333
767,33	30,409
767,52	43,902
767,71	43,478
767,90	25,843
768,08	45,136
768,27	32,500
768,46	21,094
768,64	35,233
768,83	20,833
769,02	59,500
769,21	20,961
769,39	36,628
769,58	23,699
769,77	57,088
769,96	27,749
770,14	34,014
770,33	29,439
770,52	30,688
770,70	18,000
770,89	61,745
771,08	35,593
771,27	52,577
771,45	46,491
771,64	63,542
771,83	35,981
772,01	26,506
772,20	57,789
772,39	17,333
772,57	48,062
772,76	-5,926
772,95	41,844
773,14	32,258
773,32	52,258
773,51	59,701
773,70	63,750
773,88	42,623
774,07	27,225
774,26	24,113
774,44	5,488
774,63	50,254
774,82	40,854
775,00	56,667
775,19	-8,000
775,38	45,665
775,56	29,167
775,75	50,602
775,94	12,658
776,12	9,392
776,31	58,235
776,50	61,364
776,68	64,737
776,87	31,818
777,06	40,690
777,24	51,111
777,43	46,154
777,62	58,088
777,80	46,622
777,99	66,857
778,18	64,851
778,36	32,000
778,55	37,190
778,74	34,028
778,92	49,112
779,11	66,667
779,29	44,025
779,48	19,728
779,67	6,202
779,85	33,333
780,04	52,432
780,23	39,568
780,41	33,594
780,60	16,842
780,79	64,407
780,97	56,579
781,16	39,394
781,34	78,351
781,53	40,171
781,72	16,788
781,90	41,406
782,09	61,290
782,28	60,584
782,46	43,704
782,65	50,000
782,83	49,438
783,02	48,750
783,21	44,000
783,39	60,000
783,58	47,337
783,76	71,508
783,95	48,485
784,14	61,589
784,32	46,309
784,51	55,172
784,69	27,966
784,88	59,459
785,06	61,345
785,25	85,350
785,44	51,799
785,62	58,571
785,81	60,563
785,99	77,698
786,18	46,622
786,37	50,370
786,55	19,266
786,74	38,816
786,92	42,188
787,11	58,333
787,29	50,000
787,48	23,333
787,67	16,867
787,85	81,897
788,04	46,535
788,22	56,557
788,41	65,882
788,59	96,330
788,78	46,667
788,96	104,717
789,15	89,474
789,34	87,273
789,52	48,673
789,71	71,318
789,89	72,340
790,08	65,068
790,26	80,000
790,45	53,788
790,63	37,963
790,82	59,394
791,00	38,194
791,19	51,613
791,38	88,889
791,56	55,263
791,75	80,734
791,93	66,667
792,12	45,562
792,30	63,200
792,49	43,697
792,67	64,179
792,86	44,186
793,04	62,617
793,23	46,667
793,41	78,481
793,60	67,677
793,78	118,421
793,97	105,128
794,15	27,273
794,34	86,813
794,52	62,338
794,71	32,099
794,89	70,000
795,08	59,223
795,26	70,000
795,45	79,104
795,63	77,273
795,82	52,336
796,00	33,028
796,19	51,667
796,37	69,343
796,56	90,323
796,74	40,708
796,93	74,157
797,11	87,342
797,30	55,833
797,48	40,690
797,67	101,667
797,85	59,184
798,04	75,000
798,22	57,937
798,41	70,588
798,59	88,421
798,77	40,000
798,96	65,591
799,14	76,724
799,33	71,756
799,51	73,846
799,70	65,772
799,88	59,091
800,07	60,526
800,25	43,448
800,44	45,455
800,62	65,882
800,80	57,971
800,99	114,286
801,17	30,172
801,36	60,000
801,54	67,708
801,73	48,485
801,91	68,852
802,10	90,476
802,28	71,028
802,46	54,321
802,65	32,184
802,83	68,539
803,02	90,526
803,20	46,875
803,39	43,103
803,57	73,494
803,75	43,243
803,94	63,025
804,12	61,667
804,31	71,681
804,49	62,500
804,67	59,200
804,86	58,929
805,04	70,270
805,23	69,655
805,41	59,836
805,59	57,377
805,78	72,727
805,96	50,000
806,15	90,625
806,33	70,588
806,51	60,177
806,70	106,667
806,88	84,553
807,07	14,286
807,25	55,975
807,43	74,172
807,62	38,211
807,80	103,226
807,99	23,016
808,17	90,071
808,35	60,526
808,54	51,613
808,72	46,400
808,90	46,053
809,09	63,333
809,27	36,937
809,46	89,286
809,64	40,196
809,82	25,287
810,01	56,061
810,19	83,000
810,37	23,077
810,56	106,098
810,74	37,748
810,92	71,970
811,11	84,314
811,29	38,298
811,48	66,667
811,66	95,349
811,84	66,972
812,03	45,455
812,21	-33,333
812,39	82,203
812,58	80,392
812,76	64,486
812,94	72,667
813,13	61,905
813,31	61,667
813,49	86,957
813,68	80,870
813,86	73,469
814,04	59,223
814,23	92,929
814,41	46,324
814,59	88,136
814,78	69,118
814,96	67,568
815,14	90,000
815,33	57,971
815,51	45,185
815,69	45,679
815,87	45,217
816,06	48,750
816,24	70,199
816,42	39,103
816,61	56,780
816,79	104,819
816,97	67,568
817,16	31,613
817,34	97,931
817,52	81,379
817,70	127,778
817,89	38,843
818,07	62,069
818,25	40,541
818,44	77,326
818,62	75,862
818,80	69,930
818,98	45,714
819,17	24,615
819,35	71,765
819,53	59,406
819,72	43,605
819,90	39,521
820,08	27,922
820,26	78,947
820,45	72,892
820,63	63,542
820,81	53,020
820,99	92,481
821,18	43,704
821,36	55,714
821,54	41,860
821,73	57,297
821,91	38,298
822,09	53,529
822,27	36,041
822,46	42,500
822,64	40,397
822,82	56,585
823,00	56,757
823,19	34,091
823,37	74,286
823,55	50,588
823,73	54,667
823,91	24,862
824,10	67,039
824,28	39,259
824,46	25,000
824,64	35,784
824,83	31,707
825,01	45,652
825,19	33,143
825,37	61,979
825,56	47,500
825,74	49,048
825,92	37,640
826,10	52,795
826,28	46,309
826,47	54,472
826,65	29,730
826,83	39,785
827,01	48,485
827,19	51,266
827,38	38,342
827,56	33,654
827,74	47,967
827,92	41,951
828,10	48,370
828,29	57,143
828,47	60,965
828,65	54,595
828,83	40,909
829,01	41,333
829,20	31,013
829,38	32,780
829,56	33,603
829,74	38,636
829,92	39,691
830,10	63,063
830,29	30,270
830,47	56,771
830,65	20,536
830,83	22,857
831,01	35,833
831,20	41,089
831,38	47,317
831,56	53,036
831,74	48,000
831,92	35,795
832,10	37,273
832,29	44,550
832,47	38,938
832,65	41,702
832,83	29,302
833,01	29,644
833,19	44,344
833,37	34,444
833,56	30,047
833,74	38,866
833,92	22,566
834,10	51,777
834,28	43,462
834,46	31,488
834,64	31,641
834,83	31,741
835,01	26,070
835,19	6,161
835,37	28,685
835,55	35,379
835,73	47,794
835,91	35,521
836,09	29,461
836,28	33,588
836,46	30,175
836,64	39,344
836,82	15,672
837,00	36,395
837,18	49,012
837,36	35,829
837,54	14,394
837,72	33,865
837,91	27,309
838,09	16,000
838,27	24,542
838,45	43,366
838,63	24,068
838,81	36,513
838,99	27,178
839,17	41,424
839,35	30,370
839,53	33,893
839,72	9,746
839,90	5,775
840,08	29,487
840,26	26,814
840,44	13,272
840,62	35,354
840,80	11,111
840,98	25,680
841,16	20,285
841,34	26,377
841,52	28,754
841,70	9,428
841,89	25,484
842,07	26,216
842,25	15,909
842,43	20,323
842,61	37,265
842,79	33,841
842,97	20,122
843,15	32,951
843,33	25,416
843,51	27,924
843,69	12,778
843,87	26,146
844,05	15,364
844,23	18,649
844,41	14,824
844,59	24,148
844,77	4,323
844,95	25,728
845,13	27,869
845,31	23,184
845,50	26,546
845,68	16,321
845,86	25,708
846,04	27,407
846,22	29,356
846,40	9,186
846,58	7,775
846,76	13,965
846,94	14,904
847,12	9,479
847,30	27,189
847,48	23,261
847,66	23,659
847,84	4,061
848,02	24,324
848,20	13,907
848,38	15,126
848,56	16,774
848,74	12,810
848,92	11,065
849,10	19,643
849,28	12,200
849,46	8,178
849,64	13,333
849,82	10,337
850,00	8,830
850,18	15,242
850,36	21,491
850,54	14,574
850,72	12,682
850,90	17,032
851,08	15,638
851,26	19,636
851,44	17,671
851,62	3,311
851,80	9,145
851,98	20,782
852,16	26,749
852,34	17,268
852,52	12,326
852,70	6,827
852,87	16,571
853,05	13,026
853,23	16,275
853,41	11,861
853,59	10,566
853,77	9,524
853,95	15,466
854,13	10,097
854,31	14,660
854,49	7,615
854,67	17,669
854,85	23,130
855,03	16,475
855,21	21,151
855,39	7,383
855,57	19,746
855,75	13,659
855,93	13,958
856,11	18,660
856,28	16,146
856,46	5,392
856,64	15,372
856,82	11,867
857,00	14,187
857,18	15,649
857,36	11,261
857,54	14,020
857,72	13,356
857,90	6,919
858,08	11,111
858,26	8,257
858,44	11,491
858,61	6,412
858,79	13,643
858,97	10,888
859,15	12,481
859,33	7,055
859,51	9,265
859,69	9,524
859,87	12,299
860,05	11,855
860,23	3,939
860,40	7,220
860,58	8,908
860,76	7,345
860,94	4,122
861,12	6,941
861,30	15,595
861,48	13,173
861,66	12,630
861,84	11,592
862,01	13,503
862,19	15,583
862,37	9,621
862,55	11,003
862,73	5,978
862,91	8,323
863,09	9,753
863,27	4,318
863,44	7,682
863,62	5,750
863,80	7,293
863,98	9,323
864,16	5,672
864,34	6,234
864,52	9,339
864,69	10,843
864,87	6,198
865,05	3,604
865,23	6,522
865,41	9,535
865,59	7,664
865,76	9,561
865,94	9,584
866,12	10,872
866,30	5,399
866,48	8,728
866,66	11,497
866,83	4,376
867,01	13,174
867,19	1,344
867,37	4,802
867,55	11,306
867,73	10,820
867,90	11,957
868,08	8,824
868,26	3,991
868,44	9,227
868,62	4,702
868,79	4,545
868,97	8,209
869,15	6,688
869,33	7,828
869,51	11,253
869,69	8,863
869,86	6,667
870,04	10,053
870,22	4,475
870,40	5,152
870,57	7,800
870,75	9,770
870,93	8,741
871,11	7,019
871,29	11,077
871,46	5,337
871,64	9,594
871,82	8,390
872,00	6,528
872,18	10,887
872,35	9,804
872,53	6,994
872,71	5,005
872,89	9,082
873,06	5,904
873,24	7,904
873,42	4,301
873,60	3,857
873,77	8,185
873,95	5,615
874,13	3,578
874,31	3,743
874,49	7,149
874,66	6,271
874,84	3,996
875,02	7,486
875,20	8,264
875,37	5,451
875,55	2,286
875,73	5,436
875,91	7,891
876,08	5,732
876,26	4,913
876,44	5,032
876,61	5,038
876,79	6,386
876,97	6,991
877,15	11,603
877,32	7,717
877,50	7,257
877,68	7,535
877,86	4,151
878,03	4,912
878,21	4,794
878,39	3,259
878,56	6,121
878,74	1,591
878,92	4,006
879,10	4,734
879,27	5,409
879,45	8,506
879,63	4,284
879,80	4,215
879,98	3,416
880,16	3,535
880,34	3,038
880,51	6,379
880,69	5,146
880,87	2,749
881,04	1,999
881,22	7,642
881,40	4,533
881,57	3,668
881,75	5,548
881,93	4,681
882,10	5,381
882,28	2,987
882,46	4,835
882,63	6,972
882,81	1,782
882,99	3,115
883,16	5,463
883,34	4,150
883,52	2,442
883,69	4,728
883,87	5,734
884,05	0,177
884,22	2,467
884,40	3,317
884,58	4,581
884,75	3,096
884,93	5,236
885,11	2,013
885,28	3,722
885,46	5,243
885,64	3,508
885,81	5,377
885,99	3,155
886,17	3,133
886,34	4,195
886,52	2,900
886,70	3,389
886,87	4,298
887,05	3,150
887,22	1,896
887,40	3,649
887,58	4,726
887,75	4,786
887,93	2,938
888,11	-0,346
888,28	4,267
888,46	2,818
888,63	5,204
888,81	3,140
888,99	0,284
889,16	3,043
889,34	4,954
889,51	2,525
889,69	0,940
889,87	1,833
890,04	0,897
890,22	2,058
890,39	2,167
890,57	3,945
890,75	4,233
890,92	3,165
891,10	3,843
891,27	1,473
891,45	2,458
891,63	4,857
891,80	0,653
891,98	3,861
892,15	2,707
892,33	2,138
892,51	1,705
892,68	2,844
892,86	1,628
893,03	2,906
893,21	4,535
893,38	4,230
893,56	2,947
893,74	3,106
893,91	4,651
894,09	2,285
894,26	3,409
894,44	3,004
894,61	3,269
894,79	2,270
894,96	2,842
895,14	2,135
895,32	3,282
895,49	2,713
895,67	3,581
895,84	2,861
896,02	3,719
896,19	2,037
896,37	5,425
896,54	2,577
896,72	2,653
896,89	3,799
897,07	2,076
897,25	2,065
897,42	1,917
897,60	3,614
897,77	3,954
897,95	3,263
898,12	1,062
898,30	2,390
898,47	2,048
898,65	2,640
898,82	3,054
899,00	2,617
899,17	2,783
899,35	2,452
899,52	2,218
899,70	2,939
899,87	2,721
900,05	5,144
900,22	2,749
900,40	1,566
900,57	1,906
900,75	0,381
900,92	2,090
901,10	3,279
901,27	4,085
901,45	4,856
901,62	3,328
901,80	2,899
901,97	2,479
902,15	2,468
902,32	2,387
902,50	1,989
902,67	3,015
902,85	1,923
903,02	3,675
903,20	1,439
903,37	3,205
903,54	3,098
903,72	0,724
903,89	2,340
904,07	2,087
904,24	2,794
904,42	2,853
904,59	1,408
904,77	1,623
904,94	3,246
905,12	1,846
905,29	3,225
905,47	4,010
905,64	2,504
905,81	2,549
905,99	2,512
906,16	2,317
906,34	1,873
906,51	2,148
906,69	1,304
906,86	2,510
907,03	2,719
907,21	1,588
907,38	0,891
907,56	1,356
907,73	3,097
907,91	2,700
908,08	2,197
908,25	0,884
908,43	1,552
908,60	1,712
908,78	3,517
908,95	1,468
909,13	3,550
909,30	1,429
909,47	2,526
909,65	3,618
909,82	2,293
910,00	1,487
910,17	1,583
910,34	2,165
910,52	2,605
910,69	3,257
910,87	2,860
911,04	2,146
911,21	2,661
911,39	2,119
911,56	1,821
911,73	1,623
911,91	2,082
912,08	2,284
912,26	2,791
912,43	2,845
912,60	1,711
912,78	1,940
912,95	2,432
913,13	1,660
913,30	2,155
913,47	2,384
913,65	1,279
913,82	2,124
913,99	1,891
914,17	2,374
914,34	2,602
914,51	2,725
914,69	1,580
914,86	3,135
915,03	1,416
915,21	1,924
915,38	1,018
915,56	2,169
915,73	1,501
915,90	1,750
916,08	1,984
916,25	1,386
916,42	1,073
916,60	1,683
916,77	2,178
916,94	1,294
917,12	2,033
917,29	2,569
917,46	0,954
917,64	1,120
917,81	1,393
917,98	1,047
918,16	1,953
918,33	1,423
918,50	2,239
918,67	1,882
918,85	1,847
919,02	1,756
919,19	2,327
919,37	1,652
919,54	2,035
919,71	1,932
919,89	1,946
920,06	1,091
920,23	2,178
920,41	2,746
920,58	1,788
920,75	1,732
920,92	1,249
921,10	1,053
921,27	0,503
921,44	1,973
921,62	0,378
921,79	2,252
921,96	1,969
922,13	1,124
922,31	0,726
922,48	2,191
922,65	0,734
922,82	1,158
923,00	1,696
923,17	0,641
923,34	1,847
923,52	1,289
923,69	1,271
923,86	1,917
924,03	1,607
924,21	1,206
924,38	2,557
924,55	2,477
924,72	1,639
924,90	1,158
925,07	1,738
925,24	0,905
925,41	1,911
925,59	1,188
925,76	2,179
925,93	1,184
926,10	1,564
926,28	1,776
926,45	2,756
926,62	2,191
926,79	1,290
926,96	1,992
927,14	1,343
927,31	1,702
927,48	1,204
927,65	1,224
927,83	1,389
928,00	1,486
928,17	2,599
928,34	1,211
928,51	2,213
928,69	1,366
928,86	1,594
929,03	2,186
929,20	1,334
929,37	1,843
929,55	1,290
929,72	1,882
929,89	1,188
930,06	1,184
930,23	1,358
930,41	1,933
930,58	1,814
930,75	1,137
930,92	1,546
931,09	1,414
931,27	1,285
931,44	1,415
931,61	1,656
931,78	1,114
931,95	0,536
932,12	1,381
932,30	1,365
932,47	1,159
932,64	1,484
932,81	1,187
932,98	1,137
933,16	1,213
933,33	0,885
933,50	1,160
933,67	2,554
933,84	1,530
934,01	1,376
934,18	1,098
934,36	1,373
934,53	0,414
934,70	1,036
934,87	1,326
935,04	1,797
935,21	0,941
935,38	1,580
935,56	0,480
935,73	0,818
935,90	0,055
936,07	1,531
936,24	1,300
936,41	1,347
936,58	0,717
936,76	1,216
936,93	0,608
937,10	0,995
937,27	1,465
937,44	0,292
937,61	1,645
937,78	1,872
937,95	0,988
938,13	1,160
938,30	0,953
938,47	1,443
938,64	1,780
938,81	0,778
938,98	1,032
939,15	1,188
939,32	1,330
939,49	1,082
939,66	1,769
939,84	0,938
940,01	0,959
940,18	0,928
940,35	1,034
940,52	0,693
940,69	2,111
940,86	0,658
941,03	1,280
941,20	1,901
941,37	1,583
941,54	0,514
941,71	-0,336
941,89	1,531
942,06	1,052
942,23	1,480
942,40	1,597
942,57	1,574
942,74	0,785
942,91	1,261
943,08	1,652
943,25	1,162
943,42	1,261
943,59	1,820
943,76	2,740
943,93	1,911
944,10	1,165
944,27	0,656
944,44	1,136
944,61	1,100
944,79	1,432
944,96	2,537
945,13	0,965
945,30	0,845
945,47	1,729
945,64	1,315
945,81	2,260
945,98	1,652
946,15	1,427
946,32	1,782
946,49	1,609
946,66	0,764
946,83	0,695
947,00	2,347
947,17	1,430
947,34	2,263
947,51	1,337
947,68	2,444
947,85	1,396
948,02	1,796
948,19	2,876
948,36	2,664
948,53	1,948
948,70	2,935
948,87	2,597
949,04	1,797
949,21	1,345
949,38	2,337
949,55	1,878
949,72	2,829
949,89	1,730
950,06	1,048
950,23	1,889
950,40	3,626
950,57	0,847
950,74	3,661
950,91	3,678
951,08	1,747
951,25	3,185
951,42	3,595
951,59	1,850
951,76	1,735
951,93	3,098
952,10	2,661
952,27	2,312
952,44	1,561
952,61	2,081
952,77	2,130
952,94	2,484
953,11	4,187
953,28	2,699
953,45	3,434
953,62	3,470
953,79	2,056
953,96	3,291
954,13	3,828
954,30	3,078
954,47	5,196
954,64	2,076
954,81	4,438
954,98	2,623
955,15	4,080
955,32	3,395
955,49	2,261
955,65	4,348
955,82	6,164
955,99	3,676
956,16	5,585
956,33	3,975
956,50	5,205
956,67	5,392
956,84	3,926
957,01	4,056
957,18	4,978
957,35	6,211
957,52	7,718
957,68	5,167
957,85	4,766
958,02	6,804
958,19	6,701
958,36	9,309
958,53	7,005
958,70	4,977
958,87	4,110
959,04	9,307
959,21	8,485
959,37	6,169
959,54	7,056
959,71	5,561
959,88	8,562
960,05	6,954
960,22	6,272
960,39	6,000
960,56	3,924
960,72	8,156
960,89	13,435
961,06	13,631
961,23	7,132
961,40	4,040
961,57	6,277
961,74	2,532
961,90	10,938
962,07	8,676
962,24	13,659
962,41	6,365
962,58	14,630
962,75	7,788
962,92	21,869
963,08	10,727
963,25	10,631
963,42	8,213
963,59	10,537
963,76	16,180
963,93	16,476
964,10	16,702
964,26	17,325
964,43	16,537
964,60	15,285
964,77	17,349
964,94	16,477
965,10	17,560
965,27	15,144
965,44	23,636
965,61	17,906
965,78	17,572
965,95	19,162
966,11	26,625
966,28	16,357
966,45	32,710
966,62	22,462
966,79	25,306
966,95	11,940
967,12	24,606
967,29	14,583
967,46	17,045
967,63	19,245
967,79	21,622
967,96	19,481
968,13	9,500
968,30	29,032
968,47	36,426
968,63	43,243
968,80	40,826
968,97	40,865
969,14	45,930
969,31	20,556
969,47	23,529
969,64	38,889
969,81	30,570
969,98	50,549
970,14	44,785
970,31	54,088
970,48	21,667
970,65	49,112
970,81	42,466
970,98	65,693
971,15	78,571
971,32	14,844
971,48	71,429
971,65	57,692
971,82	62,745
971,99	55,172
972,15	78,873
972,32	80,180
972,49	96,503
972,66	103,636
972,82	52,326
972,99	61,789
973,16	55,172
973,33	49,107
973,49	76,842
973,66	84,946
973,83	87,379
974,00	124,419
974,16	80,392
974,33	114,912
974,50	68,421
974,67	122,105
974,83	65,476
975,00	77,895
975,17	83,516
975,33	75,281
975,50	89,552
975,67	134,694
975,84	146,269
976,00	76,404
976,17	96,721
976,34	39,000
976,50	93,258
976,67	88,350
976,84	1300,000
977,00	116,327
977,17	115,556
977,34	112,088
977,50	107,463
977,67	144,643
977,84	127,419
978,01	100,000
978,17	66,667
978,34	127,778
978,51	102,941
978,67	117,105
978,84	102,344
979,01	148,649
979,17	94,872
979,34	80,137
979,51	136,735
979,67	98,765
979,84	189,796
980,01	233,333
980,17	174,648
980,34	322,222
980,51	111,594
980,67	109,412
980,84	283,333
981,01	240,000
981,17	356,000
981,34	322,222
981,50	91,176
981,67	179,661
981,84	3100,000
982,00	246,667
982,17	90,476
982,34	85,556
982,50	100,000
982,67	108,333
982,84	1920,000
983,00	850,000
983,17	153,731
983,33	143,103
983,50	860,000
983,67	-124,138
983,83	275,758
984,00	-442,857
984,17	200,000
984,33	-4000,000
984,50	285,714
984,66	267,391
984,83	131,169
985,00	-308,333
985,16	379,310
985,33	105,882
985,49	316,667
985,66	285,294
985,83	130,435
985,99	353,846
986,16	-1775,000
986,32	542,857
986,49	3600,000
986,66	293,939
986,82	408,333
986,99	241,509
987,15	-368,421
987,32	-250,000
987,49	116,000
987,65	5100,000
987,82	279,167
987,98	197,959
988,15	163,333
988,31	790,000
988,48	-933,333
988,65	261,905
988,81	119,444
988,98	241,463
989,14	216,667
989,31	347,619
989,47	102,941
989,64	-669,231
989,80	337,500
989,97	118,919
990,14	-113,043
990,30	-281,818
990,47	261,224
990,63	208,333
990,80	188,000
990,96	-320,000
991,13	318,750
991,29	358,621
991,46	0,000
991,62	-723,077
991,79	691,667
991,95	5600,000
992,12	-730,000
992,29	-187,500
992,45	130,588
992,62	276,744
992,78	252,273
992,95	-226,667
993,11	396,429
993,28	980,000
993,44	-590,000
993,61	-525,000
993,77	-2075,000
993,94	-3266,667
994,10	-84,000
994,27	747,368
994,43	279,070
994,60	0,000
994,76	1850,000
994,93	370,000
995,09	-352,941
995,26	666,667
995,42	298,039
995,59	395,238
995,75	500,000
995,92	1714,286
996,08	336,111
996,25	-750,000
996,41	-3850,000
996,58	440,000
996,74	138,636
996,91	320,690
997,07	0,000
997,23	6700,000
997,40	-12400,000
997,56	-446,154
997,73	-1212,500
997,89	223,684
998,06	769,231
998,22	-372,222
998,39	352,000
998,55	844,444
998,72	-1212,500
998,88	-160,000
999,05	-84,615
999,21	247,619
999,37	-233,333
999,54	-750,000
999,70	-270,000
999,87	562,500
1000,03	317,949
1000,20	266,667
1000,36	0,000
1000,52	420,833
1000,69	-404,762
1000,85	-160,000
1001,02	-404,167
1001,18	1350,000
1001,35	638,462
1001,51	611,765
1001,67	-646,154
1001,84	-600,000
1002,00	159,459
1002,17	754,545
1002,33	-1775,000
1002,50	333,333
1002,66	-292,308
1002,82	220,000
1002,99	564,286
1003,15	-1285,714
1003,32	-490,909
1003,48	296,429
1003,64	473,333
1003,81	392,593
1003,97	-2600,000
1004,14	736,364
1004,30	103,333
1004,46	-426,667
1004,63	678,571
1004,79	308,333
1004,95	493,333
1005,12	2600,000
1005,28	337,931
1005,45	167,568
1005,61	262,069
1005,77	-156,250
1005,94	-195,238
1006,10	-2300,000
1006,26	869,231
1006,43	-57,692
1006,59	-1054,545
1006,76	878,571
1006,92	588,889
1007,08	8200,000
1007,25	-181,481
1007,41	375,862
1007,57	2900,000
1007,74	1120,000
1007,90	-196,552
1008,06	208,696
1008,23	694,118
1008,39	-418,750
1008,55	-300,000
1008,72	-1300,000
1008,88	0,000
1009,04	263,415
1009,21	-163,158
1009,37	-483,333
1009,53	166,667
1009,70	1400,000
1009,86	-264,286
1010,02	3166,667
1010,19	781,818
1010,35	191,176
1010,51	-4150,000
1010,68	-762,500
1010,84	-75,000
1011,00	256,250
1011,17	-259,091
1011,33	0,000
1011,49	-426,667
1011,66	692,857
1011,82	316,129
1011,98	478,571
1012,14	-418,182
1012,31	328,205
1012,47	0,000
1012,63	616,667
1012,80	300,000
1012,96	-468,750
1013,12	-883,333
1013,29	411,111
1013,45	324,390
1013,61	3400,000
1013,77	-41,071
1013,94	1000,000
1014,10	201,695
1014,26	-2150,000
1014,43	-188,000
1014,59	485,000
1014,75	-144,444
1014,91	-553,333
1015,08	330,556
1015,24	9100,000
1015,40	376,471
1015,56	-6700,000
1015,73	264,286
1015,89	509,091
1016,05	2375,000
1016,21	-662,500
1016,38	400,000
1016,54	900,000
1016,70	-2166,667
1016,86	321,875
1017,03	700,000
1017,19	-523,077
1017,35	-505,882
1017,51	-1180,000
1017,68	-500,000
1017,84	-1557,143
1018,00	261,905
1018,16	369,231
1018,33	-1000,000
1018,49	-441,667
1018,65	-159,459
1018,81	271,795
1018,97	-928,571
1019,14	-1800,000
1019,30	-153,846
1019,46	0,000
1019,62	-241,176
1019,79	-2300,000
1019,95	841,667
1020,11	5050,000
1020,27	-255,556
1020,43	-203,846
1020,60	1083,333
1020,76	461,111
1020,92	306,667
1021,08	620,000
1021,24	560,000
1021,41	944,444
1021,57	1237,500
1021,73	615,385
1021,89	1560,000
1022,05	-300,000
1022,21	390,000
1022,38	-466,667
1022,54	-1550,000
1022,70	268,889
1022,86	-875,000
1023,02	404,167
1023,19	1480,000
1023,35	2266,667
1023,51	320,833
1023,67	355,556
1023,83	-462,500
1023,99	155,263
1024,16	-238,462
1024,32	-444,444
1024,48	-660,000
1024,64	197,619
1024,80	391,304
1024,96	187,179
1025,12	480,952
1025,29	209,524
1025,45	171,053
1025,61	450,000
1025,77	-1500,000
1025,93	-3900,000
1026,09	-1071,429
1026,26	441,667
1026,42	550,000
1026,58	369,697
1026,74	1116,667
1026,90	292,000
1027,06	175,000
1027,22	792,857
1027,38	230,769
1027,55	2866,667
1027,71	766,667
1027,87	-168,000
1028,03	600,000
1028,19	281,250
1028,35	385,000
1028,51	1200,000
1028,67	783,333
1028,83	-1425,000
1029,00	-223,810
1029,16	610,000
1029,32	-239,286
1029,48	228,889
1029,64	313,889
1029,80	2600,000
1029,96	553,333
1030,12	478,261
1030,28	-2133,333
1030,44	-384,615
1030,61	-379,167
1030,77	-168,571
1030,93	-500,000
1031,09	1233,333
1031,25	-6100,000
1031,41	-113,333
1031,57	376,923
1031,73	462,500
1031,89	-700,000
1032,05	-270,370
1032,21	954,545
1032,37	-107,407
1032,53	-700,000
1032,69	-62,500
1032,86	270,370
1033,02	-75,000
1033,18	-481,250
1033,34	363,158
1033,50	-3750,000
1033,66	-219,512
1033,82	356,522
1033,98	-248,148
1034,14	146,154
1034,30	370,968
1034,46	-2466,667
1034,62	500,000
1034,78	-542,857
1034,94	268,421
1035,10	-453,846
1035,26	-195,349
1035,42	-210,345
1035,58	-227,778
1035,74	616,667
1035,90	-407,692
1036,06	-1316,667
1036,22	666,667
1036,38	-317,647
1036,54	-275,000
1036,70	-90,909
1036,86	8700,000
1037,02	255,556
1037,18	489,474
1037,34	169,524
1037,50	-43,902
1037,66	-147,059
1037,82	1800,000
1037,98	-148,148
1038,14	-116,000
1038,30	-300,000
1038,46	-485,714
1038,62	452,174
1038,78	-1333,333
1038,94	-552,632
1039,10	272,727
1039,26	244,444
1039,42	-616,667
1039,58	828,571
1039,74	-452,632
1039,90	221,875
1040,06	-223,077
>>>>>End Processed Spectral Data<<<<<
