SpectraSuite Data File
++++++++++++++++++++++++++++++++++++
Date: Wed Feb 01 15:35:17 EET 2017
User: optolab
Dark Spectrum Present: Yes
Reference Spectrum Present: Yes
Number of Sampled Component Spectra: 1
Spectrometers: USB4C02475
Integration Time (usec): 100000 (USB4C02475)
Spectra Averaged: 1 (USB4C02475)
Boxcar Smoothing: 0 (USB4C02475)
Correct for Electrical Dark: No (USB4C02475)
Strobe/Lamp Enabled: No (USB4C02475)
Correct for Detector Non-linearity: No (USB4C02475)
Correct for Stray Light: No (USB4C02475)
Number of Pixels in Processed Spectrum: 3648
>>>>>Begin Processed Spectral Data<<<<<
344,91	2350,000
345,13	2350,000
345,35	2350,000
345,57	0,000
345,79	400,000
346,00	-1122,222
346,22	-1457,143
346,44	244,118
346,66	-354,167
346,87	-7500,000
347,09	254,545
347,31	-409,091
347,53	-220,513
347,74	192,308
347,96	342,424
348,18	678,947
348,40	222,581
348,61	558,824
348,83	197,619
349,05	203,922
349,27	-4200,000
349,48	619,231
349,70	-155,172
349,92	316,129
350,14	139,623
350,35	166,000
350,57	1150,000
350,79	348,000
351,01	-552,381
351,22	264,815
351,44	461,538
351,66	-228,000
351,87	-338,095
352,09	125,000
352,31	152,459
352,53	170,313
352,74	258,333
352,96	205,195
353,18	578,947
353,40	388,000
353,61	233,333
353,83	229,412
354,05	290,909
354,26	1483,333
354,48	140,000
354,70	418,182
354,92	-210,345
355,13	177,778
355,35	295,455
355,57	462,500
355,78	160,241
356,00	-3725,000
356,22	300,000
356,44	4750,000
356,65	186,364
356,87	250,000
357,09	512,500
357,30	268,889
357,52	239,655
357,74	525,000
357,95	274,359
358,17	191,803
358,39	227,419
358,60	221,622
358,82	337,500
359,04	337,037
359,26	305,714
359,47	5900,000
359,69	287,500
359,91	290,909
360,12	266,667
360,34	433,333
360,56	-46,296
360,77	950,000
360,99	476,190
361,21	234,000
361,42	3800,000
361,64	132,653
361,86	195,385
362,07	-364,516
362,29	173,333
362,51	-500,000
362,72	324,000
362,94	326,471
363,16	104,651
363,37	-828,571
363,59	411,538
363,81	275,000
364,02	455,556
364,24	433,333
364,46	2166,667
364,67	545,455
364,89	1971,429
365,11	198,571
365,32	431,034
365,54	200,000
365,76	226,531
365,97	258,824
366,19	148,276
366,41	400,000
366,62	281,481
366,84	248,837
367,05	255,102
367,27	1366,667
367,49	-630,769
367,70	382,353
367,92	173,770
368,14	243,750
368,35	-3800,000
368,57	296,000
368,79	303,448
369,00	226,087
369,22	-1037,500
369,43	191,765
369,65	216,129
369,87	351,351
370,08	138,554
370,30	201,786
370,51	160,656
370,73	128,889
370,95	161,290
371,16	173,810
371,38	276,667
371,60	1025,000
371,81	120,313
372,03	613,333
372,24	433,333
372,46	132,075
372,68	152,857
372,89	278,788
373,11	234,615
373,32	306,818
373,54	-530,769
373,76	430,769
373,97	640,000
374,19	522,727
374,40	228,125
374,62	-2266,667
374,84	3100,000
375,05	428,571
375,27	266,000
375,48	-5000,000
375,70	126,667
375,92	183,929
376,13	262,500
376,35	156,164
376,56	1000,000
376,78	172,222
376,99	246,429
377,21	202,083
377,43	106,061
377,64	130,435
377,86	227,586
378,07	289,744
378,29	-1012,500
378,51	377,419
378,72	235,417
378,94	-788,889
379,15	248,485
379,37	523,529
379,58	233,846
379,80	420,000
380,01	418,750
380,23	213,725
380,45	1400,000
380,66	2966,667
380,88	170,455
381,09	208,571
381,31	117,778
381,52	235,294
381,74	933,333
381,95	463,636
382,17	430,769
382,39	328,571
382,60	191,837
382,82	423,077
383,03	228,846
383,25	258,065
383,46	265,909
383,68	403,704
383,89	385,000
384,11	280,645
384,32	-2566,667
384,54	350,000
384,76	-2033,333
384,97	200,000
385,19	306,897
385,40	149,020
385,62	157,895
385,83	140,476
386,05	203,922
386,26	206,000
386,48	135,632
386,69	287,500
386,91	335,000
387,12	196,610
387,34	184,483
387,55	193,548
387,77	434,375
387,98	453,846
388,20	155,435
388,41	308,824
388,63	5500,000
388,84	172,131
389,06	216,667
389,27	447,368
389,49	222,222
389,70	185,714
389,92	136,667
390,13	197,959
390,35	235,294
390,56	201,852
390,78	444,444
390,99	980,000
391,21	615,789
391,42	160,000
391,64	246,341
391,85	144,828
392,07	229,545
392,28	161,333
392,50	254,545
392,71	-700,000
392,93	194,231
393,14	219,444
393,36	202,041
393,57	116,541
393,79	422,222
394,00	242,553
394,22	110,959
394,43	148,193
394,65	258,140
394,86	762,500
395,08	352,381
395,29	137,736
395,50	323,077
395,72	372,222
395,93	480,952
396,15	181,690
396,36	186,765
396,58	166,667
396,79	227,500
397,01	322,000
397,22	238,889
397,44	165,152
397,65	108,772
397,87	164,286
398,08	146,939
398,29	290,625
398,51	192,857
398,72	185,366
398,94	118,462
399,15	322,857
399,37	187,719
399,58	146,154
399,80	468,182
400,01	153,704
400,22	80,952
400,44	185,185
400,65	292,857
400,87	186,765
401,08	130,000
401,30	145,652
401,51	185,965
401,72	338,462
401,94	112,658
402,15	445,000
402,37	94,958
402,58	472,222
402,80	194,286
403,01	198,592
403,22	1218,182
403,44	205,797
403,65	189,286
403,87	127,143
404,08	307,692
404,30	143,529
404,51	-1333,333
404,72	110,000
404,94	105,882
405,15	158,000
405,37	200,000
405,58	117,647
405,79	140,244
406,01	195,122
406,22	122,414
406,44	187,234
406,65	185,965
406,86	129,167
407,08	193,671
407,29	75,728
407,51	163,415
407,72	131,481
407,93	140,217
408,15	49,573
408,36	153,488
408,58	135,052
408,79	56,667
409,00	119,792
409,22	107,937
409,43	106,329
409,64	85,093
409,86	70,440
410,07	48,462
410,29	76,866
410,50	68,085
410,71	62,500
410,93	59,236
411,14	89,922
411,35	73,810
411,57	68,421
411,78	62,500
412,00	65,605
412,21	70,968
412,42	57,672
412,64	38,627
412,85	47,423
413,06	45,732
413,28	20,721
413,49	51,185
413,70	57,609
413,92	34,783
414,13	24,066
414,34	33,716
414,56	34,965
414,77	56,962
414,98	36,577
415,20	37,716
415,41	35,411
415,63	36,567
415,84	39,444
416,05	26,923
416,27	25,323
416,48	28,652
416,69	31,416
416,91	21,892
417,12	18,717
417,33	31,579
417,55	20,121
417,76	31,828
417,97	17,635
418,19	14,115
418,40	17,021
418,61	13,704
418,83	13,818
419,04	15,931
419,25	18,380
419,46	16,391
419,68	19,048
419,89	7,899
420,10	13,061
420,32	9,215
420,53	13,942
420,74	13,977
420,96	20,250
421,17	12,240
421,38	13,819
421,60	13,024
421,81	12,756
422,02	19,749
422,23	22,441
422,45	24,563
422,66	28,141
422,87	35,920
423,09	37,093
423,30	40,313
423,51	47,323
423,73	52,138
423,94	52,661
424,15	59,184
424,36	65,893
424,58	69,750
424,79	77,577
425,00	84,582
425,22	89,277
425,43	88,363
425,64	88,978
425,85	93,036
426,07	91,654
426,28	94,853
426,49	95,313
426,71	89,831
426,92	86,327
427,13	93,495
427,34	95,008
427,56	97,078
427,77	94,894
427,98	93,475
428,19	93,871
428,41	97,115
428,62	95,528
428,83	93,932
429,04	95,616
429,26	95,959
429,47	98,796
429,68	98,175
429,89	95,423
430,11	95,959
430,32	95,682
430,53	95,410
430,74	98,965
430,96	95,821
431,17	96,231
431,38	97,585
431,59	96,131
431,81	96,241
432,02	96,984
432,23	94,913
432,44	96,993
432,66	96,344
432,87	97,325
433,08	97,899
433,29	94,099
433,51	92,937
433,72	93,907
433,93	91,936
434,14	90,852
434,35	93,555
434,57	93,716
434,78	96,556
434,99	93,459
435,20	94,968
435,42	93,017
435,63	93,569
435,84	96,993
436,05	94,908
436,26	92,883
436,48	94,099
436,69	96,085
436,90	95,009
437,11	94,003
437,32	94,170
437,54	95,019
437,75	94,051
437,96	94,322
438,17	91,468
438,38	94,292
438,60	93,928
438,81	93,784
439,02	94,600
439,23	93,866
439,44	93,849
439,66	94,531
439,87	94,381
440,08	95,055
440,29	93,617
440,50	95,088
440,72	95,509
440,93	94,611
441,14	95,199
441,35	94,109
441,56	94,651
441,77	95,392
441,99	93,461
442,20	95,277
442,41	94,146
442,62	95,122
442,83	94,555
443,04	94,793
443,26	93,986
443,47	95,319
443,68	94,296
443,89	94,495
444,10	94,938
444,31	96,300
444,53	94,739
444,74	95,519
444,95	95,461
445,16	97,271
445,37	95,535
445,58	95,533
445,80	96,276
446,01	97,275
446,22	96,871
446,43	96,907
446,64	96,471
446,85	96,227
447,06	95,743
447,28	94,983
447,49	95,599
447,70	94,489
447,91	95,448
448,12	94,320
448,33	94,873
448,54	94,307
448,76	93,562
448,97	93,732
449,18	91,831
449,39	92,792
449,60	92,523
449,81	92,603
450,02	94,772
450,23	94,244
450,45	94,137
450,66	95,059
450,87	95,735
451,08	95,352
451,29	95,803
451,50	96,200
451,71	96,148
451,92	95,820
452,13	95,915
452,35	96,031
452,56	95,153
452,77	94,646
452,98	93,515
453,19	94,521
453,40	92,945
453,61	94,332
453,82	93,211
454,03	93,454
454,25	93,169
454,46	93,177
454,67	91,783
454,88	91,489
455,09	90,691
455,30	88,122
455,51	89,273
455,72	86,732
455,93	85,575
456,14	82,000
456,35	81,462
456,56	78,286
456,78	76,846
456,99	75,156
457,20	71,981
457,41	68,850
457,62	67,316
457,83	64,459
458,04	62,219
458,25	59,060
458,46	53,765
458,67	49,629
458,88	44,007
459,09	37,884
459,30	31,654
459,51	25,119
459,73	19,806
459,94	14,565
460,15	9,638
460,36	6,488
460,57	4,332
460,78	2,578
460,99	1,587
461,20	1,157
461,41	1,052
461,62	0,772
461,83	0,976
462,04	0,868
462,25	0,914
462,46	0,595
462,67	0,612
462,88	0,693
463,09	0,758
463,30	0,531
463,51	0,599
463,72	0,697
463,93	0,553
464,15	0,670
464,36	0,634
464,57	0,447
464,78	0,581
464,99	0,541
465,20	0,439
465,41	0,511
465,62	0,610
465,83	0,750
466,04	0,584
466,25	0,463
466,46	0,541
466,67	0,484
466,88	0,629
467,09	0,555
467,30	0,332
467,51	0,564
467,72	0,559
467,93	0,670
468,14	0,687
468,35	0,595
468,56	0,428
468,77	0,520
468,98	0,573
469,19	0,532
469,40	0,505
469,61	0,593
469,82	0,489
470,03	0,555
470,24	0,678
470,45	0,728
470,66	0,515
470,87	0,472
471,08	0,621
471,29	0,344
471,50	0,655
471,71	0,550
471,92	0,803
472,13	0,506
472,34	0,622
472,55	0,583
472,76	0,647
472,97	0,689
473,18	0,439
473,39	0,414
473,60	0,772
473,81	0,529
474,01	0,587
474,22	0,594
474,43	0,853
474,64	0,561
474,85	0,347
475,06	0,416
475,27	0,485
475,48	0,597
475,69	0,372
475,90	0,589
476,11	0,601
476,32	0,565
476,53	0,666
476,74	0,685
476,95	0,409
477,16	0,567
477,37	0,628
477,58	0,763
477,79	0,951
478,00	0,702
478,21	0,382
478,41	0,770
478,62	0,556
478,83	0,684
479,04	0,718
479,25	0,531
479,46	0,570
479,67	0,993
479,88	0,751
480,09	0,701
480,30	0,850
480,51	0,896
480,72	0,606
480,93	0,753
481,14	0,758
481,34	0,704
481,55	0,421
481,76	0,414
481,97	0,787
482,18	0,726
482,39	0,608
482,60	0,686
482,81	0,806
483,02	0,329
483,23	0,763
483,44	0,709
483,65	0,699
483,85	0,640
484,06	0,708
484,27	0,559
484,48	0,766
484,69	0,906
484,90	0,917
485,11	0,660
485,32	0,705
485,53	0,843
485,73	0,859
485,94	0,505
486,15	0,909
486,36	0,565
486,57	0,801
486,78	0,800
486,99	0,898
487,20	0,687
487,41	0,712
487,61	0,573
487,82	0,666
488,03	0,610
488,24	0,759
488,45	0,656
488,66	0,778
488,87	0,649
489,08	0,717
489,28	0,832
489,49	1,034
489,70	0,804
489,91	0,841
490,12	0,806
490,33	0,948
490,54	0,777
490,74	1,036
490,95	0,923
491,16	1,115
491,37	1,074
491,58	0,945
491,79	0,976
492,00	0,966
492,20	0,954
492,41	1,022
492,62	0,935
492,83	1,146
493,04	1,259
493,25	1,337
493,45	1,521
493,66	2,114
493,87	2,684
494,08	3,672
494,29	5,258
494,50	7,386
494,70	10,407
494,91	14,095
495,12	18,372
495,33	23,629
495,54	28,664
495,75	35,477
495,95	41,783
496,16	47,927
496,37	54,335
496,58	58,665
496,79	60,827
496,99	61,818
497,20	63,112
497,41	63,424
497,62	64,594
497,83	66,981
498,04	67,925
498,24	72,488
498,45	76,513
498,66	79,358
498,87	83,576
499,08	85,704
499,28	88,703
499,49	90,367
499,70	91,679
499,91	92,760
500,12	91,528
500,32	91,298
500,53	92,238
500,74	91,439
500,95	90,904
501,15	90,477
501,36	90,359
501,57	90,200
501,78	90,015
501,99	91,021
502,19	91,425
502,40	91,431
502,61	93,538
502,82	93,410
503,02	94,821
503,23	94,913
503,44	96,340
503,65	97,112
503,86	95,666
504,06	96,780
504,27	96,192
504,48	97,122
504,69	96,133
504,89	95,745
505,10	95,898
505,31	96,206
505,52	94,675
505,72	95,666
505,93	95,835
506,14	96,350
506,35	96,439
506,55	96,812
506,76	95,768
506,97	97,023
507,18	97,320
507,38	97,753
507,59	96,163
507,80	96,747
508,01	95,423
508,21	95,510
508,42	95,709
508,63	96,085
508,84	94,884
509,04	95,630
509,25	95,894
509,46	95,172
509,67	94,101
509,87	95,705
510,08	96,054
510,29	95,172
510,49	95,892
510,70	95,963
510,91	95,232
511,12	96,037
511,32	96,437
511,53	95,534
511,74	95,340
511,94	96,024
512,15	96,535
512,36	97,675
512,57	97,031
512,77	98,417
512,98	97,888
513,19	97,975
513,39	98,945
513,60	97,793
513,81	98,826
514,01	99,102
514,22	97,542
514,43	98,800
514,64	99,294
514,84	98,597
515,05	99,020
515,26	97,558
515,46	97,585
515,67	98,192
515,88	96,656
516,08	96,834
516,29	95,986
516,50	95,407
516,70	94,688
516,91	94,556
517,12	94,064
517,32	94,530
517,53	93,674
517,74	93,831
517,95	93,411
518,15	93,549
518,36	94,095
518,57	93,371
518,77	95,024
518,98	94,443
519,19	94,698
519,39	95,248
519,60	94,877
519,80	95,752
520,01	94,810
520,22	96,290
520,42	95,248
520,63	94,368
520,84	95,328
521,04	95,623
521,25	94,347
521,46	94,144
521,66	94,880
521,87	93,894
522,08	94,202
522,28	93,950
522,49	93,597
522,70	94,644
522,90	95,560
523,11	95,544
523,31	96,203
523,52	95,174
523,73	96,516
523,93	95,343
524,14	96,604
524,35	96,668
524,55	96,056
524,76	94,985
524,97	95,196
525,17	96,551
525,38	95,806
525,58	95,092
525,79	96,200
526,00	96,572
526,20	96,026
526,41	96,524
526,61	97,159
526,82	96,801
527,03	96,496
527,23	95,962
527,44	94,719
527,64	96,030
527,85	95,783
528,06	95,426
528,26	94,358
528,47	93,977
528,68	93,998
528,88	93,257
529,09	93,737
529,29	94,285
529,50	95,142
529,70	95,506
529,91	94,137
530,12	96,481
530,32	95,328
530,53	96,931
530,73	95,824
530,94	96,811
531,15	95,570
531,35	96,195
531,56	97,677
531,76	96,488
531,97	96,385
532,17	95,717
532,38	94,662
532,59	95,993
532,79	95,926
533,00	95,121
533,20	94,972
533,41	94,170
533,61	94,034
533,82	92,917
534,03	92,249
534,23	92,448
534,44	92,340
534,64	91,451
534,85	91,281
535,05	90,665
535,26	90,193
535,46	90,403
535,67	89,623
535,88	88,879
536,08	87,441
536,29	86,976
536,49	84,357
536,70	82,839
536,90	81,553
537,11	79,972
537,31	78,117
537,52	77,122
537,72	76,115
537,93	74,710
538,13	74,634
538,34	74,245
538,55	75,072
538,75	74,352
538,96	74,373
539,16	73,442
539,37	72,687
539,57	72,060
539,78	69,333
539,98	66,001
540,19	61,570
540,39	57,490
540,60	52,224
540,80	46,200
541,01	39,854
541,21	33,800
541,42	27,576
541,62	21,309
541,83	16,131
542,03	11,739
542,24	7,890
542,44	5,455
542,65	3,752
542,85	2,955
543,06	1,954
543,26	1,523
543,47	1,313
543,67	1,222
543,88	1,307
544,08	0,839
544,29	0,964
544,49	0,670
544,70	0,814
544,90	0,777
545,11	0,659
545,31	0,940
545,52	0,624
545,72	0,968
545,93	0,480
546,13	0,804
546,34	0,678
546,54	0,889
546,75	0,784
546,95	0,649
547,15	0,620
547,36	0,715
547,56	0,806
547,77	0,821
547,97	0,777
548,18	0,681
548,38	0,451
548,59	0,786
548,79	0,588
549,00	0,619
549,20	0,784
549,41	0,577
549,61	0,609
549,81	0,577
550,02	0,822
550,22	0,696
550,43	0,646
550,63	0,744
550,84	0,512
551,04	0,719
551,25	0,704
551,45	0,483
551,65	0,616
551,86	0,583
552,06	0,650
552,27	0,490
552,47	0,721
552,68	0,745
552,88	0,501
553,08	0,568
553,29	0,701
553,49	0,635
553,70	0,595
553,90	0,526
554,11	0,535
554,31	0,707
554,51	0,601
554,72	0,492
554,92	0,714
555,13	0,594
555,33	0,731
555,53	0,564
555,74	0,636
555,94	0,655
556,15	0,549
556,35	0,618
556,56	0,784
556,76	0,721
556,96	0,703
557,17	0,585
557,37	0,723
557,58	0,690
557,78	0,623
557,98	0,563
558,19	0,580
558,39	0,724
558,59	0,509
558,80	0,871
559,00	0,566
559,21	0,653
559,41	0,484
559,61	0,634
559,82	0,629
560,02	0,723
560,23	0,705
560,43	0,570
560,63	0,704
560,84	0,716
561,04	0,480
561,24	0,776
561,45	0,545
561,65	0,474
561,85	0,750
562,06	0,631
562,26	0,500
562,47	0,719
562,67	0,640
562,87	0,624
563,08	0,494
563,28	0,597
563,48	0,722
563,69	0,694
563,89	0,704
564,09	0,646
564,30	0,744
564,50	0,664
564,70	0,785
564,91	0,716
565,11	0,483
565,31	0,729
565,52	0,614
565,72	0,769
565,92	0,833
566,13	0,601
566,33	0,595
566,53	0,675
566,74	0,746
566,94	0,648
567,14	0,664
567,35	0,473
567,55	0,677
567,75	0,769
567,96	0,708
568,16	0,952
568,36	0,799
568,57	0,888
568,77	0,833
568,97	0,844
569,18	0,931
569,38	1,009
569,58	0,872
569,79	1,036
569,99	1,147
570,19	1,147
570,39	1,170
570,60	0,998
570,80	1,125
571,00	1,579
571,21	1,774
571,41	2,275
571,61	3,011
571,82	4,164
572,02	5,738
572,22	7,852
572,42	10,870
572,63	14,861
572,83	19,694
573,03	25,078
573,24	32,158
573,44	39,217
573,64	46,234
573,84	54,249
574,05	61,307
574,25	66,799
574,45	70,934
574,66	74,021
574,86	77,059
575,06	79,063
575,26	79,395
575,47	80,569
575,67	82,411
575,87	83,189
576,07	83,129
576,28	83,375
576,48	83,906
576,68	84,153
576,88	84,614
577,09	85,273
577,29	84,921
577,49	86,728
577,69	87,078
577,90	87,184
578,10	87,231
578,30	87,123
578,50	87,778
578,71	87,296
578,91	88,806
579,11	88,987
579,31	90,087
579,52	91,205
579,72	91,080
579,92	91,174
580,12	92,432
580,33	94,482
580,53	93,852
580,73	95,024
580,93	95,389
581,13	96,008
581,34	95,889
581,54	95,589
581,74	96,388
581,94	95,784
582,15	95,615
582,35	93,654
582,55	93,033
582,75	93,555
582,95	93,659
583,16	92,686
583,36	92,613
583,56	93,649
583,76	94,157
583,96	93,060
584,17	95,566
584,37	95,257
584,57	95,067
584,77	95,913
584,97	96,153
585,18	96,272
585,38	96,608
585,58	96,781
585,78	96,773
585,98	97,259
586,19	96,617
586,39	96,514
586,59	97,399
586,79	97,798
586,99	97,697
587,20	97,168
587,40	97,229
587,60	97,189
587,80	97,194
588,00	97,461
588,20	96,053
588,41	97,594
588,61	97,339
588,81	97,019
589,01	97,966
589,21	96,507
589,41	96,817
589,62	96,638
589,82	97,852
590,02	96,844
590,22	97,147
590,42	97,684
590,62	98,279
590,83	96,327
591,03	96,694
591,23	96,813
591,43	96,807
591,63	95,790
591,83	96,608
592,03	95,107
592,24	95,923
592,44	95,911
592,64	95,669
592,84	97,660
593,04	96,237
593,24	96,487
593,44	97,296
593,65	96,748
593,85	97,315
594,05	96,948
594,25	96,457
594,45	97,395
594,65	96,857
594,85	97,565
595,06	97,608
595,26	96,458
595,46	96,900
595,66	96,494
595,86	96,928
596,06	96,268
596,26	96,645
596,46	97,022
596,66	97,283
596,87	96,751
597,07	97,210
597,27	97,394
597,47	97,770
597,67	97,039
597,87	96,573
598,07	96,076
598,27	97,242
598,47	96,756
598,67	97,329
598,88	97,495
599,08	96,653
599,28	97,425
599,48	96,855
599,68	96,567
599,88	96,776
600,08	96,733
600,28	96,316
600,48	96,807
600,68	96,165
600,88	96,874
601,09	95,667
601,29	94,189
601,49	95,905
601,69	94,519
601,89	95,453
602,09	95,076
602,29	93,970
602,49	94,341
602,69	93,771
602,89	94,303
603,09	94,168
603,29	93,818
603,49	93,472
603,69	93,802
603,90	92,974
604,10	92,776
604,30	93,466
604,50	92,875
604,70	92,711
604,90	93,192
605,10	93,135
605,30	93,866
605,50	93,441
605,70	94,108
605,90	93,382
606,10	91,713
606,30	93,031
606,50	92,015
606,70	92,177
606,90	90,230
607,10	89,489
607,30	88,575
607,50	86,561
607,70	86,217
607,90	85,215
608,10	83,571
608,30	82,128
608,50	82,848
608,70	82,645
608,90	83,404
609,11	83,036
609,31	82,457
609,51	84,995
609,71	84,519
609,91	85,650
610,11	85,737
610,31	86,488
610,51	85,540
610,71	86,048
610,91	84,328
611,11	83,849
611,31	82,370
611,51	79,780
611,71	76,411
611,91	73,306
612,11	69,705
612,31	65,472
612,51	59,839
612,71	55,937
612,91	50,883
613,11	46,102
613,31	41,367
613,51	36,230
613,71	31,141
613,91	26,391
614,11	22,408
614,31	17,913
614,50	14,064
614,70	10,453
614,90	7,837
615,10	5,464
615,30	4,039
615,50	3,125
615,70	2,143
615,90	1,760
616,10	1,298
616,30	1,220
616,50	1,008
616,70	0,994
616,90	0,723
617,10	1,000
617,30	0,677
617,50	0,753
617,70	0,681
617,90	0,762
618,10	0,740
618,30	0,587
618,50	0,693
618,70	0,721
618,90	0,584
619,10	0,511
619,30	0,704
619,49	0,566
619,69	0,611
619,89	0,623
620,09	0,662
620,29	0,553
620,49	0,714
620,69	0,627
620,89	0,528
621,09	0,582
621,29	0,760
621,49	0,493
621,69	0,509
621,89	0,474
622,09	0,523
622,29	0,578
622,48	0,575
622,68	0,328
622,88	0,445
623,08	0,540
623,28	0,500
623,48	0,443
623,68	0,402
623,88	0,465
624,08	0,474
624,28	0,402
624,48	0,547
624,67	0,652
624,87	0,430
625,07	0,399
625,27	0,518
625,47	0,529
625,67	0,551
625,87	0,453
626,07	0,437
626,27	0,542
626,47	0,524
626,66	0,476
626,86	0,531
627,06	0,460
627,26	0,457
627,46	0,287
627,66	0,530
627,86	0,376
628,06	0,516
628,25	0,525
628,45	0,390
628,65	0,350
628,85	0,431
629,05	0,594
629,25	0,444
629,45	0,553
629,65	0,435
629,84	0,492
630,04	0,336
630,24	0,421
630,44	0,408
630,64	0,530
630,84	0,629
631,04	0,359
631,23	0,440
631,43	0,397
631,63	0,487
631,83	0,328
632,03	0,477
632,23	0,382
632,42	0,555
632,62	0,553
632,82	0,428
633,02	0,401
633,22	0,432
633,42	0,504
633,62	0,406
633,81	0,649
634,01	0,417
634,21	0,586
634,41	0,552
634,61	0,526
634,80	0,556
635,00	0,393
635,20	0,628
635,40	0,610
635,60	0,588
635,80	0,440
635,99	0,616
636,19	0,440
636,39	0,805
636,59	0,585
636,79	0,620
636,98	0,692
637,18	0,646
637,38	0,710
637,58	0,587
637,78	0,670
637,97	0,560
638,17	0,634
638,37	0,667
638,57	0,667
638,77	0,604
638,96	0,511
639,16	0,888
639,36	0,360
639,56	0,565
639,76	0,759
639,95	0,786
640,15	0,565
640,35	0,643
640,55	0,552
640,75	1,048
640,94	0,724
641,14	0,590
641,34	0,822
641,54	0,684
641,73	0,451
641,93	0,704
642,13	0,623
642,33	0,824
642,53	0,689
642,72	0,622
642,92	0,819
643,12	0,614
643,32	0,802
643,51	0,505
643,71	0,585
643,91	0,692
644,11	1,073
644,30	0,559
644,50	0,481
644,70	0,703
644,90	0,593
645,09	0,981
645,29	0,346
645,49	1,048
645,69	1,092
645,88	1,007
646,08	0,746
646,28	0,814
646,48	1,075
646,67	0,939
646,87	0,974
647,07	1,038
647,26	0,845
647,46	1,012
647,66	1,003
647,86	1,009
648,05	1,219
648,25	1,195
648,45	1,298
648,65	1,275
648,84	1,350
649,04	1,323
649,24	1,624
649,43	1,451
649,63	2,079
649,83	2,165
650,03	2,470
650,22	3,430
650,42	3,679
650,62	4,870
650,81	6,099
651,01	8,012
651,21	9,402
651,40	12,935
651,60	16,000
651,80	20,483
652,00	24,125
652,19	28,690
652,39	34,389
652,59	37,707
652,78	43,690
652,98	48,098
653,18	52,764
653,37	57,998
653,57	60,622
653,77	64,242
653,96	67,505
654,16	68,788
654,36	72,842
654,55	74,262
654,75	74,743
654,95	75,995
655,14	78,185
655,34	79,362
655,54	79,080
655,73	80,289
655,93	82,459
656,13	82,711
656,32	82,823
656,52	85,961
656,72	84,669
656,91	85,693
657,11	86,302
657,31	87,383
657,50	88,028
657,70	87,688
657,90	88,369
658,09	88,561
658,29	91,065
658,49	89,865
658,68	90,571
658,88	92,463
659,07	90,957
659,27	91,919
659,47	93,434
659,66	93,524
659,86	94,289
660,06	96,205
660,25	95,378
660,45	97,016
660,64	95,413
660,84	94,496
661,04	96,581
661,23	96,039
661,43	95,392
661,63	96,760
661,82	95,823
662,02	97,246
662,21	96,568
662,41	96,698
662,61	96,812
662,80	97,391
663,00	96,654
663,19	95,954
663,39	99,965
663,59	97,091
663,78	97,348
663,98	96,364
664,17	99,211
664,37	98,408
664,57	98,506
664,76	98,401
664,96	97,168
665,15	97,809
665,35	97,697
665,55	97,922
665,74	97,710
665,94	97,473
666,13	95,600
666,33	98,036
666,53	97,060
666,72	96,125
666,92	95,318
667,11	98,408
667,31	96,478
667,50	96,395
667,70	96,238
667,90	96,446
668,09	97,497
668,29	96,611
668,48	97,302
668,68	95,802
668,87	97,300
669,07	98,106
669,26	95,807
669,46	96,357
669,66	96,552
669,85	97,016
670,05	96,709
670,24	94,970
670,44	96,617
670,63	95,334
670,83	96,083
671,02	95,993
671,22	95,959
671,42	96,053
671,61	94,949
671,81	96,177
672,00	94,775
672,20	97,858
672,39	95,556
672,59	95,120
672,78	95,428
672,98	95,840
673,17	95,276
673,37	96,395
673,56	96,160
673,76	94,403
673,95	96,079
674,15	95,455
674,34	95,048
674,54	95,526
674,73	95,061
674,93	94,936
675,13	94,905
675,32	93,775
675,52	93,620
675,71	92,165
675,91	93,156
676,10	90,812
676,30	91,256
676,49	91,105
676,69	90,410
676,88	91,860
677,08	90,170
677,27	91,337
677,47	90,728
677,66	91,445
677,86	91,303
678,05	89,789
678,24	90,399
678,44	91,767
678,63	90,536
678,83	91,459
679,02	92,352
679,22	90,961
679,41	91,132
679,61	90,690
679,80	90,605
680,00	88,582
680,19	88,722
680,39	87,059
680,58	86,958
680,78	83,192
680,97	82,186
681,17	81,540
681,36	80,966
681,56	77,948
681,75	76,324
681,94	75,797
682,14	73,141
682,33	71,376
682,53	70,553
682,72	68,079
682,92	66,506
683,11	65,700
683,31	63,402
683,50	62,561
683,69	61,755
683,89	60,321
684,08	58,655
684,28	57,703
684,47	56,914
684,67	55,371
684,86	53,687
685,06	53,435
685,25	52,226
685,44	51,478
685,64	48,872
685,83	47,036
686,03	45,696
686,22	43,244
686,42	41,065
686,61	38,370
686,80	35,524
687,00	32,848
687,19	29,602
687,39	27,175
687,58	25,507
687,77	24,069
687,97	22,649
688,16	21,931
688,36	20,222
688,55	19,700
688,74	18,762
688,94	17,717
689,13	16,270
689,33	14,480
689,52	12,859
689,71	11,322
689,91	9,573
690,10	7,940
690,30	6,363
690,49	4,815
690,68	3,860
690,88	3,055
691,07	2,170
691,27	1,821
691,46	1,413
691,65	1,242
691,85	1,019
692,04	0,690
692,23	0,752
692,43	0,465
692,62	0,873
692,82	0,647
693,01	0,523
693,20	0,619
693,40	0,307
693,59	0,430
693,78	0,485
693,98	0,309
694,17	0,467
694,36	0,579
694,56	0,583
694,75	0,243
694,94	0,599
695,14	0,573
695,33	0,371
695,53	0,494
695,72	0,360
695,91	0,489
696,11	0,466
696,30	0,154
696,49	0,492
696,69	0,703
696,88	0,527
697,07	0,377
697,27	0,439
697,46	0,275
697,65	0,334
697,85	0,391
698,04	0,678
698,23	0,641
698,43	0,490
698,62	0,407
698,81	0,460
699,01	0,951
699,20	0,313
699,39	0,801
699,58	0,591
699,78	0,788
699,97	0,416
700,16	0,906
700,36	0,557
700,55	0,787
700,74	0,579
700,94	0,884
701,13	0,661
701,32	1,138
701,52	0,807
701,71	0,820
701,90	1,234
702,09	1,024
702,29	1,234
702,48	0,873
702,67	0,816
702,87	1,279
703,06	1,014
703,25	1,114
703,44	1,057
703,64	1,481
703,83	1,179
704,02	1,288
704,22	1,021
704,41	0,517
704,60	1,733
704,79	0,579
704,99	1,302
705,18	1,342
705,37	1,972
705,56	2,208
705,76	2,232
705,95	0,806
706,14	0,583
706,33	2,263
706,53	2,141
706,72	1,249
706,91	2,266
707,11	2,373
707,30	2,283
707,49	2,984
707,68	1,888
707,88	2,635
708,07	0,969
708,26	1,277
708,45	2,283
708,64	2,530
708,84	2,162
709,03	2,103
709,22	1,594
709,41	3,994
709,61	3,577
709,80	2,385
709,99	1,754
710,18	3,090
710,38	1,859
710,57	1,819
710,76	1,570
710,95	1,356
711,14	3,812
711,34	2,724
711,53	3,001
711,72	2,585
711,91	1,166
712,11	4,292
712,30	3,683
712,49	3,225
712,68	4,843
712,87	3,770
713,07	4,567
713,26	4,807
713,45	3,978
713,64	2,138
713,83	2,459
714,03	5,044
714,22	4,051
714,41	2,486
714,60	3,846
714,79	2,655
714,99	3,100
715,18	2,925
715,37	4,506
715,56	5,892
715,75	4,393
715,94	3,758
716,14	4,840
716,33	4,418
716,52	3,888
716,71	4,022
716,90	6,402
717,10	5,287
717,29	3,486
717,48	5,504
717,67	5,735
717,86	4,141
718,05	1,319
718,24	5,033
718,44	4,469
718,63	4,294
718,82	7,242
719,01	6,925
719,20	4,662
719,39	4,416
719,59	2,363
719,78	2,571
719,97	4,533
720,16	5,072
720,35	3,652
720,54	6,488
720,73	4,575
720,93	5,090
721,12	3,690
721,31	3,807
721,50	6,602
721,69	6,300
721,88	8,296
722,07	3,823
722,27	5,041
722,46	5,246
722,65	1,226
722,84	5,651
723,03	3,253
723,22	5,792
723,41	5,223
723,60	7,519
723,79	7,182
723,99	5,670
724,18	7,878
724,37	6,003
724,56	7,672
724,75	7,308
724,94	10,549
725,13	13,927
725,32	3,137
725,51	9,490
725,71	3,504
725,90	5,164
726,09	10,332
726,28	9,133
726,47	4,688
726,66	5,581
726,85	4,508
727,04	5,815
727,23	8,648
727,42	9,854
727,61	1,693
727,81	7,716
728,00	8,629
728,19	2,632
728,38	5,724
728,57	6,184
728,76	11,065
728,95	13,170
729,14	5,889
729,33	11,636
729,52	11,136
729,71	6,315
729,90	7,233
730,09	8,061
730,28	13,279
730,48	7,541
730,67	11,125
730,86	9,577
731,05	10,981
731,24	5,018
731,43	4,780
731,62	10,777
731,81	9,276
732,00	8,640
732,19	6,641
732,38	2,880
732,57	5,858
732,76	9,524
732,95	8,400
733,14	7,152
733,33	7,830
733,52	13,317
733,71	4,853
733,90	15,039
734,09	5,993
734,28	13,793
734,47	11,316
734,66	11,805
734,85	3,121
735,04	8,174
735,23	10,582
735,42	13,401
735,61	18,000
735,81	10,483
736,00	14,608
736,19	8,284
736,38	9,185
736,57	13,370
736,76	2,636
736,95	12,727
737,14	8,663
737,33	12,841
737,52	10,558
737,71	6,571
737,90	17,398
738,09	10,736
738,28	8,134
738,47	10,621
738,66	10,469
738,85	3,436
739,04	20,713
739,22	7,264
739,41	7,742
739,60	10,702
739,79	5,137
739,98	10,708
740,17	12,585
740,36	19,821
740,55	15,344
740,74	12,348
740,93	13,821
741,12	12,500
741,31	14,154
741,50	6,403
741,69	8,333
741,88	11,200
742,07	12,274
742,26	4,120
742,45	22,134
742,64	17,806
742,83	9,574
743,02	8,468
743,21	16,700
743,40	14,779
743,59	13,115
743,78	17,686
743,97	19,361
744,16	13,525
744,34	11,220
744,53	10,246
744,72	17,672
744,91	5,263
745,10	16,702
745,29	10,638
745,48	17,025
745,67	18,126
745,86	5,164
746,05	12,785
746,24	8,715
746,43	17,967
746,62	2,765
746,81	14,155
747,00	17,537
747,18	27,033
747,37	14,712
747,56	5,169
747,75	19,475
747,94	24,508
748,13	16,210
748,32	14,530
748,51	23,702
748,70	16,307
748,89	22,947
749,08	10,000
749,26	17,422
749,45	21,647
749,64	16,873
749,83	21,120
750,02	10,221
750,21	22,287
750,40	9,375
750,59	22,642
750,78	27,811
750,96	17,318
751,15	14,481
751,34	23,037
751,53	26,847
751,72	11,051
751,91	14,795
752,10	4,938
752,29	22,034
752,47	15,730
752,66	20,845
752,85	17,028
753,04	11,041
753,23	16,887
753,42	16,413
753,61	16,340
753,80	21,680
753,98	15,439
754,17	22,699
754,36	26,836
754,55	12,853
754,74	31,503
754,93	9,510
755,12	13,600
755,30	21,053
755,49	28,746
755,68	27,954
755,87	7,207
756,06	20,950
756,25	30,794
756,43	11,724
756,62	28,190
756,81	16,172
757,00	23,188
757,19	18,493
757,38	22,082
757,56	29,677
757,75	20,915
757,94	23,975
758,13	2,922
758,32	27,273
758,51	25,735
758,69	12,400
758,88	35,736
759,07	20,430
759,26	13,953
759,45	27,074
759,63	40,892
759,82	27,946
760,01	7,692
760,20	32,296
760,39	35,075
760,57	23,140
760,76	5,405
760,95	18,981
761,14	25,714
761,33	30,625
761,51	29,391
761,70	38,966
761,89	20,902
762,08	19,535
762,27	20,879
762,45	33,074
762,64	9,158
762,83	36,726
763,02	28,372
763,21	19,828
763,39	32,245
763,58	27,925
763,77	35,135
763,96	34,538
764,14	30,000
764,33	37,363
764,52	33,047
764,71	26,457
764,89	23,039
765,08	26,724
765,27	28,625
765,46	25,000
765,65	35,371
765,83	13,420
766,02	27,660
766,21	38,674
766,40	24,762
766,58	45,935
766,77	3,483
766,96	40,000
767,15	42,995
767,33	7,602
767,52	51,220
767,71	43,478
767,90	30,337
768,08	28,016
768,27	33,000
768,46	42,187
768,64	51,295
768,83	36,458
769,02	43,000
769,21	31,441
769,39	25,000
769,58	54,335
769,77	49,425
769,96	34,031
770,14	8,163
770,33	42,523
770,52	23,280
770,70	37,333
770,89	56,376
771,08	38,983
771,27	45,361
771,45	36,404
771,64	59,375
771,83	39,252
772,01	22,892
772,20	51,256
772,39	36,667
772,57	41,085
772,76	17,778
772,95	42,553
773,14	46,237
773,32	74,194
773,51	49,254
773,70	65,625
773,88	50,820
774,07	47,644
774,26	27,660
774,44	23,780
774,63	56,853
774,82	23,780
775,00	30,667
775,19	34,400
775,38	65,318
775,56	41,667
775,75	34,337
775,94	41,139
776,12	25,414
776,31	45,294
776,50	52,273
776,68	54,737
776,87	36,932
777,06	68,276
777,24	42,778
777,43	39,103
777,62	86,765
777,80	54,730
777,99	55,429
778,18	36,634
778,36	67,200
778,55	51,240
778,74	75,694
778,92	55,621
779,11	40,833
779,29	30,189
779,48	44,218
779,67	24,031
779,85	44,715
780,04	31,892
780,23	56,115
780,41	55,469
780,60	31,579
780,79	64,972
780,97	39,474
781,16	55,758
781,34	62,887
781,53	68,376
781,72	58,394
781,90	52,344
782,09	49,677
782,28	70,803
782,46	47,407
782,65	51,429
782,83	104,494
783,02	25,000
783,21	78,000
783,39	80,000
783,58	62,130
783,76	40,782
783,95	53,333
784,14	60,927
784,32	33,557
784,51	54,310
784,69	57,627
784,88	71,171
785,06	0,840
785,25	40,127
785,44	61,871
785,62	90,000
785,81	84,507
785,99	71,223
786,18	72,973
786,37	51,111
786,55	64,220
786,74	34,868
786,92	59,375
787,11	70,000
787,29	60,448
787,48	58,000
787,67	51,807
787,85	85,345
788,04	64,851
788,22	68,033
788,41	62,353
788,59	95,413
788,78	38,788
788,96	81,132
789,15	67,368
789,34	46,364
789,52	30,973
789,71	67,442
789,89	70,213
790,08	78,767
790,26	24,286
790,45	52,273
790,63	49,074
790,82	80,606
791,00	54,167
791,19	83,871
791,38	91,667
791,56	98,246
791,75	87,156
791,93	29,885
792,12	59,763
792,30	72,000
792,49	69,748
792,67	83,582
792,86	52,713
793,04	53,271
793,23	16,667
793,41	82,278
793,60	59,596
793,78	95,614
793,97	66,667
794,15	65,455
794,34	86,813
794,52	103,896
794,71	88,889
794,89	35,556
795,08	73,786
795,26	68,333
795,45	83,582
795,63	76,515
795,82	61,682
796,00	65,138
796,19	65,833
796,37	105,109
796,56	78,495
796,74	66,372
796,93	50,562
797,11	87,342
797,30	65,833
797,48	75,862
797,67	103,333
797,85	57,143
798,04	59,375
798,22	42,063
798,41	68,627
798,59	84,211
798,77	83,077
798,96	56,989
799,14	45,690
799,33	88,550
799,51	48,462
799,70	69,128
799,88	51,515
800,07	33,553
800,25	29,655
800,44	22,222
800,62	54,118
800,80	84,058
800,99	69,841
801,17	36,207
801,36	75,862
801,54	78,125
801,73	73,737
801,91	70,492
802,10	52,381
802,28	73,832
802,46	70,370
802,65	20,690
802,83	100,000
803,02	97,895
803,20	78,125
803,39	72,414
803,57	113,253
803,75	60,135
803,94	75,630
804,12	61,667
804,31	38,938
804,49	69,231
804,67	58,400
804,86	58,036
805,04	80,405
805,23	78,621
805,41	75,410
805,59	49,180
805,78	69,697
805,96	75,000
806,15	60,156
806,33	57,983
806,51	59,292
806,70	156,667
806,88	22,764
807,07	30,159
807,25	53,459
807,43	61,589
807,62	47,154
807,80	95,699
807,99	67,460
808,17	68,794
808,35	100,000
808,54	72,043
808,72	83,200
808,90	26,316
809,09	44,167
809,27	68,468
809,46	67,857
809,64	49,020
809,82	10,345
810,01	75,758
810,19	90,000
810,37	56,154
810,56	81,707
810,74	47,020
810,92	65,909
811,11	117,647
811,29	70,213
811,48	122,222
811,66	94,574
811,84	70,642
812,03	32,727
812,21	52,564
812,39	74,576
812,58	32,353
812,76	40,187
812,94	54,667
813,13	71,429
813,31	90,000
813,49	75,000
813,68	53,913
813,86	52,041
814,04	97,087
814,23	90,909
814,41	44,118
814,59	55,367
814,78	77,206
814,96	38,739
815,14	64,444
815,33	84,058
815,51	69,630
815,69	14,815
815,87	60,870
816,06	63,125
816,24	59,603
816,42	53,846
816,61	90,678
816,79	77,108
816,97	63,063
817,16	47,097
817,34	73,103
817,52	77,931
817,70	94,444
817,89	62,810
818,07	52,586
818,25	54,955
818,44	51,744
818,62	66,379
818,80	60,839
818,98	56,190
819,17	80,000
819,35	50,000
819,53	81,188
819,72	44,767
819,90	62,874
820,08	40,909
820,26	91,228
820,45	53,012
820,63	48,958
820,81	52,349
820,99	57,143
821,18	47,407
821,36	48,095
821,54	72,093
821,73	61,081
821,91	44,681
822,09	61,765
822,27	28,934
822,46	20,625
822,64	55,629
822,82	55,122
823,00	5,405
823,19	13,636
823,37	54,286
823,55	35,882
823,73	49,333
823,91	44,199
824,10	72,067
824,28	54,074
824,46	36,628
824,64	50,490
824,83	31,707
825,01	36,957
825,19	38,857
825,37	56,771
825,56	46,250
825,74	42,857
825,92	47,753
826,10	57,143
826,28	61,745
826,47	28,455
826,65	57,432
826,83	29,570
827,01	23,485
827,19	38,608
827,38	54,922
827,56	58,173
827,74	47,154
827,92	42,439
828,10	34,239
828,29	47,143
828,47	37,719
828,65	48,108
828,83	56,566
829,01	33,333
829,20	44,304
829,38	33,610
829,56	42,510
829,74	61,364
829,92	42,784
830,10	26,126
830,29	36,757
830,47	43,750
830,65	42,857
830,83	45,143
831,01	44,167
831,20	50,990
831,38	38,537
831,56	50,202
831,74	46,857
831,92	34,659
832,10	55,909
832,29	38,863
832,47	32,301
832,65	30,213
832,83	35,814
833,01	25,692
833,19	38,009
833,37	42,222
833,56	42,723
833,74	39,676
833,92	30,531
834,10	29,949
834,28	38,462
834,46	37,024
834,64	36,719
834,83	23,891
835,01	42,023
835,19	23,223
835,37	34,263
835,55	35,379
835,73	37,868
835,91	28,958
836,09	28,216
836,28	38,931
836,46	20,000
836,64	35,246
836,82	27,239
837,00	39,456
837,18	31,621
837,36	23,529
837,54	23,106
837,72	27,490
837,91	27,711
838,09	33,200
838,27	38,095
838,45	39,159
838,63	21,356
838,81	30,263
838,99	34,843
839,17	33,981
839,35	11,111
839,53	29,530
839,72	0,847
839,90	20,973
840,08	25,962
840,26	16,404
840,44	6,790
840,62	18,855
840,80	25,617
840,98	25,076
841,16	9,964
841,34	17,681
841,52	24,601
841,70	22,559
841,89	31,290
842,07	26,216
842,25	15,584
842,43	17,742
842,61	33,244
842,79	24,085
842,97	24,085
843,15	31,805
843,33	30,879
843,51	15,274
843,69	17,778
843,87	24,259
844,05	18,329
844,23	13,784
844,41	26,382
844,59	8,523
844,77	22,478
844,95	21,845
845,13	12,842
845,31	23,743
845,50	26,546
845,68	14,508
845,86	17,925
846,04	28,642
846,22	15,752
846,40	3,937
846,58	5,898
846,76	24,190
846,94	26,683
847,12	24,645
847,30	21,198
847,48	20,624
847,66	12,439
847,84	6,345
848,02	22,037
848,20	29,360
848,38	18,487
848,56	23,441
848,74	21,488
848,92	7,933
849,10	21,652
849,28	15,033
849,46	10,514
849,64	12,381
849,82	18,269
850,00	17,454
850,18	16,628
850,36	16,886
850,54	16,816
850,72	23,077
850,90	17,275
851,08	6,996
851,26	23,482
851,44	17,671
851,62	10,375
851,80	15,308
851,98	27,984
852,16	28,601
852,34	22,011
852,52	11,332
852,70	7,430
852,87	13,905
853,05	16,032
853,23	16,863
853,41	3,272
853,59	17,547
853,77	17,460
853,95	9,958
854,13	14,757
854,31	16,928
854,49	4,609
854,67	11,466
854,85	18,087
855,03	15,326
855,21	15,398
855,39	19,128
855,57	27,174
855,75	16,189
855,93	16,078
856,11	19,777
856,28	12,326
856,46	17,320
856,64	14,887
856,82	10,122
857,00	13,322
857,18	10,955
857,36	11,765
857,54	11,993
857,72	13,356
857,90	9,555
858,08	11,883
858,26	7,645
858,44	10,248
858,61	17,851
858,79	11,783
858,97	10,602
859,15	9,589
859,33	11,963
859,51	8,466
859,69	12,798
859,87	17,277
860,05	17,573
860,23	8,485
860,40	10,753
860,58	9,914
860,76	13,277
860,94	4,733
861,12	10,198
861,30	16,005
861,48	9,065
861,66	12,927
861,84	14,665
862,01	16,310
862,19	13,821
862,37	10,350
862,55	11,142
862,73	11,549
862,91	9,302
863,09	13,524
863,27	6,407
863,44	11,391
863,62	9,397
863,80	4,079
863,98	10,600
864,16	10,111
864,34	9,870
864,52	9,453
864,69	12,651
864,87	12,634
865,05	6,950
865,23	5,556
865,41	7,747
865,59	10,260
865,76	10,594
865,94	11,663
866,12	12,005
866,30	5,767
866,48	10,224
866,66	12,581
866,83	9,081
867,01	11,257
867,19	11,310
867,37	10,084
867,55	8,562
867,73	8,087
867,90	10,145
868,08	6,536
868,26	6,613
868,44	10,300
868,62	7,524
868,79	4,870
868,97	11,301
869,15	8,811
869,33	3,087
869,51	7,431
869,69	7,299
869,86	6,974
870,04	10,476
870,22	2,289
870,40	8,889
870,57	9,700
870,75	7,854
870,93	10,302
871,11	3,866
871,29	8,232
871,46	7,049
871,64	5,836
871,82	8,098
872,00	10,485
872,18	13,083
872,35	9,358
872,53	10,019
872,71	3,850
872,89	6,951
873,06	8,672
873,24	9,651
873,42	3,853
873,60	2,847
873,77	4,537
873,95	7,597
874,13	5,993
874,31	7,754
874,49	10,724
874,66	2,663
874,84	3,375
875,02	9,113
875,20	7,025
875,37	2,555
875,55	5,080
875,73	5,004
875,91	5,859
876,08	5,653
876,26	6,495
876,44	2,077
876,61	6,412
876,79	4,984
876,97	6,913
877,15	9,237
877,32	9,291
877,50	5,959
877,68	4,505
877,86	5,919
878,03	5,602
878,21	4,130
878,39	6,741
878,56	4,867
878,74	5,785
878,92	4,674
879,10	4,660
879,27	4,438
879,45	9,042
879,63	4,819
879,80	6,322
879,98	5,409
880,16	5,031
880,34	2,836
880,51	7,110
880,69	4,765
880,87	3,436
881,04	0,000
881,22	5,402
881,40	1,185
881,57	4,416
881,75	2,168
881,93	3,803
882,10	4,484
882,28	3,049
882,46	4,529
882,63	5,339
882,81	7,356
882,99	5,047
883,16	5,166
883,34	4,438
883,52	3,395
883,69	2,955
883,87	6,938
884,05	-0,414
884,22	4,418
884,40	4,922
884,58	3,520
884,75	1,990
884,93	7,644
885,11	4,135
885,28	4,160
885,46	3,458
885,64	4,136
885,81	3,163
885,99	2,704
886,17	2,735
886,34	4,615
886,52	1,813
886,70	4,755
886,87	3,418
887,05	3,963
887,22	2,665
887,40	4,308
887,58	4,826
887,75	4,786
887,93	3,402
888,11	0,297
888,28	2,987
888,46	2,768
888,63	4,735
888,81	2,807
888,99	-0,047
889,16	2,710
889,34	4,213
889,51	4,145
889,69	1,834
889,87	4,276
890,04	1,435
890,22	2,959
890,39	-0,044
890,57	4,378
890,75	4,617
890,92	4,681
891,10	5,337
891,27	1,733
891,45	3,542
891,63	3,903
891,80	2,264
891,98	4,193
892,15	2,750
892,33	2,642
892,51	2,246
892,68	2,473
892,86	2,105
893,03	2,242
893,21	2,784
893,38	3,901
893,56	3,029
893,74	2,549
893,91	2,877
894,09	3,970
894,26	4,075
894,44	2,458
894,61	4,490
894,79	3,140
894,96	2,957
895,14	2,966
895,32	3,546
895,49	2,752
895,67	1,596
895,84	3,344
896,02	2,087
896,19	1,815
896,37	3,517
896,54	3,461
896,72	1,584
896,89	3,025
897,07	2,447
897,25	3,529
897,42	2,470
897,60	3,614
897,77	4,864
897,95	3,370
898,12	1,946
898,30	2,882
898,47	1,833
898,65	2,779
898,82	2,334
899,00	2,233
899,17	2,233
899,35	1,471
899,52	1,559
899,70	2,386
899,87	2,755
900,05	4,218
900,22	1,924
900,40	2,417
900,57	3,472
900,75	1,316
900,92	2,638
901,10	4,416
901,27	2,937
901,45	3,997
901,62	3,025
901,80	3,370
901,97	2,410
902,15	3,378
902,32	3,050
902,50	1,820
902,67	1,273
902,85	2,699
903,02	3,706
903,20	2,543
903,37	2,972
903,54	2,632
903,72	1,678
903,89	3,065
904,07	2,902
904,24	2,242
904,42	2,282
904,59	1,216
904,77	2,856
904,94	0,876
905,12	0,528
905,29	3,001
905,47	2,438
905,64	2,726
905,81	2,300
905,99	3,046
906,16	2,567
906,34	2,667
906,51	2,301
906,69	2,080
906,86	1,652
907,03	2,200
907,21	1,374
907,38	1,751
907,56	1,567
907,73	3,127
907,91	3,346
908,08	1,648
908,25	1,006
908,43	1,856
908,60	2,402
908,78	3,339
908,95	2,577
909,13	2,118
909,30	0,942
909,47	2,027
909,65	2,808
909,82	3,323
910,00	1,925
910,17	1,894
910,34	1,385
910,52	0,232
910,69	3,398
910,87	2,517
911,04	1,920
911,21	3,299
911,39	2,537
911,56	2,689
911,73	2,763
911,91	2,359
912,08	2,646
912,26	1,451
912,43	1,313
912,60	3,423
912,78	1,968
912,95	3,537
913,13	2,275
913,30	2,261
913,47	3,034
913,65	1,519
913,82	1,885
913,99	1,812
914,17	1,863
914,34	2,679
914,51	3,136
914,69	2,854
914,86	3,109
915,03	1,931
915,21	1,620
915,38	1,171
915,56	1,942
915,73	3,205
915,90	2,301
916,08	2,629
916,25	1,313
916,42	0,899
916,60	2,501
916,77	1,477
916,94	1,733
917,12	2,548
917,29	2,618
917,46	1,003
917,64	2,334
917,81	2,017
917,98	0,904
918,16	2,235
918,33	1,684
918,50	1,517
918,67	0,953
918,85	1,373
919,02	1,400
919,19	2,862
919,37	0,543
919,54	2,149
919,71	3,036
919,89	1,694
920,06	0,750
920,23	1,338
920,41	1,816
920,58	2,580
920,75	1,844
920,92	1,340
921,10	2,218
921,27	0,525
921,44	2,236
921,62	0,712
921,79	1,881
921,96	1,836
922,13	1,599
922,31	0,484
922,48	1,128
922,65	1,296
922,82	1,436
923,00	2,318
923,17	0,043
923,34	2,229
923,52	0,773
923,69	0,784
923,86	1,032
924,03	1,543
924,21	0,444
924,38	1,865
924,55	3,338
924,72	1,873
924,90	1,305
925,07	1,510
925,24	1,704
925,41	1,164
925,59	1,761
925,76	1,816
925,93	2,264
926,10	1,194
926,28	1,571
926,45	2,185
926,62	1,515
926,79	1,392
926,96	1,768
927,14	2,370
927,31	1,544
927,48	1,525
927,65	1,686
927,83	1,328
928,00	1,564
928,17	1,746
928,34	1,132
928,51	0,909
928,69	0,976
928,86	2,080
929,03	2,376
929,20	0,961
929,37	1,900
929,55	1,954
929,72	1,575
929,89	1,093
930,06	1,642
930,23	1,082
930,41	1,856
930,58	1,528
930,75	2,120
930,92	1,131
931,09	1,318
931,27	1,681
931,44	1,075
931,61	2,284
931,78	1,325
931,95	1,302
932,12	1,288
932,30	1,118
932,47	2,109
932,64	1,953
932,81	1,451
932,98	0,598
933,16	0,336
933,33	1,404
933,50	2,001
933,67	2,122
933,84	0,933
934,01	1,651
934,18	1,042
934,36	1,447
934,53	0,527
934,70	1,996
934,87	1,382
935,04	1,463
935,21	1,532
935,38	1,011
935,56	0,609
935,73	1,072
935,90	0,423
936,07	2,140
936,24	1,795
936,41	1,808
936,58	-0,092
936,76	1,824
936,93	0,847
937,10	1,584
937,27	0,953
937,44	1,022
937,61	1,165
937,78	1,545
937,95	1,249
938,13	0,916
938,30	0,733
938,47	1,060
938,64	2,114
938,81	0,926
938,98	1,916
939,15	1,414
939,32	1,539
939,49	1,250
939,66	1,374
939,84	1,295
940,01	1,746
940,18	1,295
940,35	0,881
940,52	0,827
940,69	1,357
940,86	0,484
941,03	1,299
941,20	1,863
941,37	1,774
941,54	0,119
941,71	0,871
941,89	1,138
942,06	0,675
942,23	0,920
942,40	1,435
942,57	1,023
942,74	1,368
942,91	0,434
943,08	2,107
943,25	0,809
943,42	0,946
943,59	0,683
943,76	2,846
943,93	1,323
944,10	0,508
944,27	1,815
944,44	1,914
944,61	1,035
944,79	1,969
944,96	2,648
945,13	1,525
945,30	1,005
945,47	1,479
945,64	1,292
945,81	2,395
945,98	2,675
946,15	2,260
946,32	1,473
946,49	1,705
946,66	1,182
946,83	1,613
947,00	1,010
947,17	1,222
947,34	2,238
947,51	0,823
947,68	2,657
947,85	1,584
948,02	1,878
948,19	3,316
948,36	2,553
948,53	2,282
948,70	3,527
948,87	2,768
949,04	0,825
949,21	1,793
949,38	2,906
949,55	2,332
949,72	2,245
949,89	2,594
950,06	1,932
950,23	2,235
950,40	2,254
950,57	0,237
950,74	3,351
950,91	1,238
951,08	2,257
951,25	4,152
951,42	3,338
951,59	1,435
951,76	2,642
951,93	2,784
952,10	3,654
952,27	2,631
952,44	2,067
952,61	2,455
952,77	1,406
952,94	2,884
953,11	6,123
953,28	3,537
953,45	2,822
953,62	2,795
953,79	2,726
953,96	4,420
954,13	2,587
954,30	4,036
954,47	1,928
954,64	2,448
954,81	3,596
954,98	3,404
955,15	4,919
955,32	2,561
955,49	2,010
955,65	4,891
955,82	4,296
955,99	6,417
956,16	4,928
956,33	4,254
956,50	4,619
956,67	6,303
956,84	3,481
957,01	3,432
957,18	2,452
957,35	4,270
957,52	3,440
957,68	8,083
957,85	2,383
958,02	4,134
958,19	3,568
958,36	9,486
958,53	5,438
958,70	7,330
958,87	8,611
959,04	9,854
959,21	5,455
959,37	6,926
959,54	9,923
959,71	8,663
959,88	7,464
960,05	6,843
960,22	3,314
960,39	12,133
960,56	6,835
960,72	10,916
960,89	12,801
961,06	8,917
961,23	4,949
961,40	8,081
961,57	11,840
961,74	5,380
961,90	12,031
962,07	9,893
962,24	11,057
962,41	5,360
962,58	15,835
962,75	9,204
962,92	20,935
963,08	16,364
963,25	11,532
963,42	4,831
963,59	16,322
963,76	18,427
963,93	9,840
964,10	14,775
964,26	16,667
964,43	18,605
964,60	22,539
964,77	22,892
964,94	22,443
965,10	14,583
965,27	19,321
965,44	21,039
965,61	23,140
965,78	13,419
965,95	23,952
966,11	24,768
966,28	15,985
966,45	21,807
966,62	29,231
966,79	26,531
966,95	34,925
967,12	29,968
967,29	25,347
967,46	34,470
967,63	15,472
967,79	40,541
967,96	19,048
968,13	22,000
968,30	24,194
968,47	31,271
968,63	48,198
968,80	24,771
968,97	30,288
969,14	34,302
969,31	32,778
969,47	20,000
969,64	39,899
969,81	31,088
969,98	50,000
970,14	42,945
970,31	55,975
970,48	7,500
970,65	50,888
970,81	43,836
970,98	80,292
971,15	64,286
971,32	64,062
971,48	52,381
971,65	37,692
971,82	41,176
971,99	103,448
972,15	38,028
972,32	100,901
972,49	58,042
972,66	112,727
972,82	63,953
972,99	78,862
973,16	100,000
973,33	72,321
973,49	66,316
973,66	68,817
973,83	87,379
974,00	73,256
974,16	94,118
974,33	97,368
974,50	27,368
974,67	131,579
974,83	79,762
975,00	74,737
975,17	79,121
975,33	117,978
975,50	82,090
975,67	108,163
975,84	128,358
976,00	73,034
976,17	132,787
976,34	50,000
976,50	73,034
976,67	82,524
976,84	1866,667
977,00	144,898
977,17	137,778
977,34	121,978
977,50	114,925
977,67	123,214
977,84	177,419
978,01	72,340
978,17	233,333
978,34	161,111
978,51	135,294
978,67	136,842
978,84	99,219
979,01	272,973
979,17	76,923
979,34	101,370
979,51	181,633
979,67	80,247
979,84	193,878
980,01	135,556
980,17	153,521
980,34	192,593
980,51	120,290
980,67	89,412
980,84	340,000
981,01	485,000
981,17	328,000
981,34	388,889
981,50	130,882
981,67	110,169
981,84	3750,000
982,00	360,000
982,17	73,810
982,34	95,556
982,50	386,667
982,67	158,333
982,84	1400,000
983,00	750,000
983,17	134,328
983,33	89,655
983,50	1000,000
983,67	-179,310
983,83	130,303
984,00	-1100,000
984,17	400,000
984,33	-5300,000
984,50	245,714
984,66	210,870
984,83	167,532
985,00	-287,500
985,16	251,724
985,33	464,706
985,49	377,778
985,66	317,647
985,83	108,696
985,99	248,718
986,16	-1525,000
986,32	571,429
986,49	5200,000
986,66	163,636
986,82	625,000
986,99	186,792
987,15	-200,000
987,32	-67,857
987,49	170,000
987,65	3000,000
987,82	283,333
987,98	187,755
988,15	370,000
988,31	730,000
988,48	-650,000
988,65	226,190
988,81	358,333
988,98	253,659
989,14	192,857
989,31	333,333
989,47	214,706
989,64	-676,923
989,80	575,000
989,97	281,081
990,14	-139,130
990,30	-500,000
990,47	228,571
990,63	280,556
990,80	150,000
990,96	-460,000
991,13	271,875
991,29	258,621
991,46	0,000
991,62	-615,385
991,79	508,333
991,95	5500,000
992,12	-800,000
992,29	-243,750
992,45	129,412
992,62	230,233
992,78	265,909
992,95	-193,333
993,11	189,286
993,28	940,000
993,44	-680,000
993,61	-518,750
993,77	-1250,000
993,94	-2700,000
994,10	-93,333
994,27	563,158
994,43	237,209
994,60	0,000
994,76	1150,000
994,93	370,000
995,09	-600,000
995,26	811,111
995,42	221,569
995,59	333,333
995,75	546,154
995,92	1500,000
996,08	250,000
996,25	-1100,000
996,41	-4600,000
996,58	453,333
996,74	220,455
996,91	396,552
997,07	0,000
997,23	8000,000
997,40	-9600,000
997,56	-553,846
997,73	-925,000
997,89	271,053
998,06	638,462
998,22	-366,667
998,39	440,000
998,55	800,000
998,72	-637,500
998,88	-240,000
999,05	-24,359
999,21	271,429
999,37	-373,333
999,54	-825,000
999,70	-143,333
999,87	550,000
1000,03	310,256
1000,20	160,417
1000,36	0,000
1000,52	229,167
1000,69	-309,524
1000,85	-770,000
1001,02	-329,167
1001,18	1400,000
1001,35	569,231
1001,51	411,765
1001,67	-561,538
1001,84	-1580,000
1002,00	186,486
1002,17	709,091
1002,33	-650,000
1002,50	519,048
1002,66	-446,154
1002,82	215,000
1002,99	671,429
1003,15	-914,286
1003,32	-663,636
1003,48	339,286
1003,64	646,667
1003,81	370,370
1003,97	-3350,000
1004,14	954,545
1004,30	170,000
1004,46	-433,333
1004,63	550,000
1004,79	250,000
1004,95	773,333
1005,12	2600,000
1005,28	396,552
1005,45	278,378
1005,61	255,172
1005,77	-168,750
1005,94	-176,190
1006,10	-4150,000
1006,26	446,154
1006,43	-130,769
1006,59	-490,909
1006,76	464,286
1006,92	1288,889
1007,08	5600,000
1007,25	-185,185
1007,41	393,103
1007,57	2950,000
1007,74	590,000
1007,90	-144,828
1008,06	178,261
1008,23	511,765
1008,39	-193,750
1008,55	-292,308
1008,72	-1100,000
1008,88	0,000
1009,04	163,415
1009,21	-189,474
1009,37	-516,667
1009,53	209,524
1009,70	1033,333
1009,86	-328,571
1010,02	3800,000
1010,19	1036,364
1010,35	197,059
1010,51	-4850,000
1010,68	-887,500
1010,84	-125,000
1011,00	450,000
1011,17	-150,000
1011,33	0,000
1011,49	-566,667
1011,66	642,857
1011,82	396,774
1011,98	400,000
1012,14	-545,455
1012,31	276,923
1012,47	0,000
1012,63	966,667
1012,80	521,429
1012,96	-575,000
1013,12	-1266,667
1013,29	500,000
1013,45	136,585
1013,61	3566,667
1013,77	-37,500
1013,94	2380,000
1014,10	98,305
1014,26	-1400,000
1014,43	-12,000
1014,59	310,000
1014,75	-216,667
1014,91	-500,000
1015,08	216,667
1015,24	5800,000
1015,40	241,176
1015,56	-5800,000
1015,73	173,810
1015,89	445,455
1016,05	2350,000
1016,21	-275,000
1016,38	347,368
1016,54	653,846
1016,70	-2233,333
1016,86	231,250
1017,03	718,750
1017,19	-453,846
1017,35	-305,882
1017,51	-1840,000
1017,68	-500,000
1017,84	-914,286
1018,00	223,810
1018,16	226,923
1018,33	-900,000
1018,49	-725,000
1018,65	-124,324
1018,81	174,359
1018,97	-957,143
1019,14	-2733,333
1019,30	-179,487
1019,46	0,000
1019,62	-458,824
1019,79	-3033,333
1019,95	1050,000
1020,11	4000,000
1020,27	-322,222
1020,43	-334,615
1020,60	1433,333
1020,76	561,111
1020,92	533,333
1021,08	560,000
1021,24	770,000
1021,41	1077,778
1021,57	1125,000
1021,73	753,846
1021,89	1960,000
1022,05	-228,571
1022,21	440,000
1022,38	-608,333
1022,54	-1633,333
1022,70	253,333
1022,86	-1062,500
1023,02	408,333
1023,19	1180,000
1023,35	3133,333
1023,51	129,167
1023,67	362,963
1023,83	-531,250
1023,99	221,053
1024,16	-234,615
1024,32	-500,000
1024,48	-420,000
1024,64	204,762
1024,80	456,522
1024,96	189,744
1025,12	500,000
1025,29	209,524
1025,45	268,421
1025,61	461,111
1025,77	-1500,000
1025,93	-5900,000
1026,09	-1171,429
1026,26	508,333
1026,42	150,000
1026,58	296,970
1026,74	1316,667
1026,90	216,000
1027,06	153,571
1027,22	1092,857
1027,38	148,077
1027,55	3033,333
1027,71	1150,000
1027,87	-192,000
1028,03	850,000
1028,19	150,000
1028,35	675,000
1028,51	700,000
1028,67	550,000
1028,83	-400,000
1029,00	-159,524
1029,16	700,000
1029,32	-203,571
1029,48	202,222
1029,64	238,889
1029,80	4800,000
1029,96	226,667
1030,12	430,435
1030,28	-2100,000
1030,44	-346,154
1030,61	-200,000
1030,77	-137,143
1030,93	-686,667
1031,09	766,667
1031,25	-5800,000
1031,41	-103,333
1031,57	200,000
1031,73	556,250
1031,89	-672,727
1032,05	-203,704
1032,21	854,545
1032,37	-105,556
1032,53	-692,857
1032,69	-254,167
1032,86	307,407
1033,02	-165,000
1033,18	-412,500
1033,34	389,474
1033,50	-3150,000
1033,66	-256,098
1033,82	269,565
1033,98	-203,704
1034,14	132,051
1034,30	209,677
1034,46	-2000,000
1034,62	315,000
1034,78	-438,095
1034,94	231,579
1035,10	-623,077
1035,26	-55,814
1035,42	-244,828
1035,58	-316,667
1035,74	716,667
1035,90	-615,385
1036,06	-983,333
1036,22	900,000
1036,38	-329,412
1036,54	-241,667
1036,70	-118,182
1036,86	10300,000
1037,02	316,667
1037,18	631,579
1037,34	103,810
1037,50	-43,902
1037,66	17,647
1037,82	2100,000
1037,98	-248,148
1038,14	-292,000
1038,30	-750,000
1038,46	-421,429
1038,62	417,391
1038,78	-1800,000
1038,94	-284,211
1039,10	340,909
1039,26	251,852
1039,42	-450,000
1039,58	628,571
1039,74	-289,474
1039,90	243,750
1040,06	-303,846
>>>>>End Processed Spectral Data<<<<<
