SpectraSuite Data File
++++++++++++++++++++++++++++++++++++
Date: Wed Feb 01 15:43:25 EET 2017
User: optolab
Dark Spectrum Present: Yes
Reference Spectrum Present: Yes
Number of Sampled Component Spectra: 1
Spectrometers: USB4C02475
Integration Time (usec): 100000 (USB4C02475)
Spectra Averaged: 1 (USB4C02475)
Boxcar Smoothing: 0 (USB4C02475)
Correct for Electrical Dark: No (USB4C02475)
Strobe/Lamp Enabled: No (USB4C02475)
Correct for Detector Non-linearity: No (USB4C02475)
Correct for Stray Light: No (USB4C02475)
Number of Pixels in Processed Spectrum: 3648
>>>>>Begin Processed Spectral Data<<<<<
344,91	3500,000
345,13	3500,000
345,35	3500,000
345,57	0,000
345,79	178,947
346,00	-1500,000
346,22	-1800,000
346,44	338,235
346,66	-670,833
346,87	-9600,000
347,09	390,909
347,31	-459,091
347,53	-207,692
347,74	220,000
347,96	400,000
348,18	773,684
348,40	319,355
348,61	788,235
348,83	342,857
349,05	139,216
349,27	-3250,000
349,48	476,923
349,70	-300,000
349,92	348,387
350,14	220,755
350,35	284,000
350,57	1775,000
350,79	460,000
351,01	-747,619
351,22	211,111
351,44	630,769
351,66	-336,000
351,87	-300,000
352,09	180,769
352,31	249,180
352,53	179,688
352,74	277,778
352,96	209,091
353,18	668,421
353,40	424,000
353,61	275,556
353,83	311,765
354,05	618,182
354,26	2100,000
354,48	244,000
354,70	293,939
354,92	-334,483
355,13	167,677
355,35	281,818
355,57	408,333
355,78	162,651
356,00	-2525,000
356,22	288,462
356,44	4700,000
356,65	381,818
356,87	515,385
357,09	516,667
357,30	231,111
357,52	246,552
357,74	570,000
357,95	223,077
358,17	165,574
358,39	201,613
358,60	308,108
358,82	404,167
359,04	333,333
359,26	440,000
359,47	9600,000
359,69	372,500
359,91	354,545
360,12	361,905
360,34	529,167
360,56	-90,741
360,77	2275,000
360,99	614,286
361,21	292,000
361,42	3650,000
361,64	167,347
361,86	136,923
362,07	-461,290
362,29	190,667
362,51	-464,706
362,72	404,000
362,94	302,941
363,16	165,116
363,37	-750,000
363,59	392,308
363,81	220,455
364,02	500,000
364,24	495,833
364,46	1200,000
364,67	745,455
364,89	1685,714
365,11	170,000
365,32	458,621
365,54	352,778
365,76	265,306
365,97	300,000
366,19	167,241
366,41	577,273
366,62	348,148
366,84	158,140
367,05	189,796
367,27	1650,000
367,49	-553,846
367,70	511,765
367,92	227,869
368,14	225,000
368,35	-7200,000
368,57	448,000
368,79	317,241
369,00	297,826
369,22	-1175,000
369,43	152,941
369,65	248,387
369,87	421,622
370,08	143,373
370,30	267,857
370,51	196,721
370,73	184,444
370,95	206,452
371,16	173,810
371,38	356,667
371,60	1212,500
371,81	150,000
372,03	713,333
372,24	246,667
372,46	128,302
372,68	97,143
372,89	242,424
373,11	453,846
373,32	334,091
373,54	-607,692
373,76	715,385
373,97	560,000
374,19	554,545
374,40	235,937
374,62	-1933,333
374,84	2825,000
375,05	435,714
375,27	370,000
375,48	-6500,000
375,70	168,000
375,92	258,929
376,13	284,375
376,35	158,904
376,56	700,000
376,78	254,167
376,99	289,286
377,21	285,417
377,43	181,818
377,64	160,870
377,86	331,034
378,07	315,385
378,29	-1700,000
378,51	251,613
378,72	214,583
378,94	-933,333
379,15	251,515
379,37	482,353
379,58	232,308
379,80	740,000
380,01	362,500
380,23	264,706
380,45	1980,000
380,66	3466,667
380,88	272,727
381,09	197,143
381,31	145,556
381,52	201,961
381,74	1222,222
381,95	527,273
382,17	376,923
382,39	495,238
382,60	118,367
382,82	264,103
383,03	232,692
383,25	267,742
383,46	231,818
383,68	485,185
383,89	395,000
384,11	300,000
384,32	-2766,667
384,54	433,333
384,76	-2333,333
384,97	357,576
385,19	234,483
385,40	215,686
385,62	177,193
385,83	233,333
386,05	133,333
386,26	240,000
386,48	159,770
386,69	210,417
386,91	375,000
387,12	198,305
387,34	175,862
387,55	224,194
387,77	434,375
387,98	415,385
388,20	170,652
388,41	388,235
388,63	7200,000
388,84	132,787
389,06	233,333
389,27	652,632
389,49	294,444
389,70	214,286
389,92	166,667
390,13	228,571
390,35	239,216
390,56	190,741
390,78	325,926
390,99	750,000
391,21	600,000
391,42	266,667
391,64	260,976
391,85	131,034
392,07	200,000
392,28	133,333
392,50	266,667
392,71	-500,000
392,93	194,231
393,14	408,333
393,36	204,082
393,57	130,827
393,79	577,778
394,00	223,404
394,22	110,959
394,43	132,530
394,65	239,535
394,86	1212,500
395,08	514,286
395,29	171,698
395,50	276,923
395,72	533,333
395,93	571,429
396,15	174,648
396,36	189,706
396,58	191,667
396,79	235,000
397,01	250,000
397,22	197,222
397,44	184,848
397,65	184,211
397,87	280,952
398,08	230,612
398,29	268,750
398,51	158,929
398,72	165,854
398,94	152,308
399,15	91,429
399,37	200,000
399,58	130,769
399,80	477,273
400,01	168,519
400,22	438,095
400,44	169,136
400,65	278,571
400,87	192,647
401,08	161,429
401,30	152,174
401,51	147,368
401,72	234,615
401,94	148,101
402,15	515,000
402,37	136,975
402,58	666,667
402,80	197,143
403,01	160,563
403,22	972,727
403,44	211,594
403,65	208,929
403,87	175,714
404,08	333,333
404,30	163,529
404,51	-2666,667
404,72	150,000
404,94	105,882
405,15	190,000
405,37	141,772
405,58	158,824
405,79	162,195
406,01	224,390
406,22	167,241
406,44	197,872
406,65	215,789
406,86	135,417
407,08	149,367
407,29	108,738
407,51	114,634
407,72	141,667
407,93	159,783
408,15	80,342
408,36	244,186
408,58	142,268
408,79	92,500
409,00	134,375
409,22	176,190
409,43	151,899
409,64	93,789
409,86	79,874
410,07	97,692
410,29	95,522
410,50	124,823
410,71	93,750
410,93	51,592
411,14	151,938
411,35	102,976
411,57	84,211
411,78	96,094
412,00	107,006
412,21	111,613
412,42	94,180
412,64	81,545
412,85	78,351
413,06	76,220
413,28	59,910
413,49	82,938
413,70	68,841
413,92	64,427
414,13	29,461
414,34	63,218
414,56	49,301
414,77	74,684
414,98	64,430
415,20	53,633
415,41	59,490
415,63	48,259
415,84	56,389
416,05	39,011
416,27	40,827
416,48	55,056
416,69	48,009
416,91	51,622
417,12	51,604
417,33	39,579
417,55	36,419
417,76	47,023
417,97	37,759
418,19	36,978
418,40	43,191
418,61	42,222
418,83	36,727
419,04	35,331
419,25	38,162
419,46	39,850
419,68	32,540
419,89	38,152
420,10	36,463
420,32	37,111
420,53	34,347
420,74	41,804
420,96	33,875
421,17	36,143
421,38	35,256
421,60	30,132
421,81	37,244
422,02	34,587
422,23	34,460
422,45	30,175
422,66	31,407
422,87	33,130
423,09	30,024
423,30	26,134
423,51	24,803
423,73	25,656
423,94	25,000
424,15	19,388
424,36	18,354
424,58	17,312
424,79	19,800
425,00	17,090
425,22	16,807
425,43	14,365
425,64	17,527
425,85	14,200
426,07	14,049
426,28	11,323
426,49	12,235
426,71	11,498
426,92	10,177
427,13	9,099
427,34	8,333
427,56	9,022
427,77	9,749
427,98	9,459
428,19	8,324
428,41	10,482
428,62	8,758
428,83	9,492
429,04	7,825
429,26	7,826
429,47	7,478
429,68	6,681
429,89	6,218
430,11	6,334
430,32	4,897
430,53	3,911
430,74	3,496
430,96	3,548
431,17	3,103
431,38	3,406
431,59	2,854
431,81	2,250
432,02	2,807
432,23	2,654
432,44	2,639
432,66	2,296
432,87	2,547
433,08	1,677
433,29	2,799
433,51	0,902
433,72	2,103
433,93	1,989
434,14	2,223
434,35	1,140
434,57	2,084
434,78	0,984
434,99	1,994
435,20	1,908
435,42	1,174
435,63	1,676
435,84	1,396
436,05	1,790
436,26	0,978
436,48	1,277
436,69	0,941
436,90	1,050
437,11	0,940
437,32	1,209
437,54	1,327
437,75	1,404
437,96	1,860
438,17	0,472
438,38	1,285
438,60	1,227
438,81	0,993
439,02	1,157
439,23	0,512
439,44	1,264
439,66	0,724
439,87	1,166
440,08	1,010
440,29	0,709
440,50	0,921
440,72	0,792
440,93	0,862
441,14	0,946
441,35	0,978
441,56	0,513
441,77	1,051
441,99	0,760
442,20	0,645
442,41	0,560
442,62	0,614
442,83	0,801
443,04	0,767
443,26	0,786
443,47	0,943
443,68	0,806
443,89	0,660
444,10	0,561
444,31	0,768
444,53	0,881
444,74	0,735
444,95	0,723
445,16	0,463
445,37	0,773
445,58	0,877
445,80	0,577
446,01	0,642
446,22	0,476
446,43	0,842
446,64	0,639
446,85	0,442
447,06	0,596
447,28	0,614
447,49	0,612
447,70	0,605
447,91	0,765
448,12	0,483
448,33	0,879
448,54	0,786
448,76	0,672
448,97	0,765
449,18	0,581
449,39	0,785
449,60	0,811
449,81	0,971
450,02	0,821
450,23	0,664
450,45	0,928
450,66	0,632
450,87	0,607
451,08	0,828
451,29	1,035
451,50	0,737
451,71	0,812
451,92	0,732
452,13	0,718
452,35	0,798
452,56	0,807
452,77	1,192
452,98	0,828
453,19	0,629
453,40	0,587
453,61	1,053
453,82	0,860
454,03	0,868
454,25	1,487
454,46	1,414
454,67	1,941
454,88	2,166
455,09	2,161
455,30	2,791
455,51	3,088
455,72	3,336
455,93	3,894
456,14	4,287
456,35	5,196
456,56	5,280
456,78	5,849
456,99	6,365
457,20	6,996
457,41	7,403
457,62	8,375
457,83	9,348
458,04	10,247
458,25	11,412
458,46	12,312
458,67	13,488
458,88	14,660
459,09	16,139
459,30	17,960
459,51	18,965
459,73	20,469
459,94	22,661
460,15	23,894
460,36	25,084
460,57	26,873
460,78	27,679
460,99	29,043
461,20	30,207
461,41	32,103
461,62	33,124
461,83	34,673
462,04	36,039
462,25	37,505
462,46	38,211
462,67	39,316
462,88	40,102
463,09	40,472
463,30	40,634
463,51	40,953
463,72	39,929
463,93	39,374
464,15	38,616
464,36	37,732
464,57	36,736
464,78	35,706
464,99	34,790
465,20	33,581
465,41	32,595
465,62	32,163
465,83	30,775
466,04	30,367
466,25	29,809
466,46	30,093
466,67	29,647
466,88	30,551
467,09	30,976
467,30	32,128
467,51	33,431
467,72	35,166
467,93	36,693
468,14	38,654
468,35	40,419
468,56	42,868
468,77	44,817
468,98	47,235
469,19	49,563
469,40	51,354
469,61	52,410
469,82	53,076
470,03	54,889
470,24	55,845
470,45	55,361
470,66	55,257
470,87	55,156
471,08	54,540
471,29	53,678
471,50	53,604
471,71	51,418
471,92	51,177
472,13	50,131
472,34	49,548
472,55	48,205
472,76	48,325
472,97	47,928
473,18	47,683
473,39	48,151
473,60	49,092
473,81	50,189
474,01	50,648
474,22	52,250
474,43	53,751
474,64	54,840
474,85	56,164
475,06	56,163
475,27	57,924
475,48	58,416
475,69	57,638
475,90	58,680
476,11	59,772
476,32	60,346
476,53	60,873
476,74	61,138
476,95	62,129
477,16	62,329
477,37	61,808
477,58	63,402
477,79	63,268
478,00	63,477
478,21	63,123
478,41	62,606
478,62	62,133
478,83	61,149
479,04	61,004
479,25	59,725
479,46	59,298
479,67	59,482
479,88	59,718
480,09	59,204
480,30	59,162
480,51	59,402
480,72	58,271
480,93	58,594
481,14	59,146
481,34	57,667
481,55	57,849
481,76	56,418
481,97	55,637
482,18	55,658
482,39	54,485
482,60	52,801
482,81	52,417
483,02	50,690
483,23	50,865
483,44	49,893
483,65	49,728
483,85	50,177
484,06	49,549
484,27	49,112
484,48	49,101
484,69	48,720
484,90	48,681
485,11	48,319
485,32	48,007
485,53	47,175
485,73	48,200
485,94	47,183
486,15	46,717
486,36	46,915
486,57	46,791
486,78	47,132
486,99	46,980
487,20	47,798
487,41	48,028
487,61	48,188
487,82	48,717
488,03	48,725
488,24	49,375
488,45	49,757
488,66	49,471
488,87	49,466
489,08	49,610
489,28	50,206
489,49	50,398
489,70	50,933
489,91	51,701
490,12	51,145
490,33	51,076
490,54	51,251
490,74	52,211
490,95	51,460
491,16	51,523
491,37	51,544
491,58	50,683
491,79	50,572
492,00	50,060
492,20	48,778
492,41	48,462
492,62	47,652
492,83	47,431
493,04	46,846
493,25	47,007
493,45	46,312
493,66	46,026
493,87	45,744
494,08	45,159
494,29	44,203
494,50	44,342
494,70	43,780
494,91	43,464
495,12	43,597
495,33	43,017
495,54	42,501
495,75	42,510
495,95	41,822
496,16	41,169
496,37	41,336
496,58	41,353
496,79	40,426
496,99	39,742
497,20	38,949
497,41	38,147
497,62	36,588
497,83	35,825
498,04	34,006
498,24	33,049
498,45	31,656
498,66	30,442
498,87	28,601
499,08	27,408
499,28	25,839
499,49	24,294
499,70	22,924
499,91	21,449
500,12	19,388
500,32	18,089
500,53	17,180
500,74	15,852
500,95	14,732
501,15	13,500
501,36	12,806
501,57	11,758
501,78	11,386
501,99	10,375
502,19	9,283
502,40	8,562
502,61	8,098
502,82	7,444
503,02	6,626
503,23	5,991
503,44	5,387
503,65	4,609
503,86	3,851
504,06	3,208
504,27	2,725
504,48	2,226
504,69	1,801
504,89	1,292
505,10	1,173
505,31	0,923
505,52	0,691
505,72	0,556
505,93	0,701
506,14	0,609
506,35	0,566
506,55	0,624
506,76	0,545
506,97	0,488
507,18	0,746
507,38	0,646
507,59	0,628
507,80	0,579
508,01	0,529
508,21	0,530
508,42	0,562
508,63	0,649
508,84	0,471
509,04	0,457
509,25	0,560
509,46	0,616
509,67	0,418
509,87	0,602
510,08	0,589
510,29	0,625
510,49	0,591
510,70	0,536
510,91	0,479
511,12	0,584
511,32	0,359
511,53	0,755
511,74	0,574
511,94	0,747
512,15	0,434
512,36	0,469
512,57	0,573
512,77	0,656
512,98	0,429
513,19	0,508
513,39	0,512
513,60	0,344
513,81	0,515
514,01	0,608
514,22	0,884
514,43	0,800
514,64	0,537
514,84	0,565
515,05	0,403
515,26	0,539
515,46	0,569
515,67	0,426
515,88	0,485
516,08	0,577
516,29	0,486
516,50	0,488
516,70	0,427
516,91	0,652
517,12	0,638
517,32	0,569
517,53	0,544
517,74	0,621
517,95	0,390
518,15	0,593
518,36	0,541
518,57	0,575
518,77	0,485
518,98	0,403
519,19	0,353
519,39	0,686
519,60	0,430
519,80	0,676
520,01	0,525
520,22	0,472
520,42	0,726
520,63	0,692
520,84	0,441
521,04	0,522
521,25	0,764
521,46	0,789
521,66	0,546
521,87	0,492
522,08	0,640
522,28	0,821
522,49	0,525
522,70	0,760
522,90	0,870
523,11	0,785
523,31	1,073
523,52	0,734
523,73	0,941
523,93	1,294
524,14	1,132
524,35	1,291
524,55	1,702
524,76	1,743
524,97	2,000
525,17	2,233
525,38	2,632
525,58	3,058
525,79	3,300
526,00	3,801
526,20	4,669
526,41	4,678
526,61	5,831
526,82	6,618
527,03	7,704
527,23	8,464
527,44	9,300
527,64	10,653
527,85	11,775
528,06	13,184
528,26	14,589
528,47	15,971
528,68	17,691
528,88	19,223
529,09	20,920
529,29	22,562
529,50	24,218
529,70	26,096
529,91	27,937
530,12	29,563
530,32	30,693
530,53	33,233
530,73	34,701
530,94	35,898
531,15	37,057
531,35	39,163
531,56	40,032
531,76	40,877
531,97	42,474
532,17	43,325
532,38	44,250
532,59	45,324
532,79	46,325
533,00	46,661
533,20	48,233
533,41	49,182
533,61	48,954
533,82	50,589
534,03	50,659
534,23	52,478
534,44	53,514
534,64	52,583
534,85	54,148
535,05	54,987
535,26	55,488
535,46	56,286
535,67	56,571
535,88	57,233
536,08	56,914
536,29	57,841
536,49	57,626
536,70	56,979
536,90	58,015
537,11	57,343
537,31	55,983
537,52	56,244
537,72	56,252
537,93	55,532
538,13	55,403
538,34	55,880
538,55	55,788
538,75	55,999
538,96	57,355
539,16	56,968
539,37	57,525
539,57	59,572
539,78	59,610
539,98	61,243
540,19	61,631
540,39	62,728
540,60	63,366
540,80	64,882
541,01	64,930
541,21	67,083
541,42	66,705
541,62	67,848
541,83	68,625
542,03	70,217
542,24	70,686
542,44	71,470
542,65	71,794
542,85	73,365
543,06	74,653
543,26	75,621
543,47	76,850
543,67	77,776
543,88	77,997
544,08	78,209
544,29	78,637
544,49	78,362
544,70	79,252
544,90	78,222
545,11	78,964
545,31	78,647
545,52	77,516
545,72	77,736
545,93	77,000
546,13	75,664
546,34	75,631
546,54	74,522
546,75	73,208
546,95	72,725
547,15	71,246
547,36	70,349
547,56	67,771
547,77	66,309
547,97	65,509
548,18	64,122
548,38	62,045
548,59	61,108
548,79	59,289
549,00	58,354
549,20	57,513
549,41	55,463
549,61	54,284
549,81	53,283
550,02	52,484
550,22	50,663
550,43	50,035
550,63	49,575
550,84	47,360
551,04	47,441
551,25	46,807
551,45	45,457
551,65	44,879
551,86	44,905
552,06	44,029
552,27	42,798
552,47	42,254
552,68	42,580
552,88	40,422
553,08	40,269
553,29	40,561
553,49	40,095
553,70	40,422
553,90	39,831
554,11	39,625
554,31	38,960
554,51	39,342
554,72	38,968
554,92	38,119
555,13	37,546
555,33	37,643
555,53	37,979
555,74	37,180
555,94	36,468
556,15	36,102
556,35	36,008
556,56	35,667
556,76	35,147
556,96	34,119
557,17	34,122
557,37	33,350
557,58	33,567
557,78	33,143
557,98	33,234
558,19	33,386
558,39	33,055
558,59	33,221
558,80	33,380
559,00	33,562
559,21	33,605
559,41	33,545
559,61	33,686
559,82	33,668
560,02	33,624
560,23	34,010
560,43	33,287
560,63	32,932
560,84	32,405
561,04	32,050
561,24	31,679
561,45	30,452
561,65	30,156
561,85	29,275
562,06	28,384
562,26	27,918
562,47	27,437
562,67	27,259
562,87	26,955
563,08	26,360
563,28	25,341
563,48	24,924
563,69	24,686
563,89	24,457
564,09	24,122
564,30	23,300
564,50	22,904
564,70	21,913
564,91	21,642
565,11	21,182
565,31	20,543
565,52	19,969
565,72	19,276
565,92	19,027
566,13	19,086
566,33	18,347
566,53	17,497
566,74	16,772
566,94	15,670
567,14	15,063
567,35	13,904
567,55	13,044
567,75	12,037
567,96	10,813
568,16	9,967
568,36	8,733
568,57	8,029
568,77	7,061
568,97	6,341
569,18	5,803
569,38	5,269
569,58	4,564
569,79	4,147
569,99	3,667
570,19	3,036
570,39	2,696
570,60	2,341
570,80	2,080
571,00	1,883
571,21	1,496
571,41	1,324
571,61	1,167
571,82	1,090
572,02	0,803
572,22	0,625
572,42	0,686
572,63	0,747
572,83	0,731
573,03	0,527
573,24	0,542
573,44	0,387
573,64	0,634
573,84	0,560
574,05	0,494
574,25	0,538
574,45	0,430
574,66	0,280
574,86	0,449
575,06	0,393
575,26	0,414
575,47	0,365
575,67	0,599
575,87	0,342
576,07	0,261
576,28	0,603
576,48	0,590
576,68	0,395
576,88	0,278
577,09	0,615
577,29	0,253
577,49	0,517
577,69	0,488
577,90	0,506
578,10	0,345
578,30	0,272
578,50	0,324
578,71	0,459
578,91	0,358
579,11	0,482
579,31	0,532
579,52	0,260
579,72	0,365
579,92	0,434
580,12	0,364
580,33	0,471
580,53	0,310
580,73	0,372
580,93	0,528
581,13	0,343
581,34	0,488
581,54	0,449
581,74	0,349
581,94	0,647
582,15	0,360
582,35	0,198
582,55	0,514
582,75	0,561
582,95	0,610
583,16	0,138
583,36	0,534
583,56	0,440
583,76	0,451
583,96	0,591
584,17	0,463
584,37	0,579
584,57	0,423
584,77	0,415
584,97	0,372
585,18	0,536
585,38	0,385
585,58	0,549
585,78	0,373
585,98	0,555
586,19	0,430
586,39	0,355
586,59	0,281
586,79	0,238
586,99	0,253
587,20	0,377
587,40	0,582
587,60	0,322
587,80	0,487
588,00	0,505
588,20	0,373
588,41	0,566
588,61	0,390
588,81	0,543
589,01	0,392
589,21	0,495
589,41	0,608
589,62	0,546
589,82	0,416
590,02	0,310
590,22	0,582
590,42	0,439
590,62	0,355
590,83	0,413
591,03	0,385
591,23	0,295
591,43	0,534
591,63	0,435
591,83	0,447
592,03	0,433
592,24	0,423
592,44	0,440
592,64	0,549
592,84	0,521
593,04	0,618
593,24	0,621
593,44	0,572
593,65	0,719
593,85	0,700
594,05	0,510
594,25	1,070
594,45	0,876
594,65	1,070
594,85	1,262
595,06	1,289
595,26	1,521
595,46	1,438
595,66	1,671
595,86	2,029
596,06	2,118
596,26	2,466
596,46	2,816
596,66	3,026
596,87	3,516
597,07	3,688
597,27	4,221
597,47	4,837
597,67	5,515
597,87	5,727
598,07	6,385
598,27	7,034
598,47	7,876
598,67	8,683
598,88	9,182
599,08	10,399
599,28	11,137
599,48	12,660
599,68	13,352
599,88	14,283
600,08	15,438
600,28	16,496
600,48	17,699
600,68	18,807
600,88	19,880
601,09	21,438
601,29	22,315
601,49	23,747
601,69	24,101
601,89	25,001
602,09	26,421
602,29	26,718
602,49	27,343
602,69	28,329
602,89	28,571
603,09	29,527
603,29	30,295
603,49	30,355
603,69	30,908
603,90	31,057
604,10	31,484
604,30	31,309
604,50	31,777
604,70	32,435
604,90	33,140
605,10	33,861
605,30	34,633
605,50	35,443
605,70	36,136
605,90	37,763
606,10	38,765
606,30	39,543
606,50	41,008
606,70	42,853
606,90	43,633
607,10	45,009
607,30	47,076
607,50	48,135
607,70	49,279
607,90	51,179
608,10	52,201
608,30	52,802
608,50	54,455
608,70	54,725
608,90	56,015
609,11	56,451
609,31	57,446
609,51	58,592
609,71	57,775
609,91	59,270
610,11	58,886
610,31	58,790
610,51	57,854
610,71	57,639
610,91	56,965
611,11	55,738
611,31	55,522
611,51	54,221
611,71	53,105
611,91	52,081
612,11	51,616
612,31	50,333
612,51	49,637
612,71	49,172
612,91	48,455
613,11	47,985
613,31	46,843
613,51	46,544
613,71	46,544
613,91	45,639
614,11	45,596
614,31	44,802
614,50	44,775
614,70	44,871
614,90	44,276
615,10	44,456
615,30	43,939
615,50	43,667
615,70	43,488
615,90	43,503
616,10	43,979
616,30	43,514
616,50	43,577
616,70	43,001
616,90	43,397
617,10	42,901
617,30	43,337
617,50	43,102
617,70	43,112
617,90	43,286
618,10	42,496
618,30	42,600
618,50	41,946
618,70	42,672
618,90	42,501
619,10	41,695
619,30	42,113
619,49	41,924
619,69	41,590
619,89	41,325
620,09	41,982
620,29	42,452
620,49	41,337
620,69	42,190
620,89	42,339
621,09	41,873
621,29	42,375
621,49	42,222
621,69	42,680
621,89	42,732
622,09	43,113
622,29	42,491
622,48	43,822
622,68	42,739
622,88	42,605
623,08	42,970
623,28	43,024
623,48	43,342
623,68	43,048
623,88	42,865
624,08	42,788
624,28	42,188
624,48	41,895
624,67	41,828
624,87	41,387
625,07	39,964
625,27	40,584
625,47	40,022
625,67	39,154
625,87	38,384
626,07	37,452
626,27	37,034
626,47	36,039
626,66	35,398
626,86	35,046
627,06	33,658
627,26	33,176
627,46	32,352
627,66	31,189
627,86	30,670
628,06	30,004
628,25	28,651
628,45	28,389
628,65	28,005
628,85	27,503
629,05	26,956
629,25	26,528
629,45	26,634
629,65	25,766
629,84	25,880
630,04	25,323
630,24	25,145
630,44	24,191
630,64	23,934
630,84	22,910
631,04	21,937
631,23	21,029
631,43	19,903
631,63	18,602
631,83	17,467
632,03	16,024
632,23	15,181
632,42	13,718
632,62	12,827
632,82	11,561
633,02	10,261
633,22	9,635
633,42	8,829
633,62	8,163
633,81	7,894
634,01	7,487
634,21	7,448
634,41	7,335
634,61	7,319
634,80	7,644
635,00	7,695
635,20	8,347
635,40	8,910
635,60	9,457
635,80	10,116
635,99	10,947
636,19	11,534
636,39	12,506
636,59	12,580
636,79	13,726
636,98	14,257
637,18	14,663
637,38	15,620
637,58	15,902
637,78	15,987
637,97	15,912
638,17	15,812
638,37	15,204
638,57	13,866
638,77	13,499
638,96	12,382
639,16	11,563
639,36	10,703
639,56	10,337
639,76	9,158
639,95	8,854
640,15	7,868
640,35	7,236
640,55	6,477
640,75	6,278
640,94	5,771
641,14	5,256
641,34	5,260
641,54	4,611
641,73	4,041
641,93	4,230
642,13	3,647
642,33	3,179
642,53	2,561
642,72	2,631
642,92	2,291
643,12	2,015
643,32	1,818
643,51	1,789
643,71	1,346
643,91	1,239
644,11	1,349
644,30	1,233
644,50	1,052
644,70	0,436
644,90	0,954
645,09	0,867
645,29	0,522
645,49	0,832
645,69	0,839
645,88	0,928
646,08	0,854
646,28	1,002
646,48	0,878
646,67	0,770
646,87	0,930
647,07	0,433
647,26	0,681
647,46	0,900
647,66	0,717
647,86	0,690
648,05	0,716
648,25	0,835
648,45	0,687
648,65	0,771
648,84	0,706
649,04	0,887
649,24	0,998
649,43	0,452
649,63	1,197
649,83	1,071
650,03	0,435
650,22	0,699
650,42	0,868
650,62	0,328
650,81	0,921
651,01	1,074
651,21	0,696
651,40	0,533
651,60	0,782
651,80	0,600
652,00	0,873
652,19	0,459
652,39	1,031
652,59	0,649
652,78	0,820
652,98	0,540
653,18	0,530
653,37	0,519
653,57	0,682
653,77	0,694
653,96	0,664
654,16	0,680
654,36	1,005
654,55	1,252
654,75	0,911
654,95	0,578
655,14	0,661
655,34	0,838
655,54	0,374
655,73	0,394
655,93	1,090
656,13	0,676
656,32	0,862
656,52	0,437
656,72	0,726
656,91	0,639
657,11	0,493
657,31	0,549
657,50	0,922
657,70	0,695
657,90	0,697
658,09	0,584
658,29	1,334
658,49	0,689
658,68	0,975
658,88	0,852
659,07	0,767
659,27	0,562
659,47	0,643
659,66	0,252
659,86	0,741
660,06	0,742
660,25	0,238
660,45	1,041
660,64	0,545
660,84	0,715
661,04	0,796
661,23	0,573
661,43	0,639
661,63	0,758
661,82	0,631
662,02	0,821
662,21	0,763
662,41	0,404
662,61	0,814
662,80	0,502
663,00	0,568
663,19	0,676
663,39	0,826
663,59	0,993
663,78	0,630
663,98	0,436
664,17	0,780
664,37	0,630
664,57	0,765
664,76	1,364
664,96	0,719
665,15	0,344
665,35	0,817
665,55	0,641
665,74	0,769
665,94	0,673
666,13	0,878
666,33	0,517
666,53	0,659
666,72	0,545
666,92	1,156
667,11	0,733
667,31	0,375
667,50	0,799
667,70	0,790
667,90	0,780
668,09	0,530
668,29	0,853
668,48	0,619
668,68	0,970
668,87	0,604
669,07	0,837
669,26	0,744
669,46	0,555
669,66	0,951
669,85	0,873
670,05	0,447
670,24	0,743
670,44	0,509
670,63	0,436
670,83	0,693
671,02	0,588
671,22	1,248
671,42	0,734
671,61	0,714
671,81	0,516
672,00	0,693
672,20	0,422
672,39	0,614
672,59	0,523
672,78	0,631
672,98	0,501
673,17	0,564
673,37	0,546
673,56	0,765
673,76	0,818
673,95	0,590
674,15	0,188
674,34	0,476
674,54	0,676
674,73	0,526
674,93	0,657
675,13	0,410
675,32	0,735
675,52	1,046
675,71	0,426
675,91	0,835
676,10	0,595
676,30	0,249
676,49	0,530
676,69	0,621
676,88	0,813
677,08	0,661
677,27	0,616
677,47	0,603
677,66	0,474
677,86	0,506
678,05	0,699
678,24	0,263
678,44	0,462
678,63	0,538
678,83	0,548
679,02	0,664
679,22	0,305
679,41	0,503
679,61	0,105
679,80	0,458
680,00	0,559
680,19	0,495
680,39	0,670
680,58	0,269
680,78	0,240
680,97	0,347
681,17	0,610
681,36	0,397
681,56	0,557
681,75	0,494
681,94	0,351
682,14	0,650
682,33	0,301
682,53	0,798
682,72	0,567
682,92	0,619
683,11	0,596
683,31	0,135
683,50	0,374
683,69	0,325
683,89	0,290
684,08	0,327
684,28	0,219
684,47	0,441
684,67	0,478
684,86	0,040
685,06	0,233
685,25	0,299
685,44	0,445
685,64	0,272
685,83	0,389
686,03	0,218
686,22	0,273
686,42	0,234
686,61	0,400
686,80	0,408
687,00	0,397
687,19	0,627
687,39	0,323
687,58	0,273
687,77	0,255
687,97	0,249
688,16	0,202
688,36	0,167
688,55	0,194
688,74	0,440
688,94	0,264
689,13	0,389
689,33	0,290
689,52	0,358
689,71	0,388
689,91	0,216
690,10	0,391
690,30	0,385
690,49	0,353
690,68	0,368
690,88	0,487
691,07	0,193
691,27	0,169
691,46	0,202
691,65	0,282
691,85	0,322
692,04	0,170
692,23	0,212
692,43	0,281
692,62	0,436
692,82	0,344
693,01	0,118
693,20	0,253
693,40	0,087
693,59	0,348
693,78	0,359
693,98	0,249
694,17	0,171
694,36	0,427
694,56	0,287
694,75	0,318
694,94	0,308
695,14	0,445
695,33	0,204
695,53	0,315
695,72	0,182
695,91	0,257
696,11	0,436
696,30	0,107
696,49	0,104
696,69	0,400
696,88	0,337
697,07	0,244
697,27	0,406
697,46	0,351
697,65	0,412
697,85	0,526
698,04	0,502
698,23	0,425
698,43	0,524
698,62	0,287
698,81	0,481
699,01	0,796
699,20	0,572
699,39	0,560
699,58	0,850
699,78	0,780
699,97	0,649
700,16	0,754
700,36	0,375
700,55	0,843
700,74	0,695
700,94	0,516
701,13	0,186
701,32	1,328
701,52	1,023
701,71	0,663
701,90	1,129
702,09	1,162
702,29	0,702
702,48	1,278
702,67	1,160
702,87	0,646
703,06	1,123
703,25	0,986
703,44	0,586
703,64	1,134
703,83	1,738
704,02	1,176
704,22	0,757
704,41	1,868
704,60	1,818
704,79	0,966
704,99	1,801
705,18	1,526
705,37	2,298
705,56	1,723
705,76	1,955
705,95	1,270
706,14	1,999
706,33	1,814
706,53	2,379
706,72	1,797
706,91	2,106
707,11	2,326
707,30	2,836
707,49	3,131
707,68	1,686
707,88	2,302
708,07	2,593
708,26	2,048
708,45	2,338
708,64	1,980
708,84	2,808
709,03	2,103
709,22	3,129
709,41	2,751
709,61	2,599
709,80	3,435
709,99	3,665
710,18	4,301
710,38	4,248
710,57	1,956
710,76	1,642
710,95	2,156
711,14	3,491
711,34	2,724
711,53	3,221
711,72	3,410
711,91	2,486
712,11	5,762
712,30	4,673
712,49	4,272
712,68	5,428
712,87	4,532
713,07	5,307
713,26	2,833
713,45	5,361
713,64	2,628
713,83	4,604
714,03	4,906
714,22	4,528
714,41	3,565
714,60	4,138
714,79	3,736
714,99	3,445
715,18	3,130
715,37	6,127
715,56	6,621
715,75	4,184
715,94	3,132
716,14	3,682
716,33	3,341
716,52	4,688
716,71	4,190
716,90	4,079
717,10	6,481
717,29	5,257
717,48	6,265
717,67	2,135
717,86	3,276
718,05	1,799
718,24	5,752
718,44	4,275
718,63	3,253
718,82	6,360
719,01	4,492
719,20	6,829
719,39	4,620
719,59	3,309
719,78	2,503
719,97	5,788
720,16	6,100
720,35	4,986
720,54	7,898
720,73	2,144
720,93	6,093
721,12	3,247
721,31	7,830
721,50	6,677
721,69	6,517
721,88	7,315
722,07	5,352
722,27	6,016
722,46	6,941
722,65	4,579
722,84	4,474
723,03	4,024
723,22	8,769
723,41	6,908
723,60	9,273
723,79	6,867
723,99	7,216
724,18	8,953
724,37	10,115
724,56	9,099
724,75	10,250
724,94	7,323
725,13	10,381
725,32	7,129
725,51	4,657
725,71	9,754
725,90	7,887
726,09	11,231
726,28	12,209
726,47	8,008
726,66	6,326
726,85	6,865
727,04	7,165
727,23	8,847
727,42	9,951
727,61	4,233
727,81	7,612
728,00	10,355
728,19	6,522
728,38	5,184
728,57	8,281
728,76	11,795
728,95	8,036
729,14	4,077
729,33	10,867
729,52	9,561
729,71	9,300
729,90	5,741
730,09	8,178
730,28	12,471
730,48	11,253
730,67	13,664
730,86	3,607
731,05	9,579
731,24	5,630
731,43	5,535
731,62	12,782
731,81	7,878
732,00	7,751
732,19	6,513
732,38	8,115
732,57	5,858
732,76	14,048
732,95	3,867
733,14	6,242
733,33	10,302
733,52	12,349
733,71	10,089
733,90	14,267
734,09	11,111
734,28	14,207
734,47	8,421
734,66	15,604
734,85	11,489
735,04	14,305
735,23	12,963
735,42	15,562
735,61	12,933
735,81	14,483
736,00	16,416
736,19	11,686
736,38	9,333
736,57	20,613
736,76	8,837
736,95	20,000
737,14	16,565
737,33	13,483
737,52	14,027
737,71	12,340
737,90	19,365
738,09	19,479
738,28	7,177
738,47	11,111
738,66	13,281
738,85	10,137
739,04	17,148
739,22	17,230
739,41	15,000
739,60	9,532
739,79	8,562
739,98	3,993
740,17	16,327
740,36	21,786
740,55	15,168
740,74	12,000
740,93	14,024
741,12	20,037
741,31	19,301
741,50	9,981
741,69	10,370
741,88	10,200
742,07	18,773
742,26	17,978
742,45	4,150
742,64	27,338
742,83	5,319
743,02	19,820
743,21	21,328
743,40	16,315
743,59	16,803
743,78	19,869
743,97	22,368
744,16	21,286
744,34	12,992
744,53	19,672
744,72	24,532
744,91	14,316
745,10	27,484
745,29	11,820
745,48	15,656
745,67	18,737
745,86	10,094
746,05	18,721
746,24	29,412
746,43	25,296
746,62	12,442
746,81	18,265
747,00	12,109
747,18	24,615
747,37	12,367
747,56	13,034
747,75	23,195
747,94	25,383
748,13	26,027
748,32	20,726
748,51	26,411
748,70	16,547
748,89	19,082
749,08	17,714
749,26	16,229
749,45	24,941
749,64	19,107
749,83	9,924
750,02	15,470
750,21	19,648
750,40	19,010
750,59	26,415
750,78	26,331
750,96	13,687
751,15	19,399
751,34	27,487
751,53	21,675
751,72	23,989
751,91	23,562
752,10	16,049
752,29	20,621
752,47	23,876
752,66	19,155
752,85	21,672
753,04	27,445
753,23	12,252
753,42	24,012
753,61	24,837
753,80	19,783
753,98	35,088
754,17	20,245
754,36	25,424
754,55	19,122
754,74	25,145
754,93	26,225
755,12	27,467
755,30	16,343
755,49	38,226
755,68	36,311
755,87	12,913
756,06	24,860
756,25	38,095
756,43	26,207
756,62	32,641
756,81	18,812
757,00	23,768
757,19	25,000
757,38	36,593
757,56	20,645
757,75	27,124
757,94	28,707
758,13	26,623
758,32	22,348
758,51	25,368
758,69	20,000
758,88	31,231
759,07	27,957
759,26	34,884
759,45	18,341
759,63	31,970
759,82	26,936
760,01	8,027
760,20	22,179
760,39	29,478
760,57	35,537
760,76	15,766
760,95	25,000
761,14	31,020
761,33	32,813
761,51	32,258
761,70	37,586
761,89	21,721
762,08	43,256
762,27	37,363
762,45	44,358
762,64	23,077
762,83	45,575
763,02	24,651
763,21	31,466
763,39	40,816
763,58	26,038
763,77	29,730
763,96	47,390
764,14	49,583
764,33	27,839
764,52	44,635
764,71	15,695
764,89	37,255
765,08	41,379
765,27	31,970
765,46	33,696
765,65	29,694
765,83	36,364
766,02	34,894
766,21	41,436
766,40	28,095
766,58	36,179
766,77	44,776
766,96	47,273
767,15	34,300
767,33	23,392
767,52	62,195
767,71	27,826
767,90	39,888
768,08	53,696
768,27	37,500
768,46	40,625
768,64	60,622
768,83	28,646
769,02	65,000
769,21	44,105
769,39	43,605
769,58	50,867
769,77	45,211
769,96	46,073
770,14	29,932
770,33	40,654
770,52	8,995
770,70	33,333
770,89	79,195
771,08	48,305
771,27	76,289
771,45	53,070
771,64	64,062
771,83	49,065
772,01	28,313
772,20	58,291
772,39	36,667
772,57	37,984
772,76	43,704
772,95	44,681
773,14	65,054
773,32	49,677
773,51	61,692
773,70	78,125
773,88	75,410
774,07	60,733
774,26	61,702
774,44	37,805
774,63	53,299
774,82	50,000
775,00	41,333
775,19	24,000
775,38	73,988
775,56	49,479
775,75	47,590
775,94	49,367
776,12	54,696
776,31	58,235
776,50	47,727
776,68	67,368
776,87	56,818
777,06	77,241
777,24	56,667
777,43	61,538
777,62	70,588
777,80	39,865
777,99	51,429
778,18	59,406
778,36	85,600
778,55	59,504
778,74	47,222
778,92	52,663
779,11	76,667
779,29	50,314
779,48	52,381
779,67	54,264
779,85	58,537
780,04	67,027
780,23	46,763
780,41	64,063
780,60	30,000
780,79	61,582
780,97	59,211
781,16	47,273
781,34	77,320
781,53	62,393
781,72	64,234
781,90	48,437
782,09	44,516
782,28	81,022
782,46	57,037
782,65	48,571
782,83	111,236
783,02	48,750
783,21	86,667
783,39	57,391
783,58	81,657
783,76	63,687
783,95	56,364
784,14	54,967
784,32	42,953
784,51	116,379
784,69	62,712
784,88	123,423
785,06	77,311
785,25	85,987
785,44	58,273
785,62	106,429
785,81	132,394
785,99	102,158
786,18	81,081
786,37	28,148
786,55	59,633
786,74	40,789
786,92	92,188
787,11	61,667
787,29	17,910
787,48	57,333
787,67	153,012
787,85	63,793
788,04	60,891
788,22	69,672
788,41	123,529
788,59	107,339
788,78	63,636
788,96	67,925
789,15	95,789
789,34	93,636
789,52	91,150
789,71	45,736
789,89	159,574
790,08	77,397
790,26	41,429
790,45	61,364
790,63	121,296
790,82	75,758
791,00	68,750
791,19	93,548
791,38	86,111
791,56	85,088
791,75	96,330
791,93	63,218
792,12	66,272
792,30	91,200
792,49	47,899
792,67	80,597
792,86	62,791
793,04	87,850
793,23	64,167
793,41	96,203
793,60	89,899
793,78	103,509
793,97	60,256
794,15	90,909
794,34	74,725
794,52	55,844
794,71	124,691
794,89	80,000
795,08	81,553
795,26	65,556
795,45	129,851
795,63	83,333
795,82	65,421
796,00	66,972
796,19	104,167
796,37	79,562
796,56	118,280
796,74	104,425
796,93	130,337
797,11	102,532
797,30	90,833
797,48	57,241
797,67	94,167
797,85	80,612
798,04	101,042
798,22	78,571
798,41	91,176
798,59	90,526
798,77	107,692
798,96	83,871
799,14	116,379
799,33	84,733
799,51	106,154
799,70	73,154
799,88	125,758
800,07	72,368
800,25	83,448
800,44	79,798
800,62	68,235
800,80	105,797
800,99	149,206
801,17	67,241
801,36	70,345
801,54	72,917
801,73	68,687
801,91	67,213
802,10	144,048
802,28	135,514
802,46	80,247
802,65	95,402
802,83	121,348
803,02	85,263
803,20	100,781
803,39	46,552
803,57	93,976
803,75	73,649
803,94	57,983
804,12	41,667
804,31	83,186
804,49	77,885
804,67	74,400
804,86	64,286
805,04	90,541
805,23	71,724
805,41	74,590
805,59	56,557
805,78	56,061
805,96	89,103
806,15	114,844
806,33	101,681
806,51	100,885
806,70	135,000
806,88	54,472
807,07	84,921
807,25	68,553
807,43	77,483
807,62	67,480
807,80	90,323
807,99	92,857
808,17	98,582
808,35	77,193
808,54	86,022
808,72	73,600
808,90	102,632
809,09	113,333
809,27	77,477
809,46	133,036
809,64	79,412
809,82	34,483
810,01	93,939
810,19	90,000
810,37	53,077
810,56	102,439
810,74	62,252
810,92	60,606
811,11	198,039
811,29	70,213
811,48	103,030
811,66	72,868
811,84	104,587
812,03	62,727
812,21	52,564
812,39	110,169
812,58	62,745
812,76	75,701
812,94	95,333
813,13	42,857
813,31	75,000
813,49	123,913
813,68	56,522
813,86	78,571
814,04	109,709
814,23	130,303
814,41	56,618
814,59	62,147
814,78	101,471
814,96	79,279
815,14	66,667
815,33	90,580
815,51	76,296
815,69	77,778
815,87	78,261
816,06	91,875
816,24	85,430
816,42	58,333
816,61	77,119
816,79	118,072
816,97	83,784
817,16	41,935
817,34	62,069
817,52	70,345
817,70	121,429
817,89	37,190
818,07	77,586
818,25	79,279
818,44	57,558
818,62	50,000
818,80	76,224
818,98	115,238
819,17	42,308
819,35	77,059
819,53	98,020
819,72	56,395
819,90	86,228
820,08	38,961
820,26	94,737
820,45	79,518
820,63	61,979
820,81	65,101
820,99	69,925
821,18	52,593
821,36	63,810
821,54	37,791
821,73	67,027
821,91	60,106
822,09	77,059
822,27	37,563
822,46	63,125
822,64	64,238
822,82	57,073
823,00	57,658
823,19	28,788
823,37	68,571
823,55	48,824
823,73	66,000
823,91	45,304
824,10	70,950
824,28	44,444
824,46	38,372
824,64	61,765
824,83	45,528
825,01	59,420
825,19	55,429
825,37	45,833
825,56	53,750
825,74	69,048
825,92	66,292
826,10	80,124
826,28	73,826
826,47	55,285
826,65	74,324
826,83	34,409
827,01	43,182
827,19	42,405
827,38	53,368
827,56	62,500
827,74	53,252
827,92	46,829
828,10	57,609
828,29	73,333
828,47	54,386
828,65	62,162
828,83	29,798
829,01	69,333
829,20	29,114
829,38	36,929
829,56	48,583
829,74	69,697
829,92	51,546
830,10	48,198
830,29	42,162
830,47	42,187
830,65	33,929
830,83	28,571
831,01	60,833
831,20	37,624
831,38	36,098
831,56	38,866
831,74	61,143
831,92	47,727
832,10	55,455
832,29	57,346
832,47	46,018
832,65	56,170
832,83	46,047
833,01	37,154
833,19	41,629
833,37	50,000
833,56	55,399
833,74	40,081
833,92	41,593
834,10	48,223
834,28	20,000
834,46	50,519
834,64	47,266
834,83	27,645
835,01	40,856
835,19	29,384
835,37	46,614
835,55	54,513
835,73	47,794
835,91	33,977
836,09	26,971
836,28	42,366
836,46	34,386
836,64	56,967
836,82	29,104
837,00	52,381
837,18	47,431
837,36	34,759
837,54	41,667
837,72	23,108
837,91	34,137
838,09	25,200
838,27	46,154
838,45	39,482
838,63	24,746
838,81	40,461
838,99	43,902
839,17	47,573
839,35	33,704
839,53	32,886
839,72	30,932
839,90	18,845
840,08	33,654
840,26	37,224
840,44	22,531
840,62	28,283
840,80	17,593
840,98	31,722
841,16	12,100
841,34	22,029
841,52	34,824
841,70	30,303
841,89	40,323
842,07	39,459
842,25	28,571
842,43	28,065
842,61	37,534
842,79	29,878
842,97	29,573
843,15	47,278
843,33	26,366
843,51	29,356
843,69	20,000
843,87	21,294
844,05	21,833
844,23	25,135
844,41	29,899
844,59	18,466
844,77	11,816
844,95	26,942
845,13	30,601
845,31	32,402
845,50	27,320
845,68	25,130
845,86	32,547
846,04	25,185
846,22	24,344
846,40	18,898
846,58	20,375
846,76	22,943
846,94	25,962
847,12	23,460
847,30	32,719
847,48	31,894
847,66	25,610
847,84	28,680
848,02	29,314
848,20	36,865
848,38	18,697
848,56	25,161
848,74	27,479
848,92	16,284
849,10	28,348
849,28	29,630
849,46	9,813
849,64	24,524
849,82	27,644
850,00	16,632
850,18	24,942
850,36	27,193
850,54	28,027
850,72	23,701
850,90	26,764
851,08	11,111
851,26	21,457
851,44	19,076
851,62	24,062
851,80	23,857
851,98	25,309
852,16	26,749
852,34	27,704
852,52	16,103
852,70	8,032
852,87	26,667
853,05	22,244
853,23	21,569
853,41	15,542
853,59	19,057
853,77	24,206
853,95	16,314
854,13	19,806
854,31	17,277
854,49	13,226
854,67	20,677
854,85	24,174
855,03	10,345
855,21	19,797
855,39	14,933
855,57	22,645
855,75	18,887
855,93	11,661
856,11	25,997
856,28	14,236
856,46	18,137
856,64	16,828
856,82	14,834
857,00	14,360
857,18	17,214
857,36	24,034
857,54	21,284
857,72	13,356
857,90	13,839
858,08	16,358
858,26	12,691
858,44	12,112
858,61	10,572
858,79	15,659
858,97	11,175
859,15	15,830
859,33	16,411
859,51	9,585
859,69	16,369
859,87	18,741
860,05	17,992
860,23	10,758
860,40	15,207
860,58	12,356
860,76	14,548
860,94	14,962
861,12	10,623
861,30	16,826
861,48	14,589
861,66	18,722
861,84	9,637
862,01	16,979
862,19	20,461
862,37	12,974
862,55	11,421
862,73	13,451
862,91	11,506
863,09	16,125
863,27	10,306
863,44	10,199
863,62	6,311
863,80	12,485
863,98	14,687
864,16	9,125
864,34	11,948
864,52	14,920
864,69	13,855
864,87	11,919
865,05	8,752
865,23	13,889
865,41	8,820
865,59	14,833
865,76	10,594
865,94	10,162
866,12	10,985
866,30	6,012
866,48	12,219
866,66	15,944
866,83	13,786
867,01	11,737
867,19	5,487
867,37	8,764
867,55	9,440
867,73	10,706
867,90	13,285
868,08	12,854
868,26	8,666
868,44	9,657
868,62	12,435
868,79	6,818
868,97	10,874
869,15	11,359
869,33	9,151
869,51	9,979
869,69	8,863
869,86	10,359
870,04	12,804
870,22	6,764
870,40	9,596
870,57	11,900
870,75	11,303
870,93	10,718
871,11	11,089
871,29	8,130
871,46	7,150
871,64	6,825
871,82	11,707
872,00	14,936
872,18	13,815
872,35	11,052
872,53	13,233
872,71	9,047
872,89	8,526
873,06	9,686
873,24	8,640
873,42	4,659
873,60	6,520
873,77	10,587
873,95	8,175
874,13	10,018
874,31	7,130
874,49	10,113
874,66	8,591
874,84	6,927
875,02	8,706
875,20	9,091
875,37	6,388
875,55	9,145
875,73	8,887
875,91	7,969
876,08	8,838
876,26	6,744
876,44	9,026
876,61	11,298
876,79	7,087
876,97	9,505
877,15	11,069
877,32	13,071
877,50	10,619
877,68	10,156
877,86	11,683
878,03	12,126
878,21	10,029
878,39	9,407
878,56	12,094
878,74	7,231
878,92	7,938
879,10	10,429
879,27	10,194
879,45	12,994
879,63	11,178
879,80	12,984
879,98	11,103
880,16	11,965
880,34	9,318
880,51	11,030
880,69	13,596
880,87	10,378
881,04	8,511
881,22	14,822
881,40	10,181
881,57	10,122
881,75	11,607
881,93	10,181
882,10	13,517
882,28	11,139
882,46	12,913
882,63	14,447
882,81	12,241
882,99	12,960
883,16	11,520
883,34	10,548
883,52	8,696
883,69	13,002
883,87	12,729
884,05	8,924
884,22	8,606
884,40	10,647
884,58	10,223
884,75	9,342
884,93	11,675
885,11	11,317
885,28	9,524
885,46	12,047
885,64	9,634
885,81	12,704
885,99	9,614
886,17	10,990
886,34	11,484
886,52	10,306
886,70	9,155
886,87	9,736
887,05	9,909
887,22	10,200
887,40	12,367
887,58	10,100
887,75	11,216
887,93	12,062
888,11	8,057
888,28	10,194
888,46	9,689
888,63	11,392
888,81	9,420
888,99	8,436
889,16	8,036
889,34	11,852
889,51	9,100
889,69	10,484
889,87	8,929
890,04	9,148
890,22	9,691
890,39	6,767
890,57	10,143
890,75	10,603
890,92	8,159
891,10	10,888
891,27	7,582
891,45	8,250
891,63	9,237
891,80	8,533
891,98	9,049
892,15	7,403
892,33	7,505
892,51	7,571
892,68	6,018
892,86	7,188
893,03	8,385
893,21	7,717
893,38	7,064
893,56	7,450
893,74	7,686
893,91	8,829
894,09	7,298
894,26	8,229
894,44	7,998
894,61	5,553
894,79	6,659
894,96	7,220
895,14	6,682
895,32	8,223
895,49	7,403
895,67	5,956
895,84	7,544
896,02	7,438
896,19	5,889
896,37	8,829
896,54	6,370
896,72	5,969
896,89	8,742
897,07	5,747
897,25	8,033
897,42	7,114
897,60	8,193
897,77	8,922
897,95	5,952
898,12	6,369
898,30	7,100
898,47	6,648
898,65	7,503
898,82	5,868
899,00	7,188
899,17	8,176
899,35	7,636
899,52	5,925
899,70	7,434
899,87	7,325
900,05	8,471
900,22	8,729
900,40	6,844
900,57	8,373
900,75	6,648
900,92	7,914
901,10	9,067
901,27	8,677
901,45	9,481
901,62	6,824
901,80	9,707
901,97	8,368
902,15	9,451
902,32	8,886
902,50	8,493
902,67	7,806
902,85	8,839
903,02	9,045
903,20	8,431
903,37	9,282
903,54	10,893
903,72	8,523
903,89	11,107
904,07	10,042
904,24	8,609
904,42	7,639
904,59	8,605
904,77	8,536
904,94	9,348
905,12	8,836
905,29	10,281
905,47	10,202
905,64	10,016
905,81	9,450
905,99	10,078
906,16	10,301
906,34	10,857
906,51	8,254
906,69	8,631
906,86	10,041
907,03	8,952
907,21	9,194
907,38	8,200
907,56	9,461
907,73	9,229
907,91	9,803
908,08	8,422
908,25	8,839
908,43	10,286
908,60	9,700
908,78	11,495
908,95	10,339
909,13	9,457
909,30	8,541
909,47	10,282
909,65	9,957
909,82	10,997
910,00	10,324
910,17	9,214
910,34	9,726
910,52	10,767
910,69	10,734
910,87	10,469
911,04	9,263
911,21	10,064
911,39	8,754
911,56	10,420
911,73	10,994
911,91	10,575
912,08	11,031
912,26	8,736
912,43	10,397
912,60	10,568
912,78	10,495
912,95	10,279
913,13	10,948
913,30	8,699
913,47	10,593
913,65	8,715
913,82	10,037
913,99	9,535
914,17	9,214
914,34	10,124
914,51	10,823
914,69	10,117
914,86	11,151
915,03	9,812
915,21	9,646
915,38	10,107
915,56	9,710
915,73	8,598
915,90	9,827
916,08	9,598
916,25	9,458
916,42	9,311
916,60	8,295
916,77	10,040
916,94	9,739
917,12	10,363
917,29	10,056
917,46	8,811
917,64	9,457
917,81	8,884
917,98	8,423
918,16	8,518
918,33	8,278
918,50	8,741
918,67	9,624
918,85	9,543
919,02	8,236
919,19	9,702
919,37	9,110
919,54	9,191
919,71	8,740
919,89	7,692
920,06	8,752
920,23	7,963
920,41	9,169
920,58	8,803
920,75	8,120
920,92	8,360
921,10	7,773
921,27	7,334
921,44	9,053
921,62	7,896
921,79	7,282
921,96	7,566
922,13	7,411
922,31	7,961
922,48	8,418
922,65	8,292
922,82	8,189
923,00	8,027
923,17	7,054
923,34	8,194
923,52	7,818
923,69	7,073
923,86	7,793
924,03	7,372
924,21	7,128
924,38	8,174
924,55	8,732
924,72	9,130
924,90	7,053
925,07	7,469
925,24	7,762
925,41	7,293
925,59	7,760
925,76	7,304
925,93	6,937
926,10	7,925
926,28	6,735
926,45	7,656
926,62	7,146
926,79	7,636
926,96	7,703
927,14	7,663
927,31	7,382
927,48	7,504
927,65	7,526
927,83	6,822
928,00	6,648
928,17	6,439
928,34	7,544
928,51	7,291
928,69	7,122
928,86	7,505
929,03	6,691
929,20	6,808
929,37	7,067
929,55	6,899
929,72	7,336
929,89	6,977
930,06	7,086
930,23	7,853
930,41	7,100
930,58	7,390
930,75	8,460
930,92	7,203
931,09	7,719
931,27	7,198
931,44	7,132
931,61	7,786
931,78	7,087
931,95	7,029
932,12	8,287
932,30	7,583
932,47	8,208
932,64	8,020
932,81	7,784
932,98	8,500
933,16	8,550
933,33	8,157
933,50	7,688
933,67	9,335
933,84	8,716
934,01	8,329
934,18	9,010
934,36	8,851
934,53	8,597
934,70	9,527
934,87	9,451
935,04	9,391
935,21	9,007
935,38	8,673
935,56	8,596
935,73	8,559
935,90	7,899
936,07	9,982
936,24	10,549
936,41	9,851
936,58	8,676
936,76	10,263
936,93	9,610
937,10	9,451
937,27	8,720
937,44	9,034
937,61	10,353
937,78	8,815
937,95	9,210
938,13	9,669
938,30	9,314
938,47	10,522
938,64	10,961
938,81	10,543
938,98	9,232
939,15	10,784
939,32	9,935
939,49	10,632
939,66	11,274
939,84	10,994
940,01	11,241
940,18	11,330
940,35	10,843
940,52	9,890
940,69	10,592
940,86	10,958
941,03	10,682
941,20	10,774
941,37	11,520
941,54	9,427
941,71	9,301
941,89	10,972
942,06	10,145
942,23	10,962
942,40	10,653
942,57	10,488
942,74	10,704
942,91	10,480
943,08	12,082
943,25	10,915
943,42	10,595
943,59	10,861
943,76	11,576
943,93	10,565
944,10	10,356
944,27	10,761
944,44	10,032
944,61	10,505
944,79	11,479
944,96	11,660
945,13	10,274
945,30	11,096
945,47	10,717
945,64	11,419
945,81	11,548
945,98	11,607
946,15	12,512
946,32	10,860
946,49	10,588
946,66	10,961
946,83	11,684
947,00	11,459
947,17	12,146
947,34	11,240
947,51	11,748
947,68	12,194
947,85	12,081
948,02	12,847
948,19	13,057
948,36	15,178
948,53	14,524
948,70	14,334
948,87	15,753
949,04	12,021
949,21	15,720
949,38	15,938
949,55	13,931
949,72	14,975
949,89	15,983
950,06	14,669
950,23	14,983
950,40	15,583
950,57	14,905
950,74	17,168
950,91	16,569
951,08	19,257
951,25	18,218
951,42	19,369
951,59	17,749
951,76	18,139
951,93	21,882
952,10	18,666
952,27	19,131
952,44	20,962
952,61	20,516
952,77	22,199
952,94	23,159
953,11	23,413
953,28	23,825
953,45	24,459
953,62	23,277
953,79	23,673
953,96	24,951
954,13	23,539
954,30	25,883
954,47	27,156
954,64	25,333
954,81	26,629
954,98	26,339
955,15	26,831
955,32	27,874
955,49	30,088
955,65	30,857
955,82	31,071
955,99	30,682
956,16	33,377
956,33	30,126
956,50	29,399
956,67	31,793
956,84	34,000
957,01	33,619
957,18	31,798
957,35	33,463
957,52	32,047
957,68	35,667
957,85	36,170
958,02	31,697
958,19	34,291
958,36	38,652
958,53	37,696
958,70	33,394
958,87	36,497
959,04	39,325
959,21	41,919
959,37	42,965
959,54	40,243
959,71	38,717
959,88	39,297
960,05	37,528
960,22	36,331
960,39	47,467
960,56	34,557
960,72	40,151
960,89	46,008
961,06	43,057
961,23	45,415
961,40	45,743
961,57	37,803
961,74	37,500
961,90	42,813
962,07	50,533
962,24	44,228
962,41	46,231
962,58	47,332
962,75	42,124
962,92	51,776
963,08	45,091
963,25	45,045
963,42	47,343
963,59	55,785
963,76	54,831
963,93	48,970
964,10	51,392
964,26	55,044
964,43	56,848
964,60	55,440
964,77	53,253
964,94	45,455
965,10	72,619
965,27	62,141
965,44	57,143
965,61	56,198
965,78	62,300
965,95	60,479
966,11	60,681
966,28	64,312
966,45	67,913
966,62	47,692
966,79	73,469
966,95	50,149
967,12	58,991
967,29	69,792
967,46	64,015
967,63	73,208
967,79	79,730
967,96	64,069
968,13	57,500
968,30	72,177
968,47	70,447
968,63	74,324
968,80	90,826
968,97	75,481
969,14	84,884
969,31	61,667
969,47	57,647
969,64	87,374
969,81	72,539
969,98	89,560
970,14	81,595
970,31	86,164
970,48	93,333
970,65	107,692
970,81	78,082
970,98	107,299
971,15	84,694
971,32	95,313
971,48	86,395
971,65	101,538
971,82	148,039
971,99	97,701
972,15	118,310
972,32	141,441
972,49	112,587
972,66	147,273
972,82	152,326
972,99	107,317
973,16	95,402
973,33	104,464
973,49	143,158
973,66	168,817
973,83	133,981
974,00	160,465
974,16	108,824
974,33	141,228
974,50	104,211
974,67	116,842
974,83	102,381
975,00	111,579
975,17	134,066
975,33	144,944
975,50	210,448
975,67	257,143
975,84	150,746
976,00	137,079
976,17	204,918
976,34	72,000
976,50	151,685
976,67	95,146
976,84	2800,000
977,00	193,878
977,17	266,667
977,34	153,846
977,50	168,657
977,67	182,143
977,84	151,613
978,01	208,511
978,17	500,000
978,34	341,667
978,51	176,471
978,67	193,421
978,84	133,594
979,01	345,946
979,17	189,744
979,34	88,356
979,51	236,735
979,67	174,074
979,84	240,816
980,01	255,556
980,17	246,479
980,34	314,815
980,51	208,696
980,67	175,294
980,84	523,333
981,01	560,000
981,17	636,000
981,34	1055,556
981,50	150,000
981,67	176,271
981,84	4800,000
982,00	426,667
982,17	259,524
982,34	138,889
982,50	653,333
982,67	137,500
982,84	2340,000
983,00	1550,000
983,17	210,448
983,33	203,448
983,50	1120,000
983,67	-265,517
983,83	287,879
984,00	-1000,000
984,17	411,111
984,33	-5500,000
984,50	314,286
984,66	241,304
984,83	175,325
985,00	-362,500
985,16	489,655
985,33	505,882
985,49	505,556
985,66	429,412
985,83	291,304
985,99	353,846
986,16	-2500,000
986,32	564,286
986,49	6500,000
986,66	209,091
986,82	716,667
986,99	158,491
987,15	-394,737
987,32	-153,571
987,49	186,000
987,65	4950,000
987,82	466,667
987,98	195,918
988,15	333,333
988,31	820,000
988,48	-1883,333
988,65	202,381
988,81	347,222
988,98	280,488
989,14	366,667
989,31	528,571
989,47	288,235
989,64	-807,692
989,80	737,500
989,97	340,541
990,14	-241,304
990,30	-472,727
990,47	308,163
990,63	311,111
990,80	242,000
990,96	-505,000
991,13	350,000
991,29	448,276
991,46	0,000
991,62	-776,923
991,79	883,333
991,95	7100,000
992,12	-1180,000
992,29	-443,750
992,45	157,647
992,62	293,023
992,78	238,636
992,95	-346,667
993,11	435,714
993,28	920,000
993,44	-870,000
993,61	-631,250
993,77	-2200,000
993,94	-3466,667
994,10	-66,667
994,27	731,579
994,43	327,907
994,60	0,000
994,76	1900,000
994,93	395,000
995,09	-529,412
995,26	811,111
995,42	250,980
995,59	628,571
995,75	769,231
995,92	1214,286
996,08	372,222
996,25	-875,000
996,41	-8050,000
996,58	666,667
996,74	311,364
996,91	320,690
997,07	0,000
997,23	12500,000
997,40	-16800,000
997,56	-407,692
997,73	-1450,000
997,89	405,263
998,06	846,154
998,22	-538,889
998,39	512,000
998,55	1444,444
998,72	-1200,000
998,88	-296,667
999,05	-92,308
999,21	261,905
999,37	-486,667
999,54	-933,333
999,70	-250,000
999,87	675,000
1000,03	379,487
1000,20	266,667
1000,36	0,000
1000,52	362,500
1000,69	-347,619
1000,85	-640,000
1001,02	-329,167
1001,18	2325,000
1001,35	761,538
1001,51	564,706
1001,67	-615,385
1001,84	-2620,000
1002,00	286,486
1002,17	836,364
1002,33	-1925,000
1002,50	509,524
1002,66	-638,462
1002,82	182,500
1002,99	821,429
1003,15	-1514,286
1003,32	-727,273
1003,48	403,571
1003,64	740,000
1003,81	437,037
1003,97	-6300,000
1004,14	890,909
1004,30	343,333
1004,46	-453,333
1004,63	585,714
1004,79	302,778
1004,95	800,000
1005,12	5050,000
1005,28	413,793
1005,45	372,973
1005,61	372,414
1005,77	-152,083
1005,94	-280,952
1006,10	-4300,000
1006,26	1023,077
1006,43	-280,769
1006,59	-636,364
1006,76	685,714
1006,92	1366,667
1007,08	12100,000
1007,25	-348,148
1007,41	437,931
1007,57	3700,000
1007,74	860,000
1007,90	-334,483
1008,06	221,739
1008,23	770,588
1008,39	-412,500
1008,55	-257,692
1008,72	-1200,000
1008,88	0,000
1009,04	312,195
1009,21	-271,053
1009,37	-858,333
1009,53	261,905
1009,70	1900,000
1009,86	-642,857
1010,02	2900,000
1010,19	972,727
1010,35	230,882
1010,51	-5150,000
1010,68	-1150,000
1010,84	-209,091
1011,00	387,500
1011,17	-277,273
1011,33	0,000
1011,49	-806,667
1011,66	907,143
1011,82	390,323
1011,98	835,714
1012,14	-854,545
1012,31	356,410
1012,47	0,000
1012,63	1300,000
1012,80	714,286
1012,96	-706,250
1013,12	-1883,333
1013,29	550,000
1013,45	385,366
1013,61	4300,000
1013,77	-92,857
1013,94	2280,000
1014,10	164,407
1014,26	-1175,000
1014,43	-244,000
1014,59	400,000
1014,75	-627,778
1014,91	-520,000
1015,08	383,333
1015,24	7500,000
1015,40	388,235
1015,56	-8700,000
1015,73	238,095
1015,89	972,727
1016,05	4150,000
1016,21	-687,500
1016,38	505,263
1016,54	953,846
1016,70	-2466,667
1016,86	375,000
1017,03	1056,250
1017,19	-592,308
1017,35	-600,000
1017,51	-1740,000
1017,68	-800,000
1017,84	-1614,286
1018,00	247,619
1018,16	330,769
1018,33	-1285,714
1018,49	-683,333
1018,65	-318,919
1018,81	176,923
1018,97	-1514,286
1019,14	-2800,000
1019,30	-233,333
1019,46	0,000
1019,62	-476,471
1019,79	-2766,667
1019,95	983,333
1020,11	6150,000
1020,27	-381,481
1020,43	-288,462
1020,60	1433,333
1020,76	761,111
1020,92	633,333
1021,08	555,000
1021,24	1070,000
1021,41	1022,222
1021,57	1375,000
1021,73	776,923
1021,89	2400,000
1022,05	-335,714
1022,21	530,000
1022,38	-416,667
1022,54	-1633,333
1022,70	275,556
1022,86	-1337,500
1023,02	345,833
1023,19	1340,000
1023,35	4000,000
1023,51	500,000
1023,67	248,148
1023,83	-687,500
1023,99	257,895
1024,16	-342,308
1024,32	-755,556
1024,48	-840,000
1024,64	319,048
1024,80	500,000
1024,96	330,769
1025,12	409,524
1025,29	361,905
1025,45	257,895
1025,61	522,222
1025,77	-1760,000
1025,93	-6900,000
1026,09	-1271,429
1026,26	416,667
1026,42	556,250
1026,58	345,455
1026,74	1666,667
1026,90	424,000
1027,06	275,000
1027,22	964,286
1027,38	280,769
1027,55	2366,667
1027,71	700,000
1027,87	-296,000
1028,03	1070,000
1028,19	365,625
1028,35	655,000
1028,51	780,000
1028,67	950,000
1028,83	-850,000
1029,00	-204,762
1029,16	740,000
1029,32	-317,857
1029,48	295,556
1029,64	280,556
1029,80	5300,000
1029,96	613,333
1030,12	504,348
1030,28	-2633,333
1030,44	-361,538
1030,61	-466,667
1030,77	-85,714
1030,93	-653,333
1031,09	1266,667
1031,25	-7400,000
1031,41	-220,000
1031,57	376,923
1031,73	650,000
1031,89	-1327,273
1032,05	-292,593
1032,21	745,455
1032,37	-155,556
1032,53	-914,286
1032,69	-291,667
1032,86	377,778
1033,02	-165,000
1033,18	-512,500
1033,34	405,263
1033,50	-4250,000
1033,66	-151,220
1033,82	426,087
1033,98	-103,704
1034,14	183,333
1034,30	229,032
1034,46	-2166,667
1034,62	585,000
1034,78	-614,286
1034,94	297,368
1035,10	-384,615
1035,26	-127,907
1035,42	-206,897
1035,58	-416,667
1035,74	841,667
1035,90	-407,692
1036,06	-1450,000
1036,22	1300,000
1036,38	-517,647
1036,54	-404,167
1036,70	-142,424
1036,86	9200,000
1037,02	522,222
1037,18	652,632
1037,34	140,000
1037,50	-100,000
1037,66	-300,000
1037,82	2380,000
1037,98	-292,593
1038,14	-348,000
1038,30	-1275,000
1038,46	-492,857
1038,62	443,478
1038,78	-2100,000
1038,94	-478,947
1039,10	381,818
1039,26	366,667
1039,42	-608,333
1039,58	885,714
1039,74	-300,000
1039,90	190,625
1040,06	-169,231
>>>>>End Processed Spectral Data<<<<<
