SpectraSuite Data File
++++++++++++++++++++++++++++++++++++
Date: Wed Feb 01 15:44:14 EET 2017
User: optolab
Dark Spectrum Present: Yes
Reference Spectrum Present: Yes
Number of Sampled Component Spectra: 1
Spectrometers: USB4C02475
Integration Time (usec): 100000 (USB4C02475)
Spectra Averaged: 1 (USB4C02475)
Boxcar Smoothing: 0 (USB4C02475)
Correct for Electrical Dark: No (USB4C02475)
Strobe/Lamp Enabled: No (USB4C02475)
Correct for Detector Non-linearity: No (USB4C02475)
Correct for Stray Light: No (USB4C02475)
Number of Pixels in Processed Spectrum: 3648
>>>>>Begin Processed Spectral Data<<<<<
344,91	2250,000
345,13	2250,000
345,35	2250,000
345,57	0,000
345,79	289,474
346,00	-1533,333
346,22	-1828,571
346,44	473,529
346,66	-575,000
346,87	-11000,000
347,09	348,485
347,31	-404,545
347,53	-300,000
347,74	212,308
347,96	360,606
348,18	742,105
348,40	425,806
348,61	870,588
348,83	259,524
349,05	245,098
349,27	-4650,000
349,48	680,769
349,70	-241,379
349,92	245,161
350,14	152,830
350,35	272,000
350,57	2750,000
350,79	408,000
351,01	-566,667
351,22	235,185
351,44	776,923
351,66	-252,000
351,87	-342,857
352,09	248,077
352,31	218,033
352,53	232,813
352,74	327,778
352,96	211,688
353,18	710,526
353,40	416,000
353,61	375,556
353,83	182,353
354,05	754,545
354,26	1916,667
354,48	218,000
354,70	363,636
354,92	-172,414
355,13	178,788
355,35	279,545
355,57	479,167
355,78	184,337
356,00	-2075,000
356,22	446,154
356,44	4350,000
356,65	275,000
356,87	546,154
357,09	475,000
357,30	188,889
357,52	248,276
357,74	630,000
357,95	348,718
358,17	204,918
358,39	235,484
358,60	275,676
358,82	450,000
359,04	366,667
359,26	357,143
359,47	6700,000
359,69	212,500
359,91	296,970
360,12	461,905
360,34	437,500
360,56	-101,852
360,77	2275,000
360,99	466,667
361,21	302,000
361,42	5300,000
361,64	212,245
361,86	223,077
362,07	-493,548
362,29	168,000
362,51	-370,588
362,72	452,000
362,94	276,471
363,16	179,070
363,37	-850,000
363,59	488,462
363,81	284,091
364,02	722,222
364,24	491,667
364,46	2733,333
364,67	654,545
364,89	1657,143
365,11	212,857
365,32	389,655
365,54	241,667
365,76	232,653
365,97	338,235
366,19	127,586
366,41	677,273
366,62	300,000
366,84	218,605
367,05	314,286
367,27	1650,000
367,49	-507,692
367,70	623,529
367,92	162,295
368,14	237,500
368,35	-7800,000
368,57	344,000
368,79	386,207
369,00	263,043
369,22	-1337,500
369,43	157,647
369,65	243,548
369,87	362,162
370,08	124,096
370,30	260,714
370,51	231,148
370,73	180,000
370,95	206,452
371,16	195,238
371,38	286,667
371,60	837,500
371,81	173,437
372,03	906,667
372,24	336,667
372,46	196,226
372,68	142,857
372,89	254,545
373,11	292,308
373,32	370,455
373,54	-692,308
373,76	653,846
373,97	580,000
374,19	590,909
374,40	262,500
374,62	-3233,333
374,84	3050,000
375,05	464,286
375,27	332,000
375,48	-7500,000
375,70	181,333
375,92	192,857
376,13	287,500
376,35	193,151
376,56	912,500
376,78	213,889
376,99	435,714
377,21	175,000
377,43	213,636
377,64	153,623
377,86	368,966
378,07	233,333
378,29	-1187,500
378,51	438,710
378,72	227,083
378,94	-511,111
379,15	269,697
379,37	582,353
379,58	167,692
379,80	493,333
380,01	487,500
380,23	172,549
380,45	2040,000
380,66	3466,667
380,88	159,091
381,09	228,571
381,31	114,444
381,52	268,627
381,74	1277,778
381,95	640,909
382,17	457,692
382,39	485,714
382,60	138,776
382,82	320,513
383,03	238,462
383,25	406,452
383,46	188,636
383,68	351,852
383,89	645,000
384,11	306,452
384,32	-3300,000
384,54	427,778
384,76	-3433,333
384,97	248,485
385,19	362,069
385,40	217,647
385,62	154,386
385,83	264,286
386,05	203,922
386,26	284,000
386,48	179,310
386,69	241,667
386,91	470,000
387,12	191,525
387,34	213,793
387,55	167,742
387,77	378,125
387,98	273,077
388,20	140,217
388,41	364,706
388,63	7700,000
388,84	168,852
389,06	252,381
389,27	573,684
389,49	350,000
389,70	261,224
389,92	230,000
390,13	165,306
390,35	227,451
390,56	185,185
390,78	425,926
390,99	1270,000
391,21	584,211
391,42	244,444
391,64	251,220
391,85	172,414
392,07	152,273
392,28	130,667
392,50	236,364
392,71	-812,500
392,93	200,000
393,14	350,000
393,36	265,306
393,57	134,586
393,79	477,778
394,00	244,681
394,22	126,027
394,43	157,831
394,65	125,581
394,86	987,500
395,08	385,714
395,29	171,698
395,50	292,308
395,72	527,778
395,93	566,667
396,15	173,239
396,36	151,471
396,58	208,333
396,79	202,500
397,01	206,000
397,22	205,556
397,44	180,303
397,65	128,070
397,87	221,429
398,08	246,939
398,29	268,750
398,51	196,429
398,72	251,220
398,94	161,538
399,15	228,571
399,37	182,456
399,58	150,549
399,80	468,182
400,01	205,556
400,22	380,952
400,44	169,136
400,65	353,571
400,87	186,765
401,08	160,000
401,30	165,217
401,51	161,404
401,72	261,538
401,94	181,013
402,15	485,000
402,37	130,252
402,58	550,000
402,80	231,429
403,01	205,634
403,22	600,000
403,44	197,101
403,65	182,143
403,87	137,143
404,08	325,641
404,30	181,176
404,51	-2200,000
404,72	135,714
404,94	105,882
405,15	102,000
405,37	184,810
405,58	165,882
405,79	151,220
406,01	221,951
406,22	203,448
406,44	223,404
406,65	154,386
406,86	75,000
407,08	124,051
407,29	133,010
407,51	107,317
407,72	170,370
407,93	130,435
408,15	98,291
408,36	141,860
408,58	131,959
408,79	66,667
409,00	118,750
409,22	160,317
409,43	121,519
409,64	64,596
409,86	68,553
410,07	83,846
410,29	83,582
410,50	92,908
410,71	75,000
410,93	88,535
411,14	110,078
411,35	72,024
411,57	82,895
411,78	88,281
412,00	64,331
412,21	67,742
412,42	73,545
412,64	55,794
412,85	56,701
413,06	64,634
413,28	46,396
413,49	58,294
413,70	60,145
413,92	67,984
414,13	34,855
414,34	63,985
414,56	36,364
414,77	64,557
414,98	38,926
415,20	50,173
415,41	54,674
415,63	43,035
415,84	44,167
416,05	48,626
416,27	27,649
416,48	38,764
416,69	48,894
416,91	34,324
417,12	36,096
417,33	39,158
417,55	35,211
417,76	42,094
417,97	38,797
418,19	31,213
418,40	42,340
418,61	27,407
418,83	28,364
419,04	18,612
419,25	26,791
419,46	25,714
419,68	19,048
419,89	22,206
420,10	20,136
420,32	18,680
420,53	20,152
420,74	16,518
420,96	19,250
421,17	16,166
421,38	17,628
421,60	13,576
421,81	13,212
422,02	12,017
422,23	12,113
422,45	14,719
422,66	16,667
422,87	15,083
423,09	14,774
423,30	11,624
423,51	14,016
423,73	11,853
423,94	13,796
424,15	12,517
424,36	10,338
424,58	12,437
424,79	13,117
425,00	11,146
425,22	9,277
425,43	7,016
425,64	8,011
425,85	6,964
426,07	6,428
426,28	3,654
426,49	3,355
426,71	6,505
426,92	3,540
427,13	3,297
427,34	2,834
427,56	3,388
427,77	4,062
427,98	4,633
428,19	3,292
428,41	4,346
428,62	3,252
428,83	4,034
429,04	5,329
429,26	4,105
429,47	3,327
429,68	2,474
429,89	2,210
430,11	2,637
430,32	3,274
430,53	3,422
430,74	2,517
430,96	1,603
431,17	1,333
431,38	1,830
431,59	2,477
431,81	3,160
432,02	2,552
432,23	2,721
432,44	2,379
432,66	2,870
432,87	1,712
433,08	2,303
433,29	3,026
433,51	1,382
433,72	2,534
433,93	0,620
434,14	2,274
434,35	1,227
434,57	1,660
434,78	0,853
434,99	2,218
435,20	1,277
435,42	1,307
435,63	1,012
435,84	1,653
436,05	1,845
436,26	1,099
436,48	1,107
436,69	1,042
436,90	0,890
437,11	1,166
437,32	0,948
437,54	1,338
437,75	1,183
437,96	1,433
438,17	0,765
438,38	1,440
438,60	1,438
438,81	0,846
439,02	1,196
439,23	0,633
439,44	0,988
439,66	1,055
439,87	1,409
440,08	0,770
440,29	0,940
440,50	0,962
440,72	0,541
440,93	0,924
441,14	1,048
441,35	0,888
441,56	0,662
441,77	0,981
441,99	0,915
442,20	0,736
442,41	0,630
442,62	0,525
442,83	1,052
443,04	0,679
443,26	0,799
443,47	0,923
443,68	0,609
443,89	0,878
444,10	0,750
444,31	0,843
444,53	0,799
444,74	0,747
444,95	0,856
445,16	0,676
445,37	0,870
445,58	0,772
445,80	0,673
446,01	0,718
446,22	0,669
446,43	0,900
446,64	0,799
446,85	0,725
447,06	0,825
447,28	0,562
447,49	0,898
447,70	0,987
447,91	1,114
448,12	1,241
448,33	1,335
448,54	1,491
448,76	2,110
448,97	2,241
449,18	2,203
449,39	2,883
449,60	3,141
449,81	3,532
450,02	4,296
450,23	4,617
450,45	4,879
450,66	5,666
450,87	6,140
451,08	6,780
451,29	7,775
451,50	8,046
451,71	9,251
451,92	9,735
452,13	10,376
452,35	11,636
452,56	12,825
452,77	14,493
452,98	15,317
453,19	17,413
453,40	18,416
453,61	20,263
453,82	20,868
454,03	23,050
454,25	24,114
454,46	25,145
454,67	26,347
454,88	26,097
455,09	27,511
455,30	27,971
455,51	28,519
455,72	29,230
455,93	29,458
456,14	29,590
456,35	30,161
456,56	30,255
456,78	30,483
456,99	30,587
457,20	30,212
457,41	28,934
457,62	29,328
457,83	28,287
458,04	27,528
458,25	26,255
458,46	26,069
458,67	25,492
458,88	24,851
459,09	24,263
459,30	23,515
459,51	22,893
459,73	22,515
459,94	22,792
460,15	23,113
460,36	22,562
460,57	23,122
460,78	24,367
460,99	24,737
461,20	26,271
461,41	27,658
461,62	28,893
461,83	30,662
462,04	32,520
462,25	34,607
462,46	35,286
462,67	38,107
462,88	39,265
463,09	41,094
463,30	42,912
463,51	44,311
463,72	43,954
463,93	44,119
464,15	44,653
464,36	44,458
464,57	44,357
464,78	43,978
464,99	42,777
465,20	42,268
465,41	40,663
465,62	39,793
465,83	38,719
466,04	38,157
466,25	36,820
466,46	36,437
466,67	36,333
466,88	36,868
467,09	36,941
467,30	37,959
467,51	38,834
467,72	40,309
467,93	41,916
468,14	42,438
468,35	44,033
468,56	45,070
468,77	46,334
468,98	46,633
469,19	47,134
469,40	47,713
469,61	48,721
469,82	48,080
470,03	49,646
470,24	50,451
470,45	50,120
470,66	50,343
470,87	51,238
471,08	51,242
471,29	51,252
471,50	51,810
471,71	50,868
471,92	50,898
472,13	51,242
472,34	51,237
472,55	50,715
472,76	50,549
472,97	49,714
473,18	50,100
473,39	50,038
473,60	50,438
473,81	50,246
474,01	49,965
474,22	49,542
474,43	48,729
474,64	49,013
474,85	48,100
475,06	47,892
475,27	46,574
475,48	46,726
475,69	44,583
475,90	44,672
476,11	43,654
476,32	43,117
476,53	43,309
476,74	42,331
476,95	41,339
477,16	42,005
477,37	41,352
477,58	41,670
477,79	41,222
478,00	41,241
478,21	41,220
478,41	39,951
478,62	40,060
478,83	39,636
479,04	39,594
479,25	38,035
479,46	37,937
479,67	38,145
479,88	37,907
480,09	37,529
480,30	37,871
480,51	37,749
480,72	36,622
480,93	36,965
481,14	37,020
481,34	37,371
481,55	37,006
481,76	36,874
481,97	37,098
482,18	37,578
482,39	37,597
482,60	37,453
482,81	37,959
483,02	37,712
483,23	39,071
483,44	39,240
483,65	39,559
483,85	39,858
484,06	40,761
484,27	40,270
484,48	40,806
484,69	40,636
484,90	41,223
485,11	41,299
485,32	41,866
485,53	41,566
485,73	42,324
485,94	42,234
486,15	42,241
486,36	43,094
486,57	42,733
486,78	42,689
486,99	42,255
487,20	42,389
487,41	42,948
487,61	42,513
487,82	42,678
488,03	42,325
488,24	42,798
488,45	42,119
488,66	42,208
488,87	42,334
489,08	42,266
489,28	41,592
489,49	41,268
489,70	41,188
489,91	40,110
490,12	39,351
490,33	38,076
490,54	36,781
490,74	36,162
490,95	34,573
491,16	33,253
491,37	32,373
491,58	30,250
491,79	28,265
492,00	27,438
492,20	26,180
492,41	24,048
492,62	23,345
492,83	21,186
493,04	19,458
493,25	18,223
493,45	16,835
493,66	15,650
493,87	13,954
494,08	12,657
494,29	11,542
494,50	10,720
494,70	9,979
494,91	9,549
495,12	8,972
495,33	8,370
495,54	8,002
495,75	7,408
495,95	7,043
496,16	6,329
496,37	5,801
496,58	5,297
496,79	4,713
496,99	4,178
497,20	3,380
497,41	3,172
497,62	2,459
497,83	2,106
498,04	1,622
498,24	1,280
498,45	0,959
498,66	0,844
498,87	0,800
499,08	0,633
499,28	0,743
499,49	0,565
499,70	0,504
499,91	0,591
500,12	0,525
500,32	0,426
500,53	0,335
500,74	0,518
500,95	0,578
501,15	0,525
501,36	0,454
501,57	0,484
501,78	0,495
501,99	0,670
502,19	0,345
502,40	0,552
502,61	0,442
502,82	0,567
503,02	0,486
503,23	0,675
503,44	0,547
503,65	0,558
503,86	0,535
504,06	0,509
504,27	0,523
504,48	0,539
504,69	0,598
504,89	0,565
505,10	0,520
505,31	0,484
505,52	0,487
505,72	0,533
505,93	0,526
506,14	0,479
506,35	0,381
506,55	0,578
506,76	0,376
506,97	0,550
507,18	0,526
507,38	0,650
507,59	0,456
507,80	0,301
508,01	0,536
508,21	0,553
508,42	0,577
508,63	0,344
508,84	0,514
509,04	0,496
509,25	0,410
509,46	0,491
509,67	0,446
509,87	0,476
510,08	0,530
510,29	0,507
510,49	0,544
510,70	0,727
510,91	0,451
511,12	0,421
511,32	0,315
511,53	0,562
511,74	0,333
511,94	0,810
512,15	0,474
512,36	0,537
512,57	0,637
512,77	0,487
512,98	0,500
513,19	0,520
513,39	0,528
513,60	0,477
513,81	0,551
514,01	0,696
514,22	0,799
514,43	0,800
514,64	0,690
514,84	0,687
515,05	0,528
515,26	0,539
515,46	1,086
515,67	0,892
515,88	0,809
516,08	1,125
516,29	1,338
516,50	1,259
516,70	1,249
516,91	1,710
517,12	2,015
517,32	2,046
517,53	2,433
517,74	2,941
517,95	2,860
518,15	3,623
518,36	3,888
518,57	4,275
518,77	5,085
518,98	5,642
519,19	6,420
519,39	7,539
519,60	8,119
519,80	8,912
520,01	10,170
520,22	11,255
520,42	12,258
520,63	13,145
520,84	14,740
521,04	16,200
521,25	17,353
521,46	18,501
521,66	19,797
521,87	20,985
522,08	22,504
522,28	23,804
522,49	24,204
522,70	26,155
522,90	27,149
523,11	28,330
523,31	30,149
523,52	30,610
523,73	31,940
523,93	32,645
524,14	33,085
524,35	34,613
524,55	34,952
524,76	36,369
524,97	36,917
525,17	38,227
525,38	38,603
525,58	39,144
525,79	40,357
526,00	40,424
526,20	40,794
526,41	42,082
526,61	42,974
526,82	43,693
527,03	44,369
527,23	44,546
527,44	45,364
527,64	46,648
527,85	46,908
528,06	47,297
528,26	47,657
528,47	49,014
528,68	47,341
528,88	47,944
529,09	47,403
529,29	47,593
529,50	47,452
529,70	47,788
529,91	47,928
530,12	47,375
530,32	46,979
530,53	47,985
530,73	48,332
530,94	48,971
531,15	49,935
531,35	49,641
531,56	51,245
531,76	50,904
531,97	52,898
532,17	54,172
532,38	54,159
532,59	55,532
532,79	56,290
533,00	57,477
533,20	58,262
533,41	59,248
533,61	59,534
533,82	60,842
534,03	61,949
534,23	63,552
534,44	64,475
534,64	64,666
534,85	65,981
535,05	66,936
535,26	66,715
535,46	67,451
535,67	68,236
535,88	69,631
536,08	68,827
536,29	70,049
536,49	70,375
536,70	69,595
536,90	70,171
537,11	69,762
537,31	69,244
537,52	69,160
537,72	68,351
537,93	66,887
538,13	65,229
538,34	64,914
538,55	62,962
538,75	62,190
538,96	59,867
539,16	58,549
539,37	56,751
539,57	56,142
539,78	53,812
539,98	53,448
540,19	51,613
540,39	50,412
540,60	49,758
540,80	48,803
541,01	47,084
541,21	47,891
541,42	46,434
541,62	45,642
541,83	45,391
542,03	45,208
542,24	44,225
542,44	44,100
542,65	42,892
542,85	42,716
543,06	42,508
543,26	41,204
543,47	40,951
543,67	40,695
543,88	40,487
544,08	39,524
544,29	38,977
544,49	37,809
544,70	37,721
544,90	37,456
545,11	36,924
545,31	36,333
545,52	35,711
545,72	35,855
545,93	35,733
546,13	35,663
546,34	35,447
546,54	35,146
546,75	34,983
546,95	34,927
547,15	34,952
547,36	35,153
547,56	34,304
547,77	34,681
547,97	34,238
548,18	33,323
548,38	33,030
548,59	32,670
548,79	31,995
549,00	31,475
549,20	31,327
549,41	31,125
549,61	30,884
549,81	30,784
550,02	30,432
550,22	30,250
550,43	30,879
550,63	31,272
550,84	30,766
551,04	31,433
551,25	31,775
551,45	31,858
551,65	32,245
551,86	32,625
552,06	32,164
552,27	32,472
552,47	32,118
552,68	32,414
552,88	31,094
553,08	30,464
553,29	30,616
553,49	29,577
553,70	29,656
553,90	28,492
554,11	28,209
554,31	27,244
554,51	27,303
554,72	26,237
554,92	25,639
555,13	25,065
555,33	24,734
555,53	23,938
555,74	23,208
555,94	22,546
556,15	21,777
556,35	21,342
556,56	20,534
556,76	19,495
556,96	18,586
557,17	18,376
557,37	17,969
557,58	17,458
557,78	16,606
557,98	16,431
558,19	16,134
558,39	15,849
558,59	15,095
558,80	14,857
559,00	14,445
559,21	13,684
559,41	13,030
559,61	11,822
559,82	11,329
560,02	9,891
560,23	9,328
560,43	8,289
560,63	7,311
560,84	6,731
561,04	6,247
561,24	5,429
561,45	4,857
561,65	4,710
561,85	4,232
562,06	3,446
562,26	2,906
562,47	2,780
562,67	2,292
562,87	2,094
563,08	1,913
563,28	1,547
563,48	1,440
563,69	1,105
563,89	1,124
564,09	1,027
564,30	0,756
564,50	1,005
564,70	0,778
564,91	0,795
565,11	0,405
565,31	0,565
565,52	0,548
565,72	0,498
565,92	0,739
566,13	0,345
566,33	0,356
566,53	0,349
566,74	0,433
566,94	0,372
567,14	0,302
567,35	0,429
567,55	0,387
567,75	0,465
567,96	0,393
568,16	0,454
568,36	0,466
568,57	0,489
568,77	0,286
568,97	0,373
569,18	0,594
569,38	0,471
569,58	0,403
569,79	0,507
569,99	0,447
570,19	0,508
570,39	0,415
570,60	0,266
570,80	0,359
571,00	0,330
571,21	0,319
571,41	0,421
571,61	0,513
571,82	0,442
572,02	0,507
572,22	0,406
572,42	0,408
572,63	0,484
572,83	0,377
573,03	0,433
573,24	0,472
573,44	0,327
573,64	0,542
573,84	0,530
574,05	0,454
574,25	0,427
574,45	0,305
574,66	0,335
574,86	0,430
575,06	0,396
575,26	0,374
575,47	0,223
575,67	0,438
575,87	0,327
576,07	0,496
576,28	0,474
576,48	0,403
576,68	0,428
576,88	0,281
577,09	0,362
577,29	0,249
577,49	0,443
577,69	0,477
577,90	0,528
578,10	0,247
578,30	0,359
578,50	0,372
578,71	0,546
578,91	0,281
579,11	0,461
579,31	0,521
579,52	0,304
579,72	0,466
579,92	0,359
580,12	0,423
580,33	0,504
580,53	0,508
580,73	0,317
580,93	0,491
581,13	0,387
581,34	0,456
581,54	0,416
581,74	0,557
581,94	0,731
582,15	0,317
582,35	0,443
582,55	0,489
582,75	0,463
582,95	0,454
583,16	0,214
583,36	0,479
583,56	0,586
583,76	0,541
583,96	0,659
584,17	0,649
584,37	0,764
584,57	0,720
584,77	0,664
584,97	0,892
585,18	0,916
585,38	1,005
585,58	1,138
585,78	1,298
585,98	1,490
586,19	1,590
586,39	1,707
586,59	1,894
586,79	1,996
586,99	2,296
587,20	2,656
587,40	2,934
587,60	3,166
587,80	3,476
588,00	3,896
588,20	4,241
588,41	4,928
588,61	5,137
588,81	5,882
589,01	6,123
589,21	6,578
589,41	7,559
589,62	8,265
589,82	9,218
590,02	9,604
590,22	10,715
590,42	11,813
590,62	13,020
590,83	13,648
591,03	15,062
591,23	16,097
591,43	17,275
591,63	18,456
591,83	19,629
592,03	20,493
592,24	21,683
592,44	23,428
592,64	23,987
592,84	24,956
593,04	25,766
593,24	26,097
593,44	27,110
593,65	27,002
593,85	27,105
594,05	26,749
594,25	26,772
594,45	26,617
594,65	26,552
594,85	26,302
595,06	25,893
595,26	26,135
595,46	25,400
595,66	25,225
595,86	25,263
596,06	25,004
596,26	24,945
596,46	24,878
596,66	25,691
596,87	25,912
597,07	25,994
597,27	26,756
597,47	27,178
597,67	27,443
597,87	27,816
598,07	28,782
598,27	29,199
598,47	29,722
598,67	30,915
598,88	31,734
599,08	32,133
599,28	33,344
599,48	34,016
599,68	34,869
599,88	35,264
600,08	36,431
600,28	37,859
600,48	38,791
600,68	38,432
600,88	39,339
601,09	40,163
601,29	39,993
601,49	40,397
601,69	40,819
601,89	40,541
602,09	41,115
602,29	40,721
602,49	40,361
602,69	40,713
602,89	40,275
603,09	39,978
603,29	39,958
603,49	39,940
603,69	39,792
603,90	39,362
604,10	39,182
604,30	38,786
604,50	39,509
604,70	39,069
604,90	39,321
605,10	38,969
605,30	39,790
605,50	39,319
605,70	40,132
605,90	39,851
606,10	39,963
606,30	40,483
606,50	40,778
606,70	40,587
606,90	40,681
607,10	41,011
607,30	41,733
607,50	41,102
607,70	41,431
607,90	41,667
608,10	41,099
608,30	41,460
608,50	41,568
608,70	41,222
608,90	41,751
609,11	41,333
609,31	41,050
609,51	41,619
609,71	40,802
609,91	40,844
610,11	40,086
610,31	39,907
610,51	39,785
610,71	40,367
610,91	39,853
611,11	39,497
611,31	39,902
611,51	39,843
611,71	39,869
611,91	39,709
612,11	40,054
612,31	40,372
612,51	39,829
612,71	40,693
612,91	40,861
613,11	40,687
613,31	41,418
613,51	41,049
613,71	41,319
613,91	41,813
614,11	41,833
614,31	41,133
614,50	40,986
614,70	40,926
614,90	41,393
615,10	41,092
615,30	40,740
615,50	40,420
615,70	40,163
615,90	39,558
616,10	39,206
616,30	38,694
616,50	37,613
616,70	37,004
616,90	37,012
617,10	36,330
617,30	35,722
617,50	35,186
617,70	33,684
617,90	33,106
618,10	31,647
618,30	30,972
618,50	29,811
618,70	28,577
618,90	28,182
619,10	26,821
619,30	26,216
619,49	26,045
619,69	25,437
619,89	24,815
620,09	24,706
620,29	24,326
620,49	23,803
620,69	24,093
620,89	23,565
621,09	23,777
621,29	23,520
621,49	22,839
621,69	22,476
621,89	21,498
622,09	21,086
622,29	20,418
622,48	19,833
622,68	18,651
622,88	17,269
623,08	15,958
623,28	14,867
623,48	13,767
623,68	12,447
623,88	11,382
624,08	10,300
624,28	9,155
624,48	8,375
624,67	7,335
624,87	6,590
625,07	5,917
625,27	5,875
625,47	5,458
625,67	5,448
625,87	5,102
626,07	5,377
626,27	5,518
626,47	5,679
626,66	6,283
626,86	6,549
627,06	7,235
627,26	8,050
627,46	8,460
627,66	9,388
627,86	10,109
628,06	11,354
628,25	11,889
628,45	12,814
628,65	13,442
628,85	14,051
629,05	14,824
629,25	15,281
629,45	15,028
629,65	15,318
629,84	15,231
630,04	14,569
630,24	14,378
630,44	13,134
630,64	13,054
630,84	11,949
631,04	11,246
631,23	10,137
631,43	9,595
631,63	8,665
631,83	8,007
632,03	7,046
632,23	6,550
632,42	5,622
632,62	5,187
632,82	4,497
633,02	4,186
633,22	3,897
633,42	3,609
633,62	3,260
633,81	3,144
634,01	2,533
634,21	2,489
634,41	1,974
634,61	1,970
634,80	1,738
635,00	1,305
635,20	1,310
635,40	1,317
635,60	0,994
635,80	0,921
635,99	0,727
636,19	0,501
636,39	0,738
636,59	0,693
636,79	0,532
636,98	0,582
637,18	0,567
637,38	0,673
637,58	0,614
637,78	0,432
637,97	0,427
638,17	0,672
638,37	0,348
638,57	0,527
638,77	0,672
638,96	0,362
639,16	0,530
639,36	0,453
639,56	0,483
639,76	0,688
639,95	0,504
640,15	0,438
640,35	0,619
640,55	0,454
640,75	0,687
640,94	0,563
641,14	0,458
641,34	0,577
641,54	0,640
641,73	0,318
641,93	0,550
642,13	0,610
642,33	0,595
642,53	0,306
642,72	0,537
642,92	0,753
643,12	0,227
643,32	0,668
643,51	0,690
643,71	0,524
643,91	0,253
644,11	0,803
644,30	0,504
644,50	0,376
644,70	0,239
644,90	0,304
645,09	0,512
645,29	0,275
645,49	0,789
645,69	0,860
645,88	0,690
646,08	0,557
646,28	0,850
646,48	0,658
646,67	0,770
646,87	0,615
647,07	0,709
647,26	0,793
647,46	0,787
647,66	0,589
647,86	0,592
648,05	0,526
648,25	0,498
648,45	0,779
648,65	0,802
648,84	0,566
649,04	0,716
649,24	0,990
649,43	0,484
649,63	1,488
649,83	0,750
650,03	0,784
650,22	0,627
650,42	0,592
650,62	0,456
650,81	0,719
651,01	0,697
651,21	0,609
651,40	0,582
651,60	0,661
651,80	0,682
652,00	0,364
652,19	0,612
652,39	0,393
652,59	0,616
652,78	0,877
652,98	0,457
653,18	0,340
653,37	0,461
653,57	0,690
653,77	0,660
653,96	0,513
654,16	0,456
654,36	0,870
654,55	0,899
654,75	0,599
654,95	0,783
655,14	0,466
655,34	0,596
655,54	0,672
655,73	0,462
655,93	0,773
656,13	0,188
656,32	0,276
656,52	0,673
656,72	0,579
656,91	0,881
657,11	0,663
657,31	0,532
657,50	0,629
657,70	0,601
657,90	0,637
658,09	0,413
658,29	1,002
658,49	0,689
658,68	1,130
658,88	0,878
659,07	0,534
659,27	0,485
659,47	1,147
659,66	0,435
659,86	0,654
660,06	0,707
660,25	0,265
660,45	0,735
660,64	0,606
660,84	0,241
661,04	0,367
661,23	0,721
661,43	0,578
661,63	0,949
661,82	0,346
662,02	0,636
662,21	0,615
662,41	0,580
662,61	0,485
662,80	0,229
663,00	0,760
663,19	0,685
663,39	0,764
663,59	1,115
663,78	0,420
663,98	0,654
664,17	0,859
664,37	0,919
664,57	0,791
664,76	0,999
664,96	0,831
665,15	0,550
665,35	0,678
665,55	0,504
665,74	0,666
665,94	0,552
666,13	1,022
666,33	0,146
666,53	0,710
666,72	0,434
666,92	0,690
667,11	0,716
667,31	0,375
667,50	1,041
667,70	0,494
667,90	0,476
668,09	0,754
668,29	0,514
668,48	0,536
668,68	0,497
668,87	0,685
669,07	0,951
669,26	0,744
669,46	0,362
669,66	0,524
669,85	0,623
670,05	0,335
670,24	0,411
670,44	0,772
670,63	0,753
670,83	0,517
671,02	0,949
671,22	0,866
671,42	0,587
671,61	0,729
671,81	0,401
672,00	0,746
672,20	0,614
672,39	0,258
672,59	0,239
672,78	0,323
672,98	0,606
673,17	0,363
673,37	0,471
673,56	0,419
673,76	0,825
673,95	0,554
674,15	0,390
674,34	0,534
674,54	0,424
674,73	0,576
674,93	0,743
675,13	0,396
675,32	0,441
675,52	0,817
675,71	0,475
675,91	0,363
676,10	0,210
676,30	0,155
676,49	0,367
676,69	0,527
676,88	0,721
677,08	0,550
677,27	0,291
677,47	0,337
677,66	0,708
677,86	0,628
678,05	0,896
678,24	0,225
678,44	0,551
678,63	0,506
678,83	0,485
679,02	0,702
679,22	0,156
679,41	0,399
679,61	0,412
679,80	0,323
680,00	0,457
680,19	0,350
680,39	0,550
680,58	0,239
680,78	0,492
680,97	0,035
681,17	0,343
681,36	0,263
681,56	0,375
681,75	0,216
681,94	0,668
682,14	0,526
682,33	0,613
682,53	0,548
682,72	0,578
682,92	0,580
683,11	0,639
683,31	0,162
683,50	0,465
683,69	0,335
683,89	0,311
684,08	0,417
684,28	0,360
684,47	0,410
684,67	0,544
684,86	0,146
685,06	0,369
685,25	0,399
685,44	0,420
685,64	0,141
685,83	0,365
686,03	0,214
686,22	0,360
686,42	0,253
686,61	0,499
686,80	0,291
687,00	0,355
687,19	0,585
687,39	0,209
687,58	0,200
687,77	0,237
687,97	0,426
688,16	0,063
688,36	0,238
688,55	0,291
688,74	0,292
688,94	0,228
689,13	0,329
689,33	0,324
689,52	0,388
689,71	0,434
689,91	0,145
690,10	0,251
690,30	0,215
690,49	0,292
690,68	0,352
690,88	0,430
691,07	0,383
691,27	0,169
691,46	0,255
691,65	0,339
691,85	0,302
692,04	0,270
692,23	0,164
692,43	0,102
692,62	0,174
692,82	0,287
693,01	0,053
693,20	0,494
693,40	0,108
693,59	0,376
693,78	0,263
693,98	0,152
694,17	0,171
694,36	0,531
694,56	0,378
694,75	0,101
694,94	0,344
695,14	0,326
695,33	0,172
695,53	0,386
695,72	0,360
695,91	0,203
696,11	0,253
696,30	0,302
696,49	0,311
696,69	0,314
696,88	0,261
697,07	0,227
697,27	0,113
697,46	0,117
697,65	0,394
697,85	0,300
698,04	0,622
698,23	0,333
698,43	0,423
698,62	0,442
698,81	0,395
699,01	0,796
699,20	0,534
699,39	0,514
699,58	0,664
699,78	0,696
699,97	0,511
700,16	0,718
700,36	0,429
700,55	0,806
700,74	0,493
700,94	0,675
701,13	0,836
701,32	1,117
701,52	0,614
701,71	0,427
701,90	0,780
702,09	0,380
702,29	1,162
702,48	0,784
702,67	0,319
702,87	0,713
703,06	1,329
703,25	1,271
703,44	1,072
703,64	1,769
703,83	1,055
704,02	1,272
704,22	0,626
704,41	1,051
704,60	1,733
704,79	1,054
704,99	1,890
705,18	1,618
705,37	1,589
705,56	1,917
705,76	2,449
705,95	1,229
706,14	1,249
706,33	2,348
706,53	1,427
706,72	1,227
706,91	1,717
707,11	2,679
707,30	2,403
707,49	2,202
707,68	1,485
707,88	2,251
708,07	1,860
708,26	2,128
708,45	2,011
708,64	2,035
708,84	1,657
709,03	1,412
709,22	0,933
709,41	2,604
709,61	2,751
709,80	2,608
709,99	2,130
710,18	2,485
710,38	2,456
710,57	2,059
710,76	2,248
710,95	2,260
711,14	4,133
711,34	1,792
711,53	3,917
711,72	2,510
711,91	3,225
712,11	4,872
712,30	3,683
712,49	4,393
712,68	4,008
712,87	3,897
713,07	5,872
713,26	2,232
713,45	3,848
713,64	2,094
713,83	2,772
714,03	4,998
714,22	3,432
714,41	3,377
714,60	5,745
714,79	2,655
714,99	2,805
715,18	2,309
715,37	4,152
715,56	3,128
715,75	3,870
715,94	3,288
716,14	3,840
716,33	4,256
716,52	2,001
716,71	5,307
716,90	6,402
717,10	3,354
717,29	2,914
717,48	6,206
717,67	0,244
717,86	4,574
718,05	3,118
718,24	5,273
718,44	5,311
718,63	3,904
718,82	7,494
719,01	5,926
719,20	4,924
719,39	4,144
719,59	4,524
719,78	4,533
719,97	7,810
720,16	7,814
720,35	5,758
720,54	7,264
720,73	3,360
720,93	6,093
721,12	3,100
721,31	7,256
721,50	7,493
721,69	4,562
721,88	8,748
722,07	6,422
722,27	5,935
722,46	5,730
722,65	4,088
722,84	5,259
723,03	6,250
723,22	7,804
723,41	8,509
723,60	9,440
723,79	10,182
723,99	7,904
724,18	7,520
724,37	6,003
724,56	12,132
724,75	9,002
724,94	9,939
725,13	11,246
725,32	7,985
725,51	7,293
725,71	3,883
725,90	7,230
726,09	8,176
726,28	8,574
726,47	5,859
726,66	9,395
726,85	6,865
727,04	11,007
727,23	5,268
727,42	11,805
727,61	1,799
727,81	10,219
728,00	10,051
728,19	8,238
728,38	4,860
728,57	11,216
728,76	10,752
728,95	11,049
729,14	5,663
729,33	11,965
729,52	10,236
729,71	11,251
729,90	5,626
730,09	8,645
730,28	10,162
730,48	6,961
730,67	14,389
730,86	4,602
731,05	11,565
731,24	8,323
731,43	10,189
731,62	15,414
731,81	8,513
732,00	9,530
732,19	5,875
732,38	5,366
732,57	8,856
732,76	12,381
732,95	7,733
733,14	4,161
733,33	12,500
733,52	14,165
733,71	8,940
733,90	17,352
734,09	7,491
734,28	19,310
734,47	7,368
734,66	18,453
734,85	12,766
735,04	13,215
735,23	14,683
735,42	15,274
735,61	14,667
735,81	15,724
736,00	14,307
736,19	14,497
736,38	10,370
736,57	16,852
736,76	6,667
736,95	11,667
737,14	18,237
737,33	15,570
737,52	9,955
737,71	5,769
737,90	21,785
738,09	16,258
738,28	13,078
738,47	6,863
738,66	11,719
738,85	16,667
739,04	15,620
739,22	10,642
739,41	12,258
739,60	11,371
739,79	16,267
739,98	9,074
740,17	12,075
740,36	18,571
740,55	20,635
740,74	14,087
740,93	9,756
741,12	18,015
741,31	21,507
741,50	11,299
741,69	5,926
741,88	10,000
742,07	18,773
742,26	11,985
742,45	13,241
742,64	23,741
742,83	14,043
743,02	13,333
743,21	21,529
743,40	13,628
743,59	10,656
743,78	20,742
743,97	23,684
744,16	10,643
744,34	19,291
744,53	18,852
744,72	28,482
744,91	8,000
745,10	21,564
745,29	18,676
745,48	15,264
745,67	12,831
745,86	11,502
746,05	23,288
746,24	22,876
746,43	23,877
746,62	9,447
746,81	18,493
747,00	24,635
747,18	21,978
747,37	14,499
747,56	17,528
747,75	27,352
747,94	24,070
748,13	21,233
748,32	21,154
748,51	13,544
748,70	22,302
748,89	10,145
749,08	6,857
749,26	18,616
749,45	34,118
749,64	19,603
749,83	17,048
750,02	19,890
750,21	27,859
750,40	16,406
750,59	20,991
750,78	26,036
750,96	10,615
751,15	13,388
751,34	34,031
751,53	22,167
751,72	14,016
751,91	21,096
752,10	20,988
752,29	26,836
752,47	18,258
752,66	25,634
752,85	31,269
753,04	21,767
753,23	16,556
753,42	27,052
753,61	38,562
753,80	21,409
753,98	8,421
754,17	27,301
754,36	25,706
754,55	19,436
754,74	27,746
754,93	28,530
755,12	16,800
755,30	23,823
755,49	29,052
755,68	29,395
755,87	16,817
756,06	36,313
756,25	22,540
756,43	25,862
756,62	32,641
756,81	29,703
757,00	25,217
757,19	30,822
757,38	32,808
757,56	31,935
757,75	27,124
757,94	26,183
758,13	30,519
758,32	23,864
758,51	26,471
758,69	20,800
758,88	16,216
759,07	23,297
759,26	20,465
759,45	23,144
759,63	24,164
759,82	18,519
760,01	12,375
760,20	33,463
760,39	31,343
760,57	50,413
760,76	12,613
760,95	2,778
761,14	40,000
761,33	32,813
761,51	18,638
761,70	45,172
761,89	17,623
762,08	34,884
762,27	28,571
762,45	46,304
762,64	31,502
762,83	28,761
763,02	12,558
763,21	34,052
763,39	46,939
763,58	46,415
763,77	27,799
763,96	47,390
764,14	39,167
764,33	32,967
764,52	52,361
764,71	29,596
764,89	13,725
765,08	43,103
765,27	30,483
765,46	47,283
765,65	21,397
765,83	36,797
766,02	32,340
766,21	50,276
766,40	42,381
766,58	31,301
766,77	29,353
766,96	62,273
767,15	64,734
767,33	49,123
767,52	37,195
767,71	39,565
767,90	41,573
768,08	26,848
768,27	40,500
768,46	41,016
768,64	65,285
768,83	38,542
769,02	64,000
769,21	22,707
769,39	49,419
769,58	59,538
769,77	61,686
769,96	51,309
770,14	36,054
770,33	37,850
770,52	42,857
770,70	42,000
770,89	55,705
771,08	29,661
771,27	64,948
771,45	48,246
771,64	71,354
771,83	59,346
772,01	36,747
772,20	70,352
772,39	13,333
772,57	43,411
772,76	41,481
772,95	39,716
773,14	60,753
773,32	56,774
773,51	65,672
773,70	64,375
773,88	57,377
774,07	36,649
774,26	43,972
774,44	39,024
774,63	77,665
774,82	55,488
775,00	67,333
775,19	90,400
775,38	48,555
775,56	53,646
775,75	63,855
775,94	60,759
776,12	47,514
776,31	58,235
776,50	50,000
776,68	57,895
776,87	43,182
777,06	57,931
777,24	65,000
777,43	61,538
777,62	86,765
777,80	78,378
777,99	61,143
778,18	61,386
778,36	36,800
778,55	67,769
778,74	69,444
778,92	47,337
779,11	76,667
779,29	50,943
779,48	51,701
779,67	35,659
779,85	80,488
780,04	36,757
780,23	51,799
780,41	60,938
780,60	53,684
780,79	64,407
780,97	72,368
781,16	47,879
781,34	62,887
781,53	83,761
781,72	34,307
781,90	66,406
782,09	76,774
782,28	58,394
782,46	41,481
782,65	75,714
782,83	95,506
783,02	87,500
783,21	69,333
783,39	85,217
783,58	66,864
783,76	84,916
783,95	41,818
784,14	69,536
784,32	53,691
784,51	73,276
784,69	72,034
784,88	68,468
785,06	63,866
785,25	66,242
785,44	66,906
785,62	60,000
785,81	46,479
785,99	89,209
786,18	68,919
786,37	57,037
786,55	66,055
786,74	40,789
786,92	83,594
787,11	80,000
787,29	41,045
787,48	46,667
787,67	89,157
787,85	71,552
788,04	75,743
788,22	63,115
788,41	112,941
788,59	89,908
788,78	58,182
788,96	69,811
789,15	73,684
789,34	80,909
789,52	72,566
789,71	61,240
789,89	187,234
790,08	63,699
790,26	57,143
790,45	67,424
790,63	72,222
790,82	63,030
791,00	45,833
791,19	65,591
791,38	69,444
791,56	60,526
791,75	100,000
791,93	125,287
792,12	87,574
792,30	83,200
792,49	75,630
792,67	80,597
792,86	81,395
793,04	76,636
793,23	38,333
793,41	74,684
793,60	82,828
793,78	70,175
793,97	79,487
794,15	86,364
794,34	64,835
794,52	102,597
794,71	101,235
794,89	73,333
795,08	88,350
795,26	57,222
795,45	114,925
795,63	103,030
795,82	78,505
796,00	79,817
796,19	58,333
796,37	99,270
796,56	104,301
796,74	69,027
796,93	76,404
797,11	62,025
797,30	53,333
797,48	62,759
797,67	111,667
797,85	54,082
798,04	128,125
798,22	92,857
798,41	76,471
798,59	110,526
798,77	96,923
798,96	90,323
799,14	81,034
799,33	92,366
799,51	86,154
799,70	79,866
799,88	112,121
800,07	65,789
800,25	48,276
800,44	26,263
800,62	42,353
800,80	182,609
800,99	133,333
801,17	68,103
801,36	66,207
801,54	98,958
801,73	92,929
801,91	102,459
802,10	53,571
802,28	108,411
802,46	87,654
802,65	90,805
802,83	101,124
803,02	91,579
803,20	95,313
803,39	50,000
803,57	103,614
803,75	87,162
803,94	53,782
804,12	35,833
804,31	93,805
804,49	105,769
804,67	85,600
804,86	67,857
805,04	75,676
805,23	64,828
805,41	110,656
805,59	63,934
805,78	59,091
805,96	71,154
806,15	99,219
806,33	77,311
806,51	73,451
806,70	156,667
806,88	63,415
807,07	51,587
807,25	57,233
807,43	74,834
807,62	61,789
807,80	122,581
807,99	113,492
808,17	75,887
808,35	81,579
808,54	80,645
808,72	62,400
808,90	88,158
809,09	90,833
809,27	86,486
809,46	94,643
809,64	50,980
809,82	67,816
810,01	80,303
810,19	71,000
810,37	65,385
810,56	69,512
810,74	54,967
810,92	79,545
811,11	64,706
811,29	90,071
811,48	108,081
811,66	82,171
811,84	83,486
812,03	75,455
812,21	91,026
812,39	105,932
812,58	100,980
812,76	53,271
812,94	76,667
813,13	73,016
813,31	67,500
813,49	121,739
813,68	106,957
813,86	63,265
814,04	123,301
814,23	138,384
814,41	76,471
814,59	72,881
814,78	77,941
814,96	90,991
815,14	97,778
815,33	97,101
815,51	37,037
815,69	64,198
815,87	114,783
816,06	44,375
816,24	70,199
816,42	41,026
816,61	67,797
816,79	162,651
816,97	76,577
817,16	52,258
817,34	88,966
817,52	86,897
817,70	126,984
817,89	69,421
818,07	90,517
818,25	93,694
818,44	63,372
818,62	78,448
818,80	76,224
818,98	80,952
819,17	60,769
819,35	81,176
819,53	60,396
819,72	41,860
819,90	74,850
820,08	46,104
820,26	109,649
820,45	92,771
820,63	67,187
820,81	55,705
820,99	63,910
821,18	38,519
821,36	72,381
821,54	47,674
821,73	57,838
821,91	42,021
822,09	60,000
822,27	69,036
822,46	49,375
822,64	72,185
822,82	49,268
823,00	15,315
823,19	50,758
823,37	52,143
823,55	55,882
823,73	72,000
823,91	41,436
824,10	67,598
824,28	51,852
824,46	50,581
824,64	44,118
824,83	66,667
825,01	63,043
825,19	55,429
825,37	66,667
825,56	71,875
825,74	52,857
825,92	64,607
826,10	89,441
826,28	83,221
826,47	30,081
826,65	49,324
826,83	55,376
827,01	51,515
827,19	57,595
827,38	56,995
827,56	51,923
827,74	58,537
827,92	55,610
828,10	35,870
828,29	36,190
828,47	53,947
828,65	57,297
828,83	48,485
829,01	43,333
829,20	35,443
829,38	54,772
829,56	51,417
829,74	67,424
829,92	41,753
830,10	58,559
830,29	44,865
830,47	63,542
830,65	14,286
830,83	44,571
831,01	45,417
831,20	44,059
831,38	36,098
831,56	55,466
831,74	75,429
831,92	53,977
832,10	57,727
832,29	45,498
832,47	44,690
832,65	40,426
832,83	48,372
833,01	38,735
833,19	32,127
833,37	51,111
833,56	28,638
833,74	43,320
833,92	50,885
834,10	58,376
834,28	46,154
834,46	42,215
834,64	47,266
834,83	32,765
835,01	31,128
835,19	42,180
835,37	29,482
835,55	42,599
835,73	44,118
835,91	29,730
836,09	31,535
836,28	48,092
836,46	43,158
836,64	45,492
836,82	32,836
837,00	58,163
837,18	50,593
837,36	35,294
837,54	18,561
837,72	25,100
837,91	29,317
838,09	38,400
838,27	39,927
838,45	31,392
838,63	21,017
838,81	38,158
838,99	48,432
839,17	41,100
839,35	41,852
839,53	41,946
839,72	21,186
839,90	22,796
840,08	31,410
840,26	41,956
840,44	21,296
840,62	39,057
840,80	33,642
840,98	35,952
841,16	26,335
841,34	32,464
841,52	33,866
841,70	20,875
841,89	36,774
842,07	28,378
842,25	18,506
842,43	29,677
842,61	32,440
842,79	36,280
842,97	16,159
843,15	32,951
843,33	31,116
843,51	28,640
843,69	25,833
843,87	18,868
844,05	23,181
844,23	31,081
844,41	19,849
844,59	28,409
844,77	21,902
844,95	24,757
845,13	34,426
845,31	29,050
845,50	30,928
845,68	29,016
845,86	28,066
846,04	25,432
846,22	26,014
846,40	13,911
846,58	19,839
846,76	21,945
846,94	23,558
847,12	18,957
847,30	22,581
847,48	37,650
847,66	21,463
847,84	14,721
848,02	25,572
848,20	21,634
848,38	25,420
848,56	28,817
848,74	26,446
848,92	13,361
849,10	19,866
849,28	23,312
849,46	20,093
849,64	21,905
849,82	13,221
850,00	18,686
850,18	19,400
850,36	29,605
850,54	23,767
850,72	26,611
850,90	30,414
851,08	15,226
851,26	27,733
851,44	14,659
851,62	18,764
851,80	19,085
851,98	30,864
852,16	30,453
852,34	24,099
852,52	22,863
852,70	17,068
852,87	23,619
853,05	22,244
853,23	25,490
853,41	10,020
853,59	17,925
853,77	17,659
853,95	18,856
854,13	18,447
854,31	24,258
854,49	14,028
854,67	26,316
854,85	20,174
855,03	24,330
855,21	17,428
855,39	23,826
855,57	29,167
855,75	23,609
855,93	16,254
856,11	25,518
856,28	25,694
856,46	15,686
856,64	23,463
856,82	17,103
857,00	20,415
857,18	23,318
857,36	19,160
857,54	15,034
857,72	24,708
857,90	16,969
858,08	16,512
858,26	16,208
858,44	16,770
858,61	22,184
858,79	20,155
858,97	18,052
859,15	14,612
859,33	14,724
859,51	16,134
859,69	15,030
859,87	21,523
860,05	18,410
860,23	13,485
860,40	20,123
860,58	16,236
860,76	25,424
860,94	9,618
861,12	16,431
861,30	15,185
861,48	22,380
861,66	21,545
861,84	18,715
862,01	23,529
862,19	21,003
862,37	23,907
862,55	21,309
862,73	20,109
862,91	15,055
863,09	19,376
863,27	16,574
863,44	13,245
863,62	15,989
863,80	9,765
863,98	22,095
864,16	15,906
864,34	16,234
864,52	14,579
864,69	18,795
864,87	22,050
865,05	15,701
865,23	17,874
865,41	14,779
865,59	22,991
865,76	21,964
865,94	17,436
866,12	18,347
866,30	17,055
866,48	16,958
866,66	21,041
866,83	20,241
867,01	19,641
867,19	19,149
867,37	14,646
867,55	18,990
867,73	23,918
867,90	18,478
868,08	21,242
868,26	15,964
868,44	11,588
868,62	15,152
868,79	14,286
868,97	20,043
869,15	16,879
869,33	14,774
869,51	19,533
869,69	16,475
869,86	18,359
870,04	17,249
870,22	10,718
870,40	15,455
870,57	17,600
870,75	17,241
870,93	16,857
871,11	13,123
871,29	14,634
871,46	14,502
871,64	14,144
871,82	11,902
872,00	18,101
872,18	17,658
872,35	16,221
872,53	17,297
872,71	15,014
872,89	14,458
873,06	17,620
873,24	14,614
873,42	13,441
873,60	9,734
873,77	8,808
873,95	13,295
874,13	14,669
874,31	12,389
874,49	10,636
874,66	10,739
874,84	10,213
875,02	12,124
875,20	11,405
875,37	10,562
875,55	6,943
875,73	11,303
875,91	11,719
876,08	12,659
876,26	11,324
876,44	12,540
876,61	12,824
876,79	9,190
876,97	12,804
877,15	15,267
877,32	8,740
877,50	13,140
877,68	11,302
877,86	10,223
878,03	10,130
878,21	8,702
878,39	9,704
878,56	13,201
878,74	9,111
878,92	13,205
879,10	10,429
879,27	11,650
879,45	12,324
879,63	10,375
879,80	11,897
879,98	10,605
880,16	11,421
880,34	8,238
880,51	12,558
880,69	11,944
880,87	9,347
881,04	10,767
881,22	13,702
881,40	8,020
881,57	9,239
881,75	13,967
881,93	10,825
882,10	13,261
882,28	12,321
882,46	14,627
882,63	13,693
882,81	11,954
882,99	13,271
883,16	11,105
883,34	10,893
883,52	9,529
883,69	14,184
883,87	13,131
884,05	10,697
884,22	13,138
884,40	11,450
884,58	12,514
884,75	11,222
884,93	13,089
885,11	11,861
885,28	11,768
885,46	11,712
885,64	13,298
885,81	13,917
885,99	12,569
886,17	11,785
886,34	13,739
886,52	13,516
886,70	12,190
886,87	12,170
887,05	12,093
887,22	12,916
887,40	14,546
887,58	13,781
887,75	15,503
887,93	14,485
888,11	10,875
888,28	12,328
888,46	13,643
888,63	16,081
888,81	13,749
888,99	11,327
889,16	11,412
889,34	15,139
889,51	13,959
889,69	12,083
889,87	14,944
890,04	12,377
890,22	14,923
890,39	11,809
890,57	14,651
890,75	17,700
890,92	13,553
891,10	15,670
891,27	13,258
891,45	12,458
891,63	14,657
891,80	12,886
891,98	16,812
892,15	14,594
892,33	15,262
892,51	14,018
892,68	11,830
892,86	13,900
893,03	13,823
893,21	13,405
893,38	15,893
893,56	13,344
893,74	14,417
893,91	13,993
894,09	17,001
894,26	13,401
894,44	14,124
894,61	16,463
894,79	14,151
894,96	13,364
895,14	14,907
895,32	14,561
895,49	15,504
895,67	13,274
895,84	14,679
896,02	15,370
896,19	14,704
896,37	14,665
896,54	14,212
896,72	15,881
896,89	14,865
897,07	14,757
897,25	15,203
897,42	12,753
897,60	13,560
897,77	15,360
897,95	15,525
898,12	13,623
898,30	13,884
898,47	14,589
898,65	13,234
898,82	12,663
899,00	12,282
899,17	14,394
899,35	12,715
899,52	12,613
899,70	11,030
899,87	11,789
900,05	13,306
900,22	12,784
900,40	12,632
900,57	13,104
900,75	11,288
900,92	12,915
901,10	12,278
901,27	12,627
901,45	12,422
901,62	11,529
901,80	12,336
901,97	11,329
902,15	12,147
902,32	10,743
902,50	12,032
902,67	12,764
902,85	11,066
903,02	12,720
903,20	11,342
903,37	12,421
903,54	12,858
903,72	10,661
903,89	12,525
904,07	11,053
904,24	11,404
904,42	9,794
904,59	10,909
904,77	11,847
904,94	12,042
905,12	7,847
905,29	9,834
905,47	10,940
905,64	11,537
905,81	11,439
905,99	9,231
906,16	11,459
906,34	8,730
906,51	10,249
906,69	10,183
906,86	9,183
907,03	10,846
907,21	8,400
907,38	10,811
907,56	8,979
907,73	10,170
907,91	9,569
908,08	9,948
908,25	8,747
908,43	8,856
908,60	8,108
908,78	10,609
908,95	9,619
909,13	9,994
909,30	8,450
909,47	8,079
909,65	8,654
909,82	9,291
910,00	8,486
910,17	8,395
910,34	8,629
910,52	8,886
910,69	10,649
910,87	9,039
911,04	8,387
911,21	8,622
911,39	9,646
911,56	9,048
911,73	8,203
911,91	8,826
912,08	9,554
912,26	6,894
912,43	8,454
912,60	9,427
912,78	8,226
912,95	9,174
913,13	8,726
913,30	8,540
913,47	9,943
913,65	8,289
913,82	8,789
913,99	8,195
914,17	9,418
914,34	9,325
914,51	10,874
914,69	9,684
914,86	10,714
915,03	9,503
915,21	10,101
915,38	9,725
915,56	9,760
915,73	9,921
915,90	11,028
916,08	10,069
916,25	10,455
916,42	9,685
916,60	9,401
916,77	11,042
916,94	9,983
917,12	10,853
917,29	10,888
917,46	9,471
917,64	10,172
917,81	10,012
917,98	10,540
918,16	12,282
918,33	11,694
918,50	11,076
918,67	10,743
918,85	11,248
919,02	11,180
919,19	12,215
919,37	10,928
919,54	11,866
919,71	12,351
919,89	11,287
920,06	12,025
920,23	11,230
920,41	10,962
920,58	12,469
920,75	12,281
920,92	11,563
921,10	11,783
921,27	11,446
921,44	11,420
921,62	10,743
921,79	12,596
921,96	11,173
922,13	12,143
922,31	11,590
922,48	12,172
922,65	11,185
922,82	11,383
923,00	13,114
923,17	11,629
923,34	12,481
923,52	11,963
923,69	12,325
923,86	11,015
924,03	12,387
924,21	12,014
924,38	13,016
924,55	13,707
924,72	13,067
924,90	12,400
925,07	12,642
925,24	12,642
925,41	12,466
925,59	11,978
925,76	12,591
925,93	13,313
926,10	13,689
926,28	12,673
926,45	13,169
926,62	13,534
926,79	12,221
926,96	14,146
927,14	13,075
927,31	13,141
927,48	14,125
927,65	13,165
927,83	12,578
928,00	12,280
928,17	13,635
928,34	13,738
928,51	13,792
928,69	13,424
928,86	12,347
929,03	13,439
929,20	12,851
929,37	13,374
929,55	12,703
929,72	13,539
929,89	13,705
930,06	14,305
930,23	13,698
930,41	14,201
930,58	15,314
930,75	14,434
930,92	13,804
931,09	15,495
931,27	14,831
931,44	14,811
931,61	15,077
931,78	15,729
931,95	15,629
932,12	15,771
932,30	15,621
932,47	17,728
932,64	17,581
932,81	18,413
932,98	17,502
933,16	17,398
933,33	18,699
933,50	17,639
933,67	19,196
933,84	17,693
934,01	18,639
934,18	19,471
934,36	19,410
934,53	19,940
934,70	20,618
934,87	20,340
935,04	21,337
935,21	20,598
935,38	21,352
935,56	22,228
935,73	21,625
935,90	20,862
936,07	23,561
936,24	22,656
936,41	23,815
936,58	23,750
936,76	24,378
936,93	22,846
937,10	23,434
937,27	25,536
937,44	23,307
937,61	25,624
937,78	25,754
937,95	26,081
938,13	26,146
938,30	26,219
938,47	27,147
938,64	26,873
938,81	28,182
938,98	27,511
939,15	29,129
939,32	29,768
939,49	29,677
939,66	30,811
939,84	29,775
940,01	31,268
940,18	30,858
940,35	30,230
940,52	28,555
940,69	32,265
940,86	30,358
941,03	30,865
941,20	32,629
941,37	30,746
941,54	31,877
941,71	30,398
941,89	32,326
942,06	32,261
942,23	32,827
942,40	34,587
942,57	31,720
942,74	33,179
942,91	32,637
943,08	34,283
943,25	34,758
943,42	33,866
943,59	32,975
943,76	34,601
943,93	34,846
944,10	34,350
944,27	36,724
944,44	33,333
944,61	34,124
944,79	35,422
944,96	34,424
945,13	34,432
945,30	35,502
945,47	35,859
945,64	37,278
945,81	36,045
945,98	35,985
946,15	36,846
946,32	36,811
946,49	34,406
946,66	37,389
946,83	36,815
947,00	35,639
947,17	34,668
947,34	37,680
947,51	34,113
947,68	36,052
947,85	36,510
948,02	36,581
948,19	35,363
948,36	37,791
948,53	36,533
948,70	38,685
948,87	36,644
949,04	36,712
949,21	36,760
949,38	35,321
949,55	36,917
949,72	36,531
949,89	38,885
950,06	36,215
950,23	37,551
950,40	37,537
950,57	36,247
950,74	40,173
950,91	37,092
951,08	37,168
951,25	38,117
951,42	38,811
951,59	38,406
951,76	39,432
951,93	39,961
952,10	37,847
952,27	38,780
952,44	39,772
952,61	39,784
952,77	38,986
952,94	41,792
953,11	42,683
953,28	43,555
953,45	42,568
953,62	43,229
953,79	41,989
953,96	44,008
954,13	44,025
954,30	43,340
954,47	46,010
954,64	43,214
954,81	45,730
954,98	43,527
955,15	42,873
955,32	43,836
955,49	45,415
955,65	46,196
955,82	46,389
955,99	44,586
956,16	48,095
956,33	46,095
956,50	48,754
956,67	43,627
956,84	45,704
957,01	51,014
957,18	48,663
957,35	47,205
957,52	53,943
957,68	51,583
957,85	48,340
958,02	48,837
958,19	52,480
958,36	50,000
958,53	51,705
958,70	47,059
958,87	48,924
959,04	53,558
959,21	52,626
959,37	59,524
959,54	56,781
959,71	50,481
959,88	53,897
960,05	49,227
960,22	53,964
960,39	62,267
960,56	48,734
960,72	52,447
960,89	55,513
961,06	57,197
961,23	59,971
961,40	56,854
961,57	52,496
961,74	56,171
961,90	59,531
962,07	55,251
962,24	60,488
962,41	59,464
962,58	59,208
962,75	56,106
962,92	72,150
963,08	65,636
963,25	58,919
963,42	70,048
963,59	73,967
963,76	72,809
963,93	75,744
964,10	60,814
964,26	69,737
964,43	66,925
964,60	68,135
964,77	72,771
964,94	74,432
965,10	88,095
965,27	69,452
965,44	78,701
965,61	76,860
965,78	71,565
965,95	81,437
966,11	71,207
966,28	92,565
966,45	73,832
966,62	76,000
966,79	104,490
966,95	80,000
967,12	78,549
967,29	84,722
967,46	89,015
967,63	90,566
967,79	95,946
967,96	83,550
968,13	75,500
968,30	92,339
968,47	99,313
968,63	97,748
968,80	105,046
968,97	101,923
969,14	106,395
969,31	95,556
969,47	111,765
969,64	98,485
969,81	107,772
969,98	97,253
970,14	112,270
970,31	128,931
970,48	115,833
970,65	114,201
970,81	136,301
970,98	140,876
971,15	148,980
971,32	147,656
971,48	125,170
971,65	125,385
971,82	154,902
971,99	190,805
972,15	137,324
972,32	168,468
972,49	106,294
972,66	170,909
972,82	166,279
972,99	108,130
973,16	160,920
973,33	165,179
973,49	149,474
973,66	174,194
973,83	123,301
974,00	201,163
974,16	175,490
974,33	145,614
974,50	131,579
974,67	202,105
974,83	166,667
975,00	167,368
975,17	120,879
975,33	149,438
975,50	200,000
975,67	332,653
975,84	183,582
976,00	139,326
976,17	186,885
976,34	139,000
976,50	166,292
976,67	154,369
976,84	3033,333
977,00	291,837
977,17	157,778
977,34	204,396
977,50	177,612
977,67	219,643
977,84	208,065
978,01	229,787
978,17	833,333
978,34	352,778
978,51	261,765
978,67	165,789
978,84	97,656
979,01	337,838
979,17	205,128
979,34	98,630
979,51	273,469
979,67	181,481
979,84	261,224
980,01	266,667
980,17	187,324
980,34	348,148
980,51	192,754
980,67	177,647
980,84	373,333
981,01	455,000
981,17	648,000
981,34	722,222
981,50	188,235
981,67	277,966
981,84	5850,000
982,00	320,000
982,17	302,381
982,34	154,444
982,50	713,333
982,67	139,583
982,84	1860,000
983,00	1316,667
983,17	138,806
983,33	218,966
983,50	980,000
983,67	-303,448
983,83	384,848
984,00	-1100,000
984,17	672,222
984,33	-5600,000
984,50	285,714
984,66	293,478
984,83	189,610
985,00	-470,833
985,16	517,241
985,33	564,706
985,49	611,111
985,66	350,000
985,83	434,783
985,99	302,564
986,16	-2625,000
986,32	614,286
986,49	7200,000
986,66	339,394
986,82	783,333
986,99	201,887
987,15	-426,316
987,32	-164,286
987,49	260,000
987,65	6700,000
987,82	408,333
987,98	297,959
988,15	466,667
988,31	980,000
988,48	-1933,333
988,65	266,667
988,81	444,444
988,98	236,585
989,14	309,524
989,31	538,095
989,47	329,412
989,64	-630,769
989,80	568,750
989,97	291,892
990,14	-123,913
990,30	-472,727
990,47	363,265
990,63	336,111
990,80	138,000
990,96	-395,000
991,13	400,000
991,29	306,897
991,46	0,000
991,62	-830,769
991,79	983,333
991,95	8800,000
992,12	-1160,000
992,29	-643,750
992,45	141,176
992,62	241,860
992,78	261,364
992,95	-346,667
993,11	460,714
993,28	1260,000
993,44	-1260,000
993,61	-781,250
993,77	-2675,000
993,94	-4233,333
994,10	-90,667
994,27	942,105
994,43	267,442
994,60	0,000
994,76	1675,000
994,93	320,000
995,09	-700,000
995,26	766,667
995,42	337,255
995,59	523,810
995,75	546,154
995,92	1585,714
996,08	297,222
996,25	-875,000
996,41	-5250,000
996,58	886,667
996,74	263,636
996,91	293,103
997,07	0,000
997,23	11200,000
997,40	-13400,000
997,56	-761,538
997,73	-1350,000
997,89	307,895
998,06	1153,846
998,22	-688,889
998,39	508,000
998,55	1333,333
998,72	-1425,000
998,88	-323,333
999,05	-114,103
999,21	330,952
999,37	-553,333
999,54	-816,667
999,70	-320,000
999,87	712,500
1000,03	307,692
1000,20	247,917
1000,36	0,000
1000,52	383,333
1000,69	-566,667
1000,85	-900,000
1001,02	-300,000
1001,18	2350,000
1001,35	876,923
1001,51	505,882
1001,67	-761,538
1001,84	-2160,000
1002,00	291,892
1002,17	1090,909
1002,33	-1750,000
1002,50	309,524
1002,66	-576,923
1002,82	295,000
1002,99	907,143
1003,15	-1414,286
1003,32	-663,636
1003,48	264,286
1003,64	773,333
1003,81	370,370
1003,97	-2550,000
1004,14	836,364
1004,30	220,000
1004,46	-233,333
1004,63	628,571
1004,79	361,111
1004,95	720,000
1005,12	3550,000
1005,28	358,621
1005,45	251,351
1005,61	382,759
1005,77	-239,583
1005,94	-323,810
1006,10	-4350,000
1006,26	746,154
1006,43	-273,077
1006,59	-781,818
1006,76	700,000
1006,92	1277,778
1007,08	8700,000
1007,25	-266,667
1007,41	427,586
1007,57	4650,000
1007,74	1270,000
1007,90	-400,000
1008,06	226,087
1008,23	729,412
1008,39	-593,750
1008,55	-226,923
1008,72	-1371,429
1008,88	0,000
1009,04	329,268
1009,21	-197,368
1009,37	-708,333
1009,53	214,286
1009,70	1633,333
1009,86	-664,286
1010,02	2900,000
1010,19	727,273
1010,35	241,176
1010,51	-3150,000
1010,68	-1325,000
1010,84	-229,545
1011,00	600,000
1011,17	-263,636
1011,33	0,000
1011,49	-633,333
1011,66	657,143
1011,82	416,129
1011,98	807,143
1012,14	-690,909
1012,31	302,564
1012,47	0,000
1012,63	2100,000
1012,80	642,857
1012,96	-600,000
1013,12	-1300,000
1013,29	405,556
1013,45	292,683
1013,61	3800,000
1013,77	-146,429
1013,94	2200,000
1014,10	162,712
1014,26	-1950,000
1014,43	-284,000
1014,59	470,000
1014,75	-377,778
1014,91	-746,667
1015,08	402,778
1015,24	8100,000
1015,40	647,059
1015,56	-11200,000
1015,73	223,810
1015,89	836,364
1016,05	2850,000
1016,21	-787,500
1016,38	784,211
1016,54	569,231
1016,70	-2800,000
1016,86	390,625
1017,03	668,750
1017,19	-492,308
1017,35	-611,765
1017,51	-1260,000
1017,68	-670,000
1017,84	-1271,429
1018,00	250,000
1018,16	334,615
1018,33	-1114,286
1018,49	-958,333
1018,65	-232,432
1018,81	276,923
1018,97	-1100,000
1019,14	-2866,667
1019,30	-297,436
1019,46	0,000
1019,62	-352,941
1019,79	-3100,000
1019,95	933,333
1020,11	5600,000
1020,27	-314,815
1020,43	-350,000
1020,60	1650,000
1020,76	722,222
1020,92	700,000
1021,08	565,000
1021,24	1090,000
1021,41	1000,000
1021,57	1625,000
1021,73	846,154
1021,89	2300,000
1022,05	-185,714
1022,21	560,000
1022,38	-625,000
1022,54	-1100,000
1022,70	364,444
1022,86	-1700,000
1023,02	470,833
1023,19	2560,000
1023,35	4233,333
1023,51	379,167
1023,67	351,852
1023,83	-518,750
1023,99	281,579
1024,16	-307,692
1024,32	-877,778
1024,48	-810,000
1024,64	257,143
1024,80	530,435
1024,96	300,000
1025,12	447,619
1025,29	290,476
1025,45	244,737
1025,61	672,222
1025,77	-2540,000
1025,93	-9200,000
1026,09	-1185,714
1026,26	600,000
1026,42	650,000
1026,58	451,515
1026,74	2266,667
1026,90	412,000
1027,06	303,571
1027,22	1021,429
1027,38	276,923
1027,55	3100,000
1027,71	1366,667
1027,87	-312,000
1028,03	560,000
1028,19	331,250
1028,35	555,000
1028,51	980,000
1028,67	775,000
1028,83	-1650,000
1029,00	-219,048
1029,16	950,000
1029,32	-242,857
1029,48	191,111
1029,64	230,556
1029,80	5100,000
1029,96	466,667
1030,12	521,739
1030,28	-2833,333
1030,44	-461,538
1030,61	-537,500
1030,77	-208,571
1030,93	-866,667
1031,09	1250,000
1031,25	-9200,000
1031,41	-250,000
1031,57	388,462
1031,73	531,250
1031,89	-827,273
1032,05	-374,074
1032,21	718,182
1032,37	-133,333
1032,53	-757,143
1032,69	-100,000
1032,86	429,630
1033,02	-205,000
1033,18	-525,000
1033,34	484,211
1033,50	-5800,000
1033,66	-307,317
1033,82	521,739
1033,98	-355,556
1034,14	166,667
1034,30	380,645
1034,46	-2933,333
1034,62	400,000
1034,78	-538,095
1034,94	221,053
1035,10	-500,000
1035,26	-125,581
1035,42	-172,414
1035,58	-561,111
1035,74	516,667
1035,90	-569,231
1036,06	-1400,000
1036,22	1033,333
1036,38	-623,529
1036,54	-358,333
1036,70	-84,848
1036,86	7800,000
1037,02	555,556
1037,18	542,105
1037,34	131,429
1037,50	-73,171
1037,66	-241,176
1037,82	2080,000
1037,98	-414,815
1038,14	-364,000
1038,30	-1075,000
1038,46	-550,000
1038,62	491,304
1038,78	-3133,333
1038,94	-284,211
1039,10	395,455
1039,26	429,630
1039,42	-616,667
1039,58	1228,571
1039,74	-421,053
1039,90	256,250
1040,06	-296,154
>>>>>End Processed Spectral Data<<<<<
