SpectraSuite Data File
++++++++++++++++++++++++++++++++++++
Date: Thu Feb 02 18:22:17 EET 2017
User: optolab
Spectrometer Serial Number: USB4C02475
Spectrometer Channel: 0
Integration Time (usec): 151411
Spectra Averaged: 1
Boxcar Smoothing: 0
Correct for Electrical Dark: No
Strobe/Lamp Enabled: No
Correct for Detector Non-linearity: No
Correct for Stray Light: No
Number of Pixels in Spectrum: 3648
>>>>>Begin Spectral Data<<<<<
344,91	1140,719
345,13	1140,719
345,35	1140,719
345,57	1181,678
345,79	1220,589
346,00	2064,352
346,22	1775,589
346,44	1640,423
346,66	1751,013
346,87	1607,655
347,09	1617,895
347,31	1667,047
347,53	1689,574
347,74	1746,917
347,96	1718,246
348,18	1640,423
348,40	1517,545
348,61	1691,622
348,83	1734,630
349,05	1744,869
349,27	1529,833
349,48	1683,430
349,70	1671,142
349,92	1664,999
350,14	1703,910
350,35	1755,109
350,57	1767,397
350,79	1708,006
351,01	1867,748
351,22	1728,486
351,44	1671,142
351,66	1531,881
351,87	1875,939
352,09	1800,165
352,31	1828,836
352,53	1701,862
352,74	1841,124
352,96	1736,678
353,18	1648,615
353,40	1619,943
353,61	1628,135
353,83	1722,342
354,05	1716,198
354,26	1701,862
354,48	1687,526
354,70	1533,929
354,92	1691,622
355,13	1730,534
355,35	1822,692
355,57	1667,047
355,78	1646,567
356,00	1892,323
356,22	1578,984
356,44	1828,836
356,65	1777,637
356,87	1695,718
357,09	1851,364
357,30	1570,792
357,52	1830,884
357,74	1716,198
357,95	1630,183
358,17	1691,622
358,39	1681,382
358,60	1605,608
358,82	1609,703
359,04	1767,397
359,26	1611,751
359,47	1572,840
359,69	1742,821
359,91	1757,157
360,12	1771,493
360,34	1705,958
360,56	1595,368
360,77	1603,560
360,99	1806,308
361,21	1546,216
361,42	1759,205
361,64	1746,917
361,86	1767,397
362,07	1832,932
362,29	1712,102
362,51	1699,814
362,72	1675,238
362,94	1716,198
363,16	1619,943
363,37	1710,054
363,59	1646,567
363,81	1656,807
364,02	1941,474
364,24	1652,711
364,46	1730,534
364,67	1724,390
364,89	1759,205
365,11	1714,150
365,32	1730,534
365,54	1751,013
365,76	1705,958
365,97	1664,999
366,19	1703,910
366,41	1617,895
366,62	1734,630
366,84	1595,368
367,05	1677,286
367,27	1664,999
367,49	1548,264
367,70	1683,430
367,92	1628,135
368,14	1650,663
368,35	1695,718
368,57	1583,080
368,79	1705,958
369,00	1587,176
369,22	1640,423
369,43	1773,541
369,65	1740,773
369,87	1646,567
370,08	1705,958
370,30	1621,991
370,51	1476,585
370,73	1605,608
370,95	1708,006
371,16	1576,936
371,38	1738,725
371,60	1695,718
371,81	1687,526
372,03	1816,548
372,24	1759,205
372,46	1703,910
372,68	1511,401
372,89	1593,320
373,11	1705,958
373,32	1785,829
373,54	1751,013
373,76	1658,855
373,97	1585,128
374,19	1748,965
374,40	1716,198
374,62	1650,663
374,84	1849,316
375,05	1550,312
375,27	1863,652
375,48	1583,080
375,70	1531,881
375,92	1667,047
376,13	1660,903
376,35	1673,190
376,56	1603,560
376,78	1673,190
376,99	1630,183
377,21	1636,327
377,43	1638,375
377,64	1654,759
377,86	1730,534
378,07	1472,490
378,29	1720,294
378,51	1662,951
378,72	1720,294
378,94	1574,888
379,15	1531,881
379,37	1611,751
379,58	1708,006
379,80	1513,449
380,01	1695,718
380,23	1630,183
380,45	1658,855
380,66	1732,582
380,88	1607,655
381,09	1794,021
381,31	1746,917
381,52	1644,519
381,74	1654,759
381,95	1830,884
382,17	1671,142
382,39	1658,855
382,60	1732,582
382,82	1621,991
383,03	1683,430
383,25	1550,312
383,46	1767,397
383,68	1621,991
383,89	1667,047
384,11	1640,423
384,32	1513,449
384,54	1744,869
384,76	1603,560
384,97	1601,512
385,19	1505,257
385,40	1701,862
385,62	1646,567
385,83	1730,534
386,05	1556,456
386,26	1585,128
386,48	1646,567
386,69	1638,375
386,91	1634,279
387,12	1605,608
387,34	1650,663
387,55	1495,017
387,77	1570,792
387,98	1519,593
388,20	1675,238
388,41	1568,744
388,63	1654,759
388,84	1667,047
389,06	1738,725
389,27	1599,464
389,49	1607,655
389,70	1675,238
389,92	1531,881
390,13	1662,951
390,35	1535,977
390,56	1679,334
390,78	1626,087
390,99	1605,608
391,21	1650,663
391,42	1673,190
391,64	1613,799
391,85	1531,881
392,07	1525,737
392,28	1400,811
392,50	1607,655
392,71	1501,161
392,93	1576,936
393,14	1746,917
393,36	1703,910
393,57	1581,032
393,79	1636,327
394,00	1718,246
394,22	1542,120
394,43	1556,456
394,65	1642,471
394,86	1593,320
395,08	1601,512
395,29	1521,641
395,50	1664,999
395,72	1601,512
395,93	1767,397
396,15	1617,895
396,36	1538,025
396,58	1732,582
396,79	1595,368
397,01	1626,087
397,22	1552,360
397,44	1630,183
397,65	1497,065
397,87	1406,955
398,08	1566,696
398,29	1589,224
398,51	1726,438
398,72	1507,305
398,94	1632,231
399,15	1548,264
399,37	1638,375
399,58	1523,689
399,80	1376,235
400,01	1488,873
400,22	1615,847
400,44	1841,124
400,65	1748,965
400,87	1548,264
401,08	1611,751
401,30	1527,785
401,51	1523,689
401,72	1669,095
401,94	1499,113
402,15	1566,696
402,37	1474,538
402,58	1605,608
402,80	1507,305
403,01	1503,209
403,22	1593,320
403,44	1566,696
403,65	1619,943
403,87	1538,025
404,08	1650,663
404,30	1501,161
404,51	1554,408
404,72	1617,895
404,94	1552,360
405,15	1640,423
405,37	1581,032
405,58	1458,154
405,79	1480,681
406,01	1654,759
406,22	1513,449
406,44	1538,025
406,65	1599,464
406,86	1509,353
407,08	1470,442
407,29	1554,408
407,51	1515,497
407,72	1753,061
407,93	1589,224
408,15	1482,729
408,36	1576,936
408,58	1527,785
408,79	1521,641
409,00	1564,648
409,22	1576,936
409,43	1540,072
409,64	1654,759
409,86	1515,497
410,07	1474,538
410,29	1445,866
410,50	1495,017
410,71	1632,231
410,93	1546,216
411,14	1542,120
411,35	1669,095
411,57	1581,032
411,78	1535,977
412,00	1527,785
412,21	1730,534
412,42	1599,464
412,64	1689,574
412,85	1538,025
413,06	1595,368
413,28	1562,600
413,49	1636,327
413,70	1617,895
413,92	1630,183
414,13	1435,626
414,34	1488,873
414,56	1648,615
414,77	1617,895
414,98	1501,161
415,20	1628,135
415,41	1509,353
415,63	1552,360
415,84	1531,881
416,05	1566,696
416,27	1505,257
416,48	1564,648
416,69	1523,689
416,91	1595,368
417,12	1497,065
417,33	1632,231
417,55	1574,888
417,76	1642,471
417,97	1478,633
418,19	1613,799
418,40	1572,840
418,61	1548,264
418,83	1568,744
419,04	1519,593
419,25	1599,464
419,46	1527,785
419,68	1470,442
419,89	1634,279
420,10	1474,538
420,32	1560,552
420,53	1525,737
420,74	1609,703
420,96	1490,921
421,17	1456,106
421,38	1529,833
421,60	1529,833
421,81	1552,360
422,02	1581,032
422,23	1601,512
422,45	1527,785
422,66	1513,449
422,87	1490,921
423,09	1671,142
423,30	1640,423
423,51	1703,910
423,73	1533,929
423,94	1585,128
424,15	1437,674
424,36	1634,279
424,58	1628,135
424,79	1556,456
425,00	1531,881
425,22	1507,305
425,43	1552,360
425,64	1490,921
425,85	1431,530
426,07	1640,423
426,28	1589,224
426,49	1513,449
426,71	1552,360
426,92	1556,456
427,13	1531,881
427,34	1593,320
427,56	1699,814
427,77	1460,202
427,98	1507,305
428,19	1492,969
428,41	1441,770
428,62	1501,161
428,83	1626,087
429,04	1511,401
429,26	1550,312
429,47	1597,416
429,68	1515,497
429,89	1564,648
430,11	1470,442
430,32	1468,394
430,53	1495,017
430,74	1595,368
430,96	1521,641
431,17	1462,250
431,38	1568,744
431,59	1533,929
431,81	1497,065
432,02	1499,113
432,23	1562,600
432,44	1538,025
432,66	1642,471
432,87	1519,593
433,08	1523,689
433,29	1556,456
433,51	1499,113
433,72	1650,663
433,93	1462,250
434,14	1511,401
434,35	1617,895
434,57	1490,921
434,78	1640,423
434,99	1554,408
435,20	1519,593
435,42	1519,593
435,63	1472,490
435,84	1554,408
436,05	1583,080
436,26	1511,401
436,48	1544,168
436,69	1474,538
436,90	1511,401
437,11	1472,490
437,32	1544,168
437,54	1617,895
437,75	1611,751
437,96	1634,279
438,17	1554,408
438,38	1527,785
438,60	1650,663
438,81	1501,161
439,02	1499,113
439,23	1439,722
439,44	1503,209
439,66	1474,538
439,87	1560,552
440,08	1492,969
440,29	1527,785
440,50	1550,312
440,72	1535,977
440,93	1503,209
441,14	1529,833
441,35	1540,072
441,56	1480,681
441,77	1583,080
441,99	1488,873
442,20	1562,600
442,41	1429,482
442,62	1462,250
442,83	1513,449
443,04	1572,840
443,26	1531,881
443,47	1693,670
443,68	1533,929
443,89	1492,969
444,10	1605,608
444,31	1611,751
444,53	1652,711
444,74	1558,504
444,95	1466,346
445,16	1552,360
445,37	1497,065
445,58	1562,600
445,80	1595,368
446,01	1562,600
446,22	1603,560
446,43	1470,442
446,64	1511,401
446,85	1519,593
447,06	1513,449
447,28	1576,936
447,49	1492,969
447,70	1572,840
447,91	1544,168
448,12	1466,346
448,33	1454,058
448,54	1458,154
448,76	1574,888
448,97	1538,025
449,18	1572,840
449,39	1572,840
449,60	1550,312
449,81	1593,320
450,02	1507,305
450,23	1581,032
450,45	1695,718
450,66	1595,368
450,87	1505,257
451,08	1486,825
451,29	1621,991
451,50	1525,737
451,71	1548,264
451,92	1652,711
452,13	1503,209
452,35	1474,538
452,56	1511,401
452,77	1593,320
452,98	1517,545
453,19	1540,072
453,40	1544,168
453,61	1695,718
453,82	1499,113
454,03	1538,025
454,25	1505,257
454,46	1540,072
454,67	1632,231
454,88	1550,312
455,09	1658,855
455,30	1501,161
455,51	1605,608
455,72	1568,744
455,93	1554,408
456,14	1527,785
456,35	1605,608
456,56	1562,600
456,78	1466,346
456,99	1572,840
457,20	1621,991
457,41	1587,176
457,62	1435,626
457,83	1468,394
458,04	1646,567
458,25	1583,080
458,46	1589,224
458,67	1679,334
458,88	1632,231
459,09	1550,312
459,30	1593,320
459,51	1546,216
459,73	1601,512
459,94	1662,951
460,15	1550,312
460,36	1589,224
460,57	1607,655
460,78	1556,456
460,99	1624,039
461,20	1462,250
461,41	1599,464
461,62	1667,047
461,83	1644,519
462,04	1675,238
462,25	1589,224
462,46	1499,113
462,67	1509,353
462,88	1566,696
463,09	1726,438
463,30	1505,257
463,51	1546,216
463,72	1652,711
463,93	1572,840
464,15	1621,991
464,36	1660,903
464,57	1572,840
464,78	1581,032
464,99	1560,552
465,20	1533,929
465,41	1501,161
465,62	1482,729
465,83	1566,696
466,04	1656,807
466,25	1525,737
466,46	1529,833
466,67	1558,504
466,88	1546,216
467,09	1535,977
467,30	1626,087
467,51	1646,567
467,72	1564,648
467,93	1458,154
468,14	1540,072
468,35	1658,855
468,56	1660,903
468,77	1587,176
468,98	1660,903
469,19	1656,807
469,40	1714,150
469,61	1576,936
469,82	1505,257
470,03	1628,135
470,24	1544,168
470,45	1685,478
470,66	1587,176
470,87	1597,416
471,08	1597,416
471,29	1595,368
471,50	1646,567
471,71	1544,168
471,92	1617,895
472,13	1697,766
472,34	1576,936
472,55	1642,471
472,76	1679,334
472,97	1578,984
473,18	1658,855
473,39	1617,895
473,60	1650,663
473,81	1556,456
474,01	1683,430
474,22	1673,190
474,43	1581,032
474,64	1583,080
474,85	1599,464
475,06	1634,279
475,27	1705,958
475,48	1572,840
475,69	1556,456
475,90	1708,006
476,11	1724,390
476,32	1562,600
476,53	1652,711
476,74	1576,936
476,95	1576,936
477,16	1617,895
477,37	1664,999
477,58	1632,231
477,79	1630,183
478,00	1689,574
478,21	1556,456
478,41	1593,320
478,62	1650,663
478,83	1691,622
479,04	1630,183
479,25	1585,128
479,46	1542,120
479,67	1458,154
479,88	1593,320
480,09	1701,862
480,30	1687,526
480,51	1748,965
480,72	1636,327
480,93	1662,951
481,14	1599,464
481,34	1624,039
481,55	1568,744
481,76	1738,725
481,97	1662,951
482,18	1638,375
482,39	1585,128
482,60	1613,799
482,81	1671,142
483,02	1572,840
483,23	1630,183
483,44	1650,663
483,65	1626,087
483,85	1535,977
484,06	1611,751
484,27	1603,560
484,48	1568,744
484,69	1566,696
484,90	1566,696
485,11	1630,183
485,32	1576,936
485,53	1597,416
485,73	1791,973
485,94	1595,368
486,15	1650,663
486,36	1615,847
486,57	1554,408
486,78	1662,951
486,99	1632,231
487,20	1574,888
487,41	1765,349
487,61	1578,984
487,82	1605,608
488,03	1681,382
488,24	1619,943
488,45	1572,840
488,66	1621,991
488,87	1611,751
489,08	1787,877
489,28	1718,246
489,49	1677,286
489,70	1544,168
489,91	1662,951
490,12	1548,264
490,33	1691,622
490,54	1597,416
490,74	1578,984
490,95	1607,655
491,16	1632,231
491,37	1683,430
491,58	1413,098
491,79	1495,017
492,00	1568,744
492,20	1525,737
492,41	1650,663
492,62	1542,120
492,83	1644,519
493,04	1597,416
493,25	1609,703
493,45	1574,888
493,66	1595,368
493,87	1652,711
494,08	1544,168
494,29	1570,792
494,50	1583,080
494,70	1708,006
494,91	1775,589
495,12	1597,416
495,33	1583,080
495,54	1742,821
495,75	1609,703
495,95	1583,080
496,16	1699,814
496,37	1597,416
496,58	1570,792
496,79	1705,958
496,99	1490,921
497,20	1681,382
497,41	1716,198
497,62	1550,312
497,83	1636,327
498,04	1576,936
498,24	1609,703
498,45	1599,464
498,66	1568,744
498,87	1593,320
499,08	1642,471
499,28	1585,128
499,49	1624,039
499,70	1558,504
499,91	1574,888
500,12	1570,792
500,32	1593,320
500,53	1624,039
500,74	1626,087
500,95	1529,833
501,15	1517,545
501,36	1501,161
501,57	1636,327
501,78	1671,142
501,99	1574,888
502,19	1542,120
502,40	1656,807
502,61	1548,264
502,82	1601,512
503,02	1531,881
503,23	1589,224
503,44	1624,039
503,65	1660,903
503,86	1538,025
504,06	1556,456
504,27	1685,478
504,48	1531,881
504,69	1572,840
504,89	1585,128
505,10	1521,641
505,31	1576,936
505,52	1662,951
505,72	1554,408
505,93	1437,674
506,14	1431,530
506,35	1439,722
506,55	1636,327
506,76	1578,984
506,97	1619,943
507,18	1662,951
507,38	1650,663
507,59	1464,298
507,80	1501,161
508,01	1607,655
508,21	1587,176
508,42	1714,150
508,63	1552,360
508,84	1611,751
509,04	1497,065
509,25	1511,401
509,46	1550,312
509,67	1548,264
509,87	1570,792
510,08	1667,047
510,29	1626,087
510,49	1628,135
510,70	1601,512
510,91	1617,895
511,12	1626,087
511,32	1464,298
511,53	1591,272
511,74	1550,312
511,94	1433,578
512,15	1560,552
512,36	1546,216
512,57	1488,873
512,77	1441,770
512,98	1447,914
513,19	1505,257
513,39	1570,792
513,60	1538,025
513,81	1624,039
514,01	1662,951
514,22	1730,534
514,43	1486,825
514,64	1527,785
514,84	1613,799
515,05	1576,936
515,26	1609,703
515,46	1581,032
515,67	1609,703
515,88	1476,585
516,08	1613,799
516,29	1542,120
516,50	1572,840
516,70	1511,401
516,91	1578,984
517,12	1484,777
517,32	1601,512
517,53	1517,545
517,74	1452,010
517,95	1394,667
518,15	1546,216
518,36	1564,648
518,57	1513,449
518,77	1511,401
518,98	1562,600
519,19	1544,168
519,39	1433,578
519,60	1503,209
519,80	1714,150
520,01	1519,593
520,22	1535,977
520,42	1552,360
520,63	1621,991
520,84	1527,785
521,04	1505,257
521,25	1591,272
521,46	1593,320
521,66	1595,368
521,87	1566,696
522,08	1525,737
522,28	1572,840
522,49	1458,154
522,70	1613,799
522,90	1556,456
523,11	1497,065
523,31	1554,408
523,52	1572,840
523,73	1519,593
523,93	1501,161
524,14	1525,737
524,35	1523,689
524,55	1415,146
524,76	1568,744
524,97	1544,168
525,17	1601,512
525,38	1472,490
525,58	1501,161
525,79	1544,168
526,00	1476,585
526,20	1527,785
526,41	1538,025
526,61	1630,183
526,82	1464,298
527,03	1474,538
527,23	1632,231
527,44	1382,379
527,64	1445,866
527,85	1507,305
528,06	1595,368
528,26	1597,416
528,47	1486,825
528,68	1587,176
528,88	1667,047
529,09	1486,825
529,29	1546,216
529,50	1427,434
529,70	1540,072
529,91	1546,216
530,12	1517,545
530,32	1527,785
530,53	1566,696
530,73	1597,416
530,94	1525,737
531,15	1576,936
531,35	1544,168
531,56	1515,497
531,76	1585,128
531,97	1619,943
532,17	1484,777
532,38	1527,785
532,59	1468,394
532,79	1468,394
533,00	1562,600
533,20	1433,578
533,41	1507,305
533,61	1525,737
533,82	1531,881
534,03	1527,785
534,23	1548,264
534,44	1470,442
534,64	1540,072
534,85	1468,394
535,05	1486,825
535,26	1517,545
535,46	1511,401
535,67	1552,360
535,88	1574,888
536,08	1492,969
536,29	1595,368
536,49	1525,737
536,70	1515,497
536,90	1587,176
537,11	1636,327
537,31	1521,641
537,52	1456,106
537,72	1515,497
537,93	1574,888
538,13	1570,792
538,34	1499,113
538,55	1607,655
538,75	1542,120
538,96	1595,368
539,16	1492,969
539,37	1605,608
539,57	1505,257
539,78	1757,157
539,98	1505,257
540,19	1679,334
540,39	1560,552
540,60	1497,065
540,80	1503,209
541,01	1525,737
541,21	1519,593
541,42	1576,936
541,62	1523,689
541,83	1521,641
542,03	1566,696
542,24	1538,025
542,44	1626,087
542,65	1490,921
542,85	1492,969
543,06	1540,072
543,26	1515,497
543,47	1462,250
543,67	1480,681
543,88	1478,633
544,08	1538,025
544,29	1597,416
544,49	1478,633
544,70	1458,154
544,90	1505,257
545,11	1597,416
545,31	1499,113
545,52	1566,696
545,72	1593,320
545,93	1562,600
546,13	1527,785
546,34	1490,921
546,54	1492,969
546,75	1542,120
546,95	1595,368
547,15	1441,770
547,36	1540,072
547,56	1472,490
547,77	1650,663
547,97	1458,154
548,18	1525,737
548,38	1525,737
548,59	1632,231
548,79	1441,770
549,00	1419,242
549,20	1544,168
549,41	1513,449
549,61	1583,080
549,81	1531,881
550,02	1576,936
550,22	1474,538
550,43	1490,921
550,63	1460,202
550,84	1447,914
551,04	1538,025
551,25	1621,991
551,45	1488,873
551,65	1472,490
551,86	1638,375
552,06	1480,681
552,27	1468,394
552,47	1435,626
552,68	1589,224
552,88	1542,120
553,08	1519,593
553,29	1517,545
553,49	1540,072
553,70	1624,039
553,90	1460,202
554,11	1632,231
554,31	1529,833
554,51	1535,977
554,72	1488,873
554,92	1519,593
555,13	1544,168
555,33	1535,977
555,53	1603,560
555,74	1507,305
555,94	1578,984
556,15	1521,641
556,35	1523,689
556,56	1634,279
556,76	1527,785
556,96	1501,161
557,17	1568,744
557,37	1630,183
557,58	1445,866
557,78	1548,264
557,98	1521,641
558,19	1587,176
558,39	1486,825
558,59	1488,873
558,80	1527,785
559,00	1501,161
559,21	1507,305
559,41	1499,113
559,61	1542,120
559,82	1570,792
560,02	1564,648
560,23	1484,777
560,43	1460,202
560,63	1593,320
560,84	1501,161
561,04	1515,497
561,24	1597,416
561,45	1486,825
561,65	1427,434
561,85	1415,146
562,06	1503,209
562,26	1466,346
562,47	1564,648
562,67	1396,715
562,87	1441,770
563,08	1456,106
563,28	1490,921
563,48	1527,785
563,69	1460,202
563,89	1527,785
564,09	1517,545
564,30	1548,264
564,50	1650,663
564,70	1517,545
564,91	1527,785
565,11	1417,194
565,31	1525,737
565,52	1445,866
565,72	1521,641
565,92	1566,696
566,13	1484,777
566,33	1617,895
566,53	1511,401
566,74	1531,881
566,94	1560,552
567,14	1546,216
567,35	1560,552
567,55	1542,120
567,75	1486,825
567,96	1398,763
568,16	1474,538
568,36	1486,825
568,57	1517,545
568,77	1492,969
568,97	1525,737
569,18	1527,785
569,38	1400,811
569,58	1505,257
569,79	1429,482
569,99	1458,154
570,19	1581,032
570,39	1454,058
570,60	1382,379
570,80	1417,194
571,00	1515,497
571,21	1486,825
571,41	1435,626
571,61	1662,951
571,82	1488,873
572,02	1460,202
572,22	1480,681
572,42	1466,346
572,63	1429,482
572,83	1456,106
573,03	1523,689
573,24	1601,512
573,44	1452,010
573,64	1566,696
573,84	1542,120
574,05	1552,360
574,25	1538,025
574,45	1497,065
574,66	1513,449
574,86	1511,401
575,06	1554,408
575,26	1384,427
575,47	1542,120
575,67	1376,235
575,87	1480,681
576,07	1452,010
576,28	1458,154
576,48	1550,312
576,68	1421,290
576,88	1458,154
577,09	1490,921
577,29	1517,545
577,49	1513,449
577,69	1482,729
577,90	1621,991
578,10	1464,298
578,30	1564,648
578,50	1458,154
578,71	1462,250
578,91	1437,674
579,11	1507,305
579,31	1505,257
579,52	1480,681
579,72	1464,298
579,92	1552,360
580,12	1431,530
580,33	1654,759
580,53	1449,962
580,73	1556,456
580,93	1572,840
581,13	1533,929
581,34	1456,106
581,54	1546,216
581,74	1425,386
581,94	1462,250
582,15	1484,777
582,35	1443,818
582,55	1490,921
582,75	1527,785
582,95	1460,202
583,16	1386,475
583,36	1568,744
583,56	1380,331
583,76	1435,626
583,96	1431,530
584,17	1433,578
584,37	1470,442
584,57	1437,674
584,77	1460,202
584,97	1468,394
585,18	1476,585
585,38	1572,840
585,58	1554,408
585,78	1456,106
585,98	1630,183
586,19	1517,545
586,39	1501,161
586,59	1464,298
586,79	1619,943
586,99	1507,305
587,20	1488,873
587,40	1431,530
587,60	1478,633
587,80	1480,681
588,00	1574,888
588,20	1560,552
588,41	1503,209
588,61	1515,497
588,81	1578,984
589,01	1531,881
589,21	1538,025
589,41	1511,401
589,62	1507,305
589,82	1341,420
590,02	1413,098
590,22	1523,689
590,42	1505,257
590,62	1517,545
590,83	1437,674
591,03	1492,969
591,23	1470,442
591,43	1591,272
591,63	1490,921
591,83	1609,703
592,03	1574,888
592,24	1398,763
592,44	1527,785
592,64	1386,475
592,84	1529,833
593,04	1409,002
593,24	1507,305
593,44	1515,497
593,65	1464,298
593,85	1611,751
594,05	1572,840
594,25	1591,272
594,45	1499,113
594,65	1505,257
594,85	1406,955
595,06	1460,202
595,26	1513,449
595,46	1417,194
595,66	1519,593
595,86	1462,250
596,06	1462,250
596,26	1445,866
596,46	1460,202
596,66	1511,401
596,87	1456,106
597,07	1499,113
597,27	1497,065
597,47	1490,921
597,67	1697,766
597,87	1589,224
598,07	1368,043
598,27	1456,106
598,47	1425,386
598,67	1550,312
598,88	1523,689
599,08	1492,969
599,28	1380,331
599,48	1435,626
599,68	1601,512
599,88	1431,530
600,08	1517,545
600,28	1480,681
600,48	1572,840
600,68	1476,585
600,88	1482,729
601,09	1529,833
601,29	1497,065
601,49	1429,482
601,69	1560,552
601,89	1462,250
602,09	1419,242
602,29	1511,401
602,49	1611,751
602,69	1443,818
602,89	1560,552
603,09	1497,065
603,29	1482,729
603,49	1544,168
603,69	1454,058
603,90	1406,955
604,10	1710,054
604,30	1470,442
604,50	1400,811
604,70	1533,929
604,90	1550,312
605,10	1431,530
605,30	1564,648
605,50	1548,264
605,70	1564,648
605,90	1523,689
606,10	1511,401
606,30	1476,585
606,50	1503,209
606,70	1456,106
606,90	1441,770
607,10	1550,312
607,30	1417,194
607,50	1427,434
607,70	1529,833
607,90	1447,914
608,10	1425,386
608,30	1505,257
608,50	1648,615
608,70	1449,962
608,90	1468,394
609,11	1466,346
609,31	1404,907
609,51	1462,250
609,71	1480,681
609,91	1423,338
610,11	1576,936
610,31	1421,290
610,51	1484,777
610,71	1486,825
610,91	1419,242
611,11	1505,257
611,31	1419,242
611,51	1478,633
611,71	1425,386
611,91	1519,593
612,11	1458,154
612,31	1644,519
612,51	1460,202
612,71	1417,194
612,91	1415,146
613,11	1503,209
613,31	1578,984
613,51	1535,977
613,71	1466,346
613,91	1548,264
614,11	1480,681
614,31	1482,729
614,50	1462,250
614,70	1585,128
614,90	1519,593
615,10	1583,080
615,30	1564,648
615,50	1431,530
615,70	1501,161
615,90	1466,346
616,10	1417,194
616,30	1605,608
616,50	1554,408
616,70	1613,799
616,90	1503,209
617,10	1540,072
617,30	1546,216
617,50	1406,955
617,70	1460,202
617,90	1411,050
618,10	1478,633
618,30	1550,312
618,50	1652,711
618,70	1552,360
618,90	1501,161
619,10	1621,991
619,30	1495,017
619,49	1394,667
619,69	1396,715
619,89	1439,722
620,09	1441,770
620,29	1476,585
620,49	1482,729
620,69	1517,545
620,89	1507,305
621,09	1492,969
621,29	1423,338
621,49	1458,154
621,69	1482,729
621,89	1581,032
622,09	1476,585
622,29	1458,154
622,48	1574,888
622,68	1437,674
622,88	1572,840
623,08	1591,272
623,28	1495,017
623,48	1359,851
623,68	1521,641
623,88	1464,298
624,08	1478,633
624,28	1474,538
624,48	1433,578
624,67	1474,538
624,87	1521,641
625,07	1556,456
625,27	1542,120
625,47	1564,648
625,67	1470,442
625,87	1454,058
626,07	1466,346
626,27	1458,154
626,47	1458,154
626,66	1456,106
626,86	1581,032
627,06	1433,578
627,26	1515,497
627,46	1478,633
627,66	1535,977
627,86	1507,305
628,06	1501,161
628,25	1509,353
628,45	1544,168
628,65	1486,825
628,85	1560,552
629,05	1445,866
629,25	1529,833
629,45	1521,641
629,65	1437,674
629,84	1488,873
630,04	1474,538
630,24	1574,888
630,44	1495,017
630,64	1544,168
630,84	1470,442
631,04	1535,977
631,23	1480,681
631,43	1468,394
631,63	1535,977
631,83	1521,641
632,03	1486,825
632,23	1628,135
632,42	1472,490
632,62	1544,168
632,82	1523,689
633,02	1501,161
633,22	1449,962
633,42	1396,715
633,62	1486,825
633,81	1505,257
634,01	1429,482
634,21	1589,224
634,41	1495,017
634,61	1576,936
634,80	1478,633
635,00	1548,264
635,20	1495,017
635,40	1406,955
635,60	1431,530
635,80	1480,681
635,99	1499,113
636,19	1486,825
636,39	1535,977
636,59	1585,128
636,79	1644,519
636,98	1535,977
637,18	1568,744
637,38	1525,737
637,58	1624,039
637,78	1488,873
637,97	1466,346
638,17	1519,593
638,37	1472,490
638,57	1417,194
638,77	1624,039
638,96	1409,002
639,16	1527,785
639,36	1568,744
639,56	1531,881
639,76	1517,545
639,95	1452,010
640,15	1484,777
640,35	1452,010
640,55	1468,394
640,75	1615,847
640,94	1533,929
641,14	1464,298
641,34	1564,648
641,54	1482,729
641,73	1650,663
641,93	1515,497
642,13	1384,427
642,33	1546,216
642,53	1458,154
642,72	1527,785
642,92	1605,608
643,12	1480,681
643,32	1566,696
643,51	1613,799
643,71	1425,386
643,91	1521,641
644,11	1468,394
644,30	1509,353
644,50	1445,866
644,70	1480,681
644,90	1492,969
645,09	1619,943
645,29	1368,043
645,49	1488,873
645,69	1505,257
645,88	1517,545
646,08	1439,722
646,28	1728,486
646,48	1382,379
646,67	1476,585
646,87	1423,338
647,07	1662,951
647,26	1564,648
647,46	1441,770
647,66	1452,010
647,86	1419,242
648,05	1509,353
648,25	1660,903
648,45	1423,338
648,65	1441,770
648,84	1419,242
649,04	1470,442
649,24	1679,334
649,43	1435,626
649,63	1566,696
649,83	1562,600
650,03	1556,456
650,22	1511,401
650,42	1503,209
650,62	1499,113
650,81	1433,578
651,01	1546,216
651,21	1488,873
651,40	1540,072
651,60	1449,962
651,80	1497,065
652,00	1507,305
652,19	1544,168
652,39	1669,095
652,59	1548,264
652,78	1542,120
652,98	1433,578
653,18	1454,058
653,37	1533,929
653,57	1499,113
653,77	1519,593
653,96	1507,305
654,16	1574,888
654,36	1433,578
654,55	1574,888
654,75	1599,464
654,95	1458,154
655,14	1427,434
655,34	1517,545
655,54	1456,106
655,73	1470,442
655,93	1648,615
656,13	1505,257
656,32	1456,106
656,52	1478,633
656,72	1517,545
656,91	1570,792
657,11	1542,120
657,31	1462,250
657,50	1525,737
657,70	1529,833
657,90	1464,298
658,09	1519,593
658,29	1409,002
658,49	1478,633
658,68	1564,648
658,88	1540,072
659,07	1519,593
659,27	1564,648
659,47	1392,619
659,66	1523,689
659,86	1452,010
660,06	1490,921
660,25	1411,050
660,45	1490,921
660,64	1554,408
660,84	1454,058
661,04	1490,921
661,23	1456,106
661,43	1486,825
661,63	1497,065
661,82	1456,106
662,02	1466,346
662,21	1585,128
662,41	1511,401
662,61	1445,866
662,80	1437,674
663,00	1501,161
663,19	1472,490
663,39	1662,951
663,59	1576,936
663,78	1433,578
663,98	1576,936
664,17	1662,951
664,37	1521,641
664,57	1607,655
664,76	1554,408
664,96	1439,722
665,15	1431,530
665,35	1372,139
665,55	1445,866
665,74	1452,010
665,94	1568,744
666,13	1437,674
666,33	1505,257
666,53	1472,490
666,72	1470,442
666,92	1495,017
667,11	1400,811
667,31	1382,379
667,50	1529,833
667,70	1519,593
667,90	1587,176
668,09	1400,811
668,29	1527,785
668,48	1400,811
668,68	1564,648
668,87	1447,914
669,07	1540,072
669,26	1484,777
669,46	1484,777
669,66	1554,408
669,85	1433,578
670,05	1402,859
670,24	1581,032
670,44	1544,168
670,63	1486,825
670,83	1511,401
671,02	1611,751
671,22	1523,689
671,42	1462,250
671,61	1421,290
671,81	1482,729
672,00	1452,010
672,20	1527,785
672,39	1488,873
672,59	1447,914
672,78	1486,825
672,98	1513,449
673,17	1462,250
673,37	1523,689
673,56	1554,408
673,76	1572,840
673,95	1515,497
674,15	1396,715
674,34	1511,401
674,54	1441,770
674,73	1562,600
674,93	1540,072
675,13	1525,737
675,32	1554,408
675,52	1548,264
675,71	1486,825
675,91	1470,442
676,10	1542,120
676,30	1431,530
676,49	1452,010
676,69	1560,552
676,88	1443,818
677,08	1470,442
677,27	1507,305
677,47	1531,881
677,66	1490,921
677,86	1542,120
678,05	1540,072
678,24	1515,497
678,44	1646,567
678,63	1482,729
678,83	1544,168
679,02	1443,818
679,22	1527,785
679,41	1558,504
679,61	1419,242
679,80	1603,560
680,00	1441,770
680,19	1505,257
680,39	1554,408
680,58	1505,257
680,78	1462,250
680,97	1466,346
681,17	1382,379
681,36	1497,065
681,56	1460,202
681,75	1521,641
681,94	1486,825
682,14	1568,744
682,33	1595,368
682,53	1531,881
682,72	1406,955
682,92	1497,065
683,11	1650,663
683,31	1392,619
683,50	1474,538
683,69	1443,818
683,89	1507,305
684,08	1503,209
684,28	1562,600
684,47	1521,641
684,67	1576,936
684,86	1429,482
685,06	1425,386
685,25	1523,689
685,44	1495,017
685,64	1495,017
685,83	1484,777
686,03	1523,689
686,22	1552,360
686,42	1417,194
686,61	1470,442
686,80	1454,058
687,00	1425,386
687,19	1550,312
687,39	1447,914
687,58	1466,346
687,77	1578,984
687,97	1492,969
688,16	1505,257
688,36	1531,881
688,55	1480,681
688,74	1601,512
688,94	1552,360
689,13	1531,881
689,33	1531,881
689,52	1441,770
689,71	1312,748
689,91	1445,866
690,10	1421,290
690,30	1478,633
690,49	1540,072
690,68	1488,873
690,88	1538,025
691,07	1433,578
691,27	1544,168
691,46	1540,072
691,65	1531,881
691,85	1564,648
692,04	1519,593
692,23	1497,065
692,43	1585,128
692,62	1482,729
692,82	1495,017
693,01	1511,401
693,20	1492,969
693,40	1546,216
693,59	1513,449
693,78	1468,394
693,98	1488,873
694,17	1480,681
694,36	1572,840
694,56	1484,777
694,75	1535,977
694,94	1533,929
695,14	1458,154
695,33	1511,401
695,53	1607,655
695,72	1470,442
695,91	1499,113
696,11	1460,202
696,30	1538,025
696,49	1392,619
696,69	1642,471
696,88	1497,065
697,07	1466,346
697,27	1531,881
697,46	1519,593
697,65	1552,360
697,85	1527,785
698,04	1478,633
698,23	1466,346
698,43	1519,593
698,62	1568,744
698,81	1439,722
699,01	1468,394
699,20	1503,209
699,39	1544,168
699,58	1550,312
699,78	1511,401
699,97	1568,744
700,16	1501,161
700,36	1511,401
700,55	1474,538
700,74	1578,984
700,94	1431,530
701,13	1466,346
701,32	1581,032
701,52	1542,120
701,71	1509,353
701,90	1460,202
702,09	1486,825
702,29	1548,264
702,48	1505,257
702,67	1480,681
702,87	1605,608
703,06	1503,209
703,25	1654,759
703,44	1501,161
703,64	1589,224
703,83	1507,305
704,02	1644,519
704,22	1474,538
704,41	1497,065
704,60	1546,216
704,79	1488,873
704,99	1540,072
705,18	1447,914
705,37	1558,504
705,56	1568,744
705,76	1531,881
705,95	1544,168
706,14	1441,770
706,33	1396,715
706,53	1458,154
706,72	1521,641
706,91	1497,065
707,11	1507,305
707,30	1376,235
707,49	1560,552
707,68	1472,490
707,88	1544,168
708,07	1509,353
708,26	1525,737
708,45	1538,025
708,64	1495,017
708,84	1595,368
709,03	1509,353
709,22	1449,962
709,41	1515,497
709,61	1404,907
709,80	1521,641
709,99	1521,641
710,18	1613,799
710,38	1507,305
710,57	1437,674
710,76	1429,482
710,95	1497,065
711,14	1552,360
711,34	1511,401
711,53	1499,113
711,72	1593,320
711,91	1411,050
712,11	1556,456
712,30	1454,058
712,49	1564,648
712,68	1499,113
712,87	1556,456
713,07	1505,257
713,26	1574,888
713,45	1664,999
713,64	1552,360
713,83	1550,312
714,03	1538,025
714,22	1564,648
714,41	1464,298
714,60	1538,025
714,79	1437,674
714,99	1486,825
715,18	1452,010
715,37	1570,792
715,56	1501,161
715,75	1552,360
715,94	1589,224
716,14	1400,811
716,33	1486,825
716,52	1503,209
716,71	1568,744
716,90	1515,497
717,10	1621,991
717,29	1505,257
717,48	1603,560
717,67	1527,785
717,86	1538,025
718,05	1523,689
718,24	1544,168
718,44	1548,264
718,63	1554,408
718,82	1544,168
719,01	1505,257
719,20	1492,969
719,39	1628,135
719,59	1345,515
719,78	1468,394
719,97	1497,065
720,16	1542,120
720,35	1570,792
720,54	1599,464
720,73	1468,394
720,93	1581,032
721,12	1517,545
721,31	1527,785
721,50	1501,161
721,69	1587,176
721,88	1499,113
722,07	1564,648
722,27	1517,545
722,46	1454,058
722,65	1531,881
722,84	1474,538
723,03	1435,626
723,22	1509,353
723,41	1472,490
723,60	1630,183
723,79	1593,320
723,99	1509,353
724,18	1495,017
724,37	1501,161
724,56	1560,552
724,75	1513,449
724,94	1488,873
725,13	1642,471
725,32	1589,224
725,51	1384,427
725,71	1394,667
725,90	1437,674
726,09	1603,560
726,28	1515,497
726,47	1396,715
726,66	1548,264
726,85	1384,427
727,04	1497,065
727,23	1413,098
727,42	1546,216
727,61	1525,737
727,81	1636,327
728,00	1599,464
728,19	1556,456
728,38	1490,921
728,57	1472,490
728,76	1540,072
728,95	1535,977
729,14	1462,250
729,33	1484,777
729,52	1531,881
729,71	1605,608
729,90	1509,353
730,09	1443,818
730,28	1527,785
730,48	1546,216
730,67	1544,168
730,86	1591,272
731,05	1501,161
731,24	1470,442
731,43	1501,161
731,62	1533,929
731,81	1517,545
732,00	1507,305
732,19	1652,711
732,38	1585,128
732,57	1445,866
732,76	1499,113
732,95	1495,017
733,14	1411,050
733,33	1503,209
733,52	1468,394
733,71	1531,881
733,90	1419,242
734,09	1585,128
734,28	1484,777
734,47	1511,401
734,66	1601,512
734,85	1607,655
735,04	1464,298
735,23	1501,161
735,42	1495,017
735,61	1552,360
735,81	1490,921
736,00	1488,873
736,19	1497,065
736,38	1435,626
736,57	1583,080
736,76	1544,168
736,95	1449,962
737,14	1490,921
737,33	1501,161
737,52	1449,962
737,71	1523,689
737,90	1628,135
738,09	1542,120
738,28	1554,408
738,47	1621,991
738,66	1490,921
738,85	1564,648
739,04	1529,833
739,22	1476,585
739,41	1507,305
739,60	1499,113
739,79	1462,250
739,98	1515,497
740,17	1486,825
740,36	1556,456
740,55	1474,538
740,74	1583,080
740,93	1454,058
741,12	1552,360
741,31	1589,224
741,50	1519,593
741,69	1454,058
741,88	1419,242
742,07	1474,538
742,26	1503,209
742,45	1519,593
742,64	1603,560
742,83	1421,290
743,02	1525,737
743,21	1671,142
743,40	1546,216
743,59	1474,538
743,78	1415,146
743,97	1531,881
744,16	1425,386
744,34	1527,785
744,53	1529,833
744,72	1482,729
744,91	1503,209
745,10	1554,408
745,29	1540,072
745,48	1568,744
745,67	1501,161
745,86	1529,833
746,05	1572,840
746,24	1488,873
746,43	1515,497
746,62	1562,600
746,81	1447,914
747,00	1468,394
747,18	1611,751
747,37	1531,881
747,56	1607,655
747,75	1484,777
747,94	1542,120
748,13	1441,770
748,32	1570,792
748,51	1476,585
748,70	1611,751
748,89	1523,689
749,08	1466,346
749,26	1511,401
749,45	1495,017
749,64	1445,866
749,83	1474,538
750,02	1466,346
750,21	1583,080
750,40	1572,840
750,59	1669,095
750,78	1667,047
750,96	1454,058
751,15	1439,722
751,34	1540,072
751,53	1591,272
751,72	1449,962
751,91	1497,065
752,10	1525,737
752,29	1458,154
752,47	1466,346
752,66	1531,881
752,85	1519,593
753,04	1535,977
753,23	1535,977
753,42	1587,176
753,61	1519,593
753,80	1507,305
753,98	1607,655
754,17	1447,914
754,36	1497,065
754,55	1443,818
754,74	1558,504
754,93	1581,032
755,12	1572,840
755,30	1425,386
755,49	1527,785
755,68	1525,737
755,87	1454,058
756,06	1507,305
756,25	1535,977
756,43	1525,737
756,62	1421,290
756,81	1468,394
757,00	1595,368
757,19	1484,777
757,38	1480,681
757,56	1554,408
757,75	1564,648
757,94	1531,881
758,13	1578,984
758,32	1445,866
758,51	1507,305
758,69	1488,873
758,88	1476,585
759,07	1484,777
759,26	1533,929
759,45	1501,161
759,63	1521,641
759,82	1449,962
760,01	1517,545
760,20	1548,264
760,39	1533,929
760,57	1533,929
760,76	1476,585
760,95	1470,442
761,14	1435,626
761,33	1562,600
761,51	1521,641
761,70	1583,080
761,89	1521,641
762,08	1470,442
762,27	1576,936
762,45	1513,449
762,64	1531,881
762,83	1581,032
763,02	1447,914
763,21	1540,072
763,39	1499,113
763,58	1497,065
763,77	1558,504
763,96	1513,449
764,14	1566,696
764,33	1484,777
764,52	1515,497
764,71	1447,914
764,89	1497,065
765,08	1669,095
765,27	1609,703
765,46	1474,538
765,65	1484,777
765,83	1466,346
766,02	1425,386
766,21	1566,696
766,40	1728,486
766,58	1566,696
766,77	1495,017
766,96	1497,065
767,15	1478,633
767,33	1527,785
767,52	1576,936
767,71	1581,032
767,90	1509,353
768,08	1550,312
768,27	1503,209
768,46	1533,929
768,64	1595,368
768,83	1472,490
769,02	1482,729
769,21	1499,113
769,39	1460,202
769,58	1556,456
769,77	1654,759
769,96	1482,729
770,14	1585,128
770,33	1523,689
770,52	1718,246
770,70	1656,807
770,89	1593,320
771,08	1521,641
771,27	1523,689
771,45	1521,641
771,64	1585,128
771,83	1617,895
772,01	1525,737
772,20	1445,866
772,39	1556,456
772,57	1484,777
772,76	1578,984
772,95	1486,825
773,14	1675,238
773,32	1413,098
773,51	1564,648
773,70	1552,360
773,88	1617,895
774,07	1392,619
774,26	1454,058
774,44	1441,770
774,63	1411,050
774,82	1476,585
775,00	1566,696
775,19	1619,943
775,38	1482,729
775,56	1521,641
775,75	1617,895
775,94	1603,560
776,12	1452,010
776,31	1521,641
776,50	1535,977
776,68	1636,327
776,87	1535,977
777,06	1531,881
777,24	1497,065
777,43	1527,785
777,62	1578,984
777,80	1523,689
777,99	1556,456
778,18	1581,032
778,36	1470,442
778,55	1525,737
778,74	1505,257
778,92	1607,655
779,11	1669,095
779,29	1519,593
779,48	1507,305
779,67	1568,744
779,85	1425,386
780,04	1613,799
780,23	1529,833
780,41	1527,785
780,60	1552,360
780,79	1554,408
780,97	1437,674
781,16	1460,202
781,34	1515,497
781,53	1576,936
781,72	1515,497
781,90	1458,154
782,09	1417,194
782,28	1644,519
782,46	1544,168
782,65	1468,394
782,83	1562,600
783,02	1421,290
783,21	1486,825
783,39	1591,272
783,58	1572,840
783,76	1525,737
783,95	1468,394
784,14	1564,648
784,32	1445,866
784,51	1617,895
784,69	1583,080
784,88	1560,552
785,06	1548,264
785,25	1525,737
785,44	1574,888
785,62	1564,648
785,81	1593,320
785,99	1599,464
786,18	1488,873
786,37	1560,552
786,55	1505,257
786,74	1554,408
786,92	1552,360
787,11	1589,224
787,29	1609,703
787,48	1540,072
787,67	1628,135
787,85	1708,006
788,04	1441,770
788,22	1525,737
788,41	1699,814
788,59	1521,641
788,78	1587,176
788,96	1513,449
789,15	1626,087
789,34	1552,360
789,52	1589,224
789,71	1447,914
789,89	1499,113
790,08	1613,799
790,26	1466,346
790,45	1634,279
790,63	1435,626
790,82	1572,840
791,00	1482,729
791,19	1443,818
791,38	1626,087
791,56	1511,401
791,75	1517,545
791,93	1441,770
792,12	1511,401
792,30	1470,442
792,49	1417,194
792,67	1525,737
792,86	1564,648
793,04	1601,512
793,23	1540,072
793,41	1566,696
793,60	1533,929
793,78	1560,552
793,97	1562,600
794,15	1515,497
794,34	1544,168
794,52	1558,504
794,71	1617,895
794,89	1589,224
795,08	1578,984
795,26	1538,025
795,45	1478,633
795,63	1556,456
795,82	1519,593
796,00	1617,895
796,19	1490,921
796,37	1638,375
796,56	1628,135
796,74	1535,977
796,93	1431,530
797,11	1621,991
797,30	1523,689
797,48	1509,353
797,67	1583,080
797,85	1501,161
798,04	1566,696
798,22	1511,401
798,41	1675,238
798,59	1470,442
798,77	1531,881
798,96	1462,250
799,14	1621,991
799,33	1513,449
799,51	1572,840
799,70	1654,759
799,88	1646,567
800,07	1560,552
800,25	1509,353
800,44	1599,464
800,62	1652,711
800,80	1490,921
800,99	1566,696
801,17	1474,538
801,36	1562,600
801,54	1679,334
801,73	1642,471
801,91	1540,072
802,10	1525,737
802,28	1460,202
802,46	1554,408
802,65	1554,408
802,83	1675,238
803,02	1597,416
803,20	1642,471
803,39	1404,907
803,57	1585,128
803,75	1513,449
803,94	1474,538
804,12	1458,154
804,31	1531,881
804,49	1527,785
804,67	1533,929
804,86	1583,080
805,04	1507,305
805,23	1531,881
805,41	1511,401
805,59	1531,881
805,78	1447,914
805,96	1669,095
806,15	1585,128
806,33	1503,209
806,51	1624,039
806,70	1677,286
806,88	1531,881
807,07	1605,608
807,25	1615,847
807,43	1548,264
807,62	1581,032
807,80	1482,729
807,99	1560,552
808,17	1572,840
808,35	1626,087
808,54	1593,320
808,72	1509,353
808,90	1605,608
809,09	1593,320
809,27	1607,655
809,46	1630,183
809,64	1527,785
809,82	1679,334
810,01	1525,737
810,19	1669,095
810,37	1605,608
810,56	1636,327
810,74	1560,552
810,92	1705,958
811,11	1634,279
811,29	1568,744
811,48	1562,600
811,66	1497,065
811,84	1505,257
812,03	1638,375
812,21	1662,951
812,39	1583,080
812,58	1456,106
812,76	1648,615
812,94	1564,648
813,13	1681,382
813,31	1531,881
813,49	1609,703
813,68	1671,142
813,86	1572,840
814,04	1617,895
814,23	1572,840
814,41	1540,072
814,59	1497,065
814,78	1650,663
814,96	1595,368
815,14	1548,264
815,33	1720,294
815,51	1601,512
815,69	1507,305
815,87	1425,386
816,06	1619,943
816,24	1593,320
816,42	1490,921
816,61	1499,113
816,79	1589,224
816,97	1552,360
817,16	1521,641
817,34	1562,600
817,52	1589,224
817,70	1701,862
817,89	1552,360
818,07	1564,648
818,25	1628,135
818,44	1677,286
818,62	1521,641
818,80	1482,729
818,98	1564,648
819,17	1613,799
819,35	1689,574
819,53	1583,080
819,72	1644,519
819,90	1558,504
820,08	1568,744
820,26	1542,120
820,45	1439,722
820,63	1695,718
820,81	1472,490
820,99	1560,552
821,18	1646,567
821,36	1683,430
821,54	1603,560
821,73	1654,759
821,91	1626,087
822,09	1621,991
822,27	1576,936
822,46	1640,423
822,64	1564,648
822,82	1675,238
823,00	1617,895
823,19	1751,013
823,37	1673,190
823,55	1601,512
823,73	1570,792
823,91	1460,202
824,10	1634,279
824,28	1675,238
824,46	1535,977
824,64	1615,847
824,83	1630,183
825,01	1443,818
825,19	1552,360
825,37	1482,729
825,56	1654,759
825,74	1566,696
825,92	1566,696
826,10	1609,703
826,28	1595,368
826,47	1615,847
826,65	1593,320
826,83	1593,320
827,01	1605,608
827,19	1687,526
827,38	1710,054
827,56	1669,095
827,74	1671,142
827,92	1669,095
828,10	1605,608
828,29	1693,670
828,47	1742,821
828,65	1540,072
828,83	1556,456
829,01	1589,224
829,20	1658,855
829,38	1511,401
829,56	1642,471
829,74	1605,608
829,92	1646,567
830,10	1576,936
830,29	1609,703
830,47	1716,198
830,65	1597,416
830,83	1658,855
831,01	1556,456
831,20	1593,320
831,38	1599,464
831,56	1593,320
831,74	1669,095
831,92	1630,183
832,10	1548,264
832,29	1538,025
832,47	1679,334
832,65	1679,334
832,83	1646,567
833,01	1578,984
833,19	1540,072
833,37	1669,095
833,56	1531,881
833,74	1583,080
833,92	1603,560
834,10	1492,969
834,28	1705,958
834,46	1732,582
834,64	1501,161
834,83	1687,526
835,01	1789,925
835,19	1544,168
835,37	1562,600
835,55	1605,608
835,73	1583,080
835,91	1572,840
836,09	1630,183
836,28	1599,464
836,46	1562,600
836,64	1615,847
836,82	1609,703
837,00	1699,814
837,18	1601,512
837,36	1648,615
837,54	1673,190
837,72	1695,718
837,91	1624,039
838,09	1585,128
838,27	1695,718
838,45	1587,176
838,63	1548,264
838,81	1695,718
838,99	1581,032
839,17	1554,408
839,35	1804,260
839,53	1677,286
839,72	1619,943
839,90	1572,840
840,08	1560,552
840,26	1716,198
840,44	1607,655
840,62	1441,770
840,80	1769,445
840,98	1751,013
841,16	1656,807
841,34	1499,113
841,52	1587,176
841,70	1533,929
841,89	1601,512
842,07	1630,183
842,25	1714,150
842,43	1585,128
842,61	1687,526
842,79	1710,054
842,97	1550,312
843,15	1646,567
843,33	1558,504
843,51	1605,608
843,69	1601,512
843,87	1636,327
844,05	1628,135
844,23	1787,877
844,41	1544,168
844,59	1601,512
844,77	1552,360
844,95	1495,017
845,13	1589,224
845,31	1538,025
845,50	1677,286
845,68	1634,279
845,86	1599,464
846,04	1617,895
846,22	1624,039
846,40	1531,881
846,58	1521,641
846,76	1523,689
846,94	1644,519
847,12	1515,497
847,30	1556,456
847,48	1587,176
847,66	1632,231
847,84	1558,504
848,02	1628,135
848,20	1689,574
848,38	1679,334
848,56	1757,157
848,74	1515,497
848,92	1546,216
849,10	1712,102
849,28	1685,478
849,46	1701,862
849,64	1540,072
849,82	1712,102
850,00	1673,190
850,18	1667,047
850,36	1517,545
850,54	1669,095
850,72	1642,471
850,90	1677,286
851,08	1486,825
851,26	1673,190
851,44	1556,456
851,62	1548,264
851,80	1662,951
851,98	1763,301
852,16	1826,788
852,34	1591,272
852,52	1710,054
852,70	1619,943
852,87	1499,113
853,05	1593,320
853,23	1515,497
853,41	1650,663
853,59	1791,973
853,77	1716,198
853,95	1740,773
854,13	1638,375
854,31	1632,231
854,49	1619,943
854,67	1613,799
854,85	1554,408
855,03	1603,560
855,21	1636,327
855,39	1693,670
855,57	1519,593
855,75	1589,224
855,93	1544,168
856,11	1695,718
856,28	1628,135
856,46	1538,025
856,64	1748,965
856,82	1499,113
857,00	1624,039
857,18	1599,464
857,36	1687,526
857,54	1566,696
857,72	1755,109
857,90	1517,545
858,08	1712,102
858,26	1546,216
858,44	1628,135
858,61	1652,711
858,79	1583,080
858,97	1669,095
859,15	1720,294
859,33	1587,176
859,51	1576,936
859,69	1587,176
859,87	1581,032
860,05	1597,416
860,23	1564,648
860,40	1505,257
860,58	1654,759
860,76	1556,456
860,94	1583,080
861,12	1607,655
861,30	1654,759
861,48	1507,305
861,66	1607,655
861,84	1507,305
862,01	1662,951
862,19	1552,360
862,37	1603,560
862,55	1597,416
862,73	1644,519
862,91	1558,504
863,09	1644,519
863,27	1619,943
863,44	1576,936
863,62	1585,128
863,80	1646,567
863,98	1544,168
864,16	1609,703
864,34	1558,504
864,52	1652,711
864,69	1585,128
864,87	1669,095
865,05	1521,641
865,23	1587,176
865,41	1542,120
865,59	1603,560
865,76	1746,917
865,94	1683,430
866,12	1437,674
866,30	1689,574
866,48	1662,951
866,66	1564,648
866,83	1548,264
867,01	1570,792
867,19	1628,135
867,37	1689,574
867,55	1642,471
867,73	1673,190
867,90	1535,977
868,08	1783,781
868,26	1535,977
868,44	1529,833
868,62	1683,430
868,79	1568,744
868,97	1628,135
869,15	1509,353
869,33	1529,833
869,51	1568,744
869,69	1519,593
869,86	1607,655
870,04	1714,150
870,22	1535,977
870,40	1562,600
870,57	1476,585
870,75	1648,615
870,93	1554,408
871,11	1624,039
871,29	1521,641
871,46	1587,176
871,64	1501,161
871,82	1609,703
872,00	1712,102
872,18	1605,608
872,35	1685,478
872,53	1558,504
872,71	1509,353
872,89	1617,895
873,06	1626,087
873,24	1558,504
873,42	1658,855
873,60	1677,286
873,77	1705,958
873,95	1531,881
874,13	1724,390
874,31	1527,785
874,49	1581,032
874,66	1581,032
874,84	1466,346
875,02	1646,567
875,20	1644,519
875,37	1576,936
875,55	1603,560
875,73	1560,552
875,91	1728,486
876,08	1558,504
876,26	1599,464
876,44	1552,360
876,61	1560,552
876,79	1728,486
876,97	1617,895
877,15	1636,327
877,32	1609,703
877,50	1613,799
877,68	1642,471
877,86	1480,681
878,03	1652,711
878,21	1585,128
878,39	1527,785
878,56	1621,991
878,74	1466,346
878,92	1560,552
879,10	1615,847
879,27	1560,552
879,45	1689,574
879,63	1578,984
879,80	1566,696
879,98	1535,977
880,16	1652,711
880,34	1589,224
880,51	1671,142
880,69	1548,264
880,87	1642,471
881,04	1640,423
881,22	1662,951
881,40	1638,375
881,57	1644,519
881,75	1687,526
881,93	1716,198
882,10	1687,526
882,28	1650,663
882,46	1560,552
882,63	1671,142
882,81	1617,895
882,99	1472,490
883,16	1621,991
883,34	1669,095
883,52	1566,696
883,69	1638,375
883,87	1638,375
884,05	1638,375
884,22	1740,773
884,40	1540,072
884,58	1435,626
884,75	1570,792
884,93	1630,183
885,11	1621,991
885,28	1515,497
885,46	1621,991
885,64	1564,648
885,81	1591,272
885,99	1587,176
886,17	1521,641
886,34	1611,751
886,52	1759,205
886,70	1587,176
886,87	1662,951
887,05	1564,648
887,22	1572,840
887,40	1718,246
887,58	1515,497
887,75	1650,663
887,93	1599,464
888,11	1574,888
888,28	1552,360
888,46	1538,025
888,63	1570,792
888,81	1519,593
888,99	1630,183
889,16	1595,368
889,34	1535,977
889,51	1617,895
889,69	1708,006
889,87	1495,017
890,04	1603,560
890,22	1474,538
890,39	1388,523
890,57	1601,512
890,75	1587,176
890,92	1638,375
891,10	1705,958
891,27	1662,951
891,45	1708,006
891,63	1531,881
891,80	1609,703
891,98	1648,615
892,15	1499,113
892,33	1660,903
892,51	1599,464
892,68	1654,759
892,86	1595,368
893,03	1714,150
893,21	1675,238
893,38	1638,375
893,56	1679,334
893,74	1626,087
893,91	1517,545
894,09	1556,456
894,26	1705,958
894,44	1603,560
894,61	1716,198
894,79	1435,626
894,96	1628,135
895,14	1638,375
895,32	1581,032
895,49	1556,456
895,67	1576,936
895,84	1570,792
896,02	1652,711
896,19	1589,224
896,37	1587,176
896,54	1603,560
896,72	1595,368
896,89	1609,703
897,07	1742,821
897,25	1697,766
897,42	1648,615
897,60	1578,984
897,77	1523,689
897,95	1644,519
898,12	1636,327
898,30	1624,039
898,47	1578,984
898,65	1454,058
898,82	1589,224
899,00	1740,773
899,17	1726,438
899,35	1683,430
899,52	1597,416
899,70	1613,799
899,87	1583,080
900,05	1593,320
900,22	1585,128
900,40	1576,936
900,57	1609,703
900,75	1660,903
900,92	1650,663
901,10	1566,696
901,27	1654,759
901,45	1624,039
901,62	1607,655
901,80	1550,312
901,97	1562,600
902,15	1558,504
902,32	1587,176
902,50	1581,032
902,67	1568,744
902,85	1662,951
903,02	1755,109
903,20	1578,984
903,37	1488,873
903,54	1734,630
903,72	1656,807
903,89	1593,320
904,07	1581,032
904,24	1642,471
904,42	1617,895
904,59	1521,641
904,77	1581,032
904,94	1492,969
905,12	1667,047
905,29	1578,984
905,47	1636,327
905,64	1509,353
905,81	1556,456
905,99	1458,154
906,16	1681,382
906,34	1632,231
906,51	1591,272
906,69	1501,161
906,86	1638,375
907,03	1574,888
907,21	1513,449
907,38	1626,087
907,56	1644,519
907,73	1624,039
907,91	1578,984
908,08	1624,039
908,25	1568,744
908,43	1701,862
908,60	1687,526
908,78	1574,888
908,95	1687,526
909,13	1675,238
909,30	1757,157
909,47	1662,951
909,65	1728,486
909,82	1640,423
910,00	1552,360
910,17	1714,150
910,34	1720,294
910,52	1585,128
910,69	1531,881
910,87	1576,936
911,04	1515,497
911,21	1662,951
911,39	1626,087
911,56	1640,423
911,73	1599,464
911,91	1599,464
912,08	1697,766
912,26	1617,895
912,43	1699,814
912,60	1538,025
912,78	1556,456
912,95	1699,814
913,13	1656,807
913,30	1671,142
913,47	1742,821
913,65	1624,039
913,82	1570,792
913,99	1646,567
914,17	1621,991
914,34	1732,582
914,51	1605,608
914,69	1695,718
914,86	1638,375
915,03	1697,766
915,21	1611,751
915,38	1607,655
915,56	1728,486
915,73	1703,910
915,90	1566,696
916,08	1515,497
916,25	1761,253
916,42	1486,825
916,60	1595,368
916,77	1675,238
916,94	1628,135
917,12	1572,840
917,29	1677,286
917,46	1480,681
917,64	1566,696
917,81	1626,087
917,98	1462,250
918,16	1714,150
918,33	1609,703
918,50	1638,375
918,67	1648,615
918,85	1654,759
919,02	1615,847
919,19	1662,951
919,37	1736,678
919,54	1480,681
919,71	1636,327
919,89	1613,799
920,06	1722,342
920,23	1732,582
920,41	1564,648
920,58	1550,312
920,75	1593,320
920,92	1556,456
921,10	1533,929
921,27	1583,080
921,44	1701,862
921,62	1560,552
921,79	1765,349
921,96	1507,305
922,13	1669,095
922,31	1564,648
922,48	1527,785
922,65	1546,216
922,82	1519,593
923,00	1724,390
923,17	1683,430
923,34	1646,567
923,52	1587,176
923,69	1648,615
923,86	1652,711
924,03	1626,087
924,21	1435,626
924,38	1632,231
924,55	1568,744
924,72	1685,478
924,90	1585,128
925,07	1730,534
925,24	1705,958
925,41	1626,087
925,59	1689,574
925,76	1523,689
925,93	1685,478
926,10	1796,069
926,28	1535,977
926,45	1816,548
926,62	1566,696
926,79	1742,821
926,96	1621,991
927,14	1630,183
927,31	1449,962
927,48	1576,936
927,65	1646,567
927,83	1636,327
928,00	1562,600
928,17	1515,497
928,34	1495,017
928,51	1605,608
928,69	1601,512
928,86	1644,519
929,03	1689,574
929,20	1585,128
929,37	1648,615
929,55	1599,464
929,72	1640,423
929,89	1650,663
930,06	1662,951
930,23	1640,423
930,41	1736,678
930,58	1703,910
930,75	1695,718
930,92	1595,368
931,09	1593,320
931,27	1601,512
931,44	1548,264
931,61	1664,999
931,78	1488,873
931,95	1503,209
932,12	1529,833
932,30	1535,977
932,47	1568,744
932,64	1734,630
932,81	1671,142
932,98	1540,072
933,16	1617,895
933,33	1599,464
933,50	1634,279
933,67	1642,471
933,84	1570,792
934,01	1572,840
934,18	1712,102
934,36	1648,615
934,53	1578,984
934,70	1621,991
934,87	1499,113
935,04	1488,873
935,21	1497,065
935,38	1476,585
935,56	1617,895
935,73	1585,128
935,90	1480,681
936,07	1531,881
936,24	1601,512
936,41	1499,113
936,58	1587,176
936,76	1613,799
936,93	1593,320
937,10	1513,449
937,27	1630,183
937,44	1456,106
937,61	1499,113
937,78	1664,999
937,95	1550,312
938,13	1540,072
938,30	1570,792
938,47	1730,534
938,64	1501,161
938,81	1548,264
938,98	1597,416
939,15	1558,504
939,32	1591,272
939,49	1619,943
939,66	1554,408
939,84	1482,729
940,01	1548,264
940,18	1611,751
940,35	1574,888
940,52	1523,689
940,69	1626,087
940,86	1570,792
941,03	1511,401
941,20	1556,456
941,37	1554,408
941,54	1527,785
941,71	1521,641
941,89	1595,368
942,06	1572,840
942,23	1615,847
942,40	1720,294
942,57	1474,538
942,74	1490,921
942,91	1556,456
943,08	1662,951
943,25	1630,183
943,42	1677,286
943,59	1609,703
943,76	1515,497
943,93	1538,025
944,10	1464,298
944,27	1628,135
944,44	1560,552
944,61	1484,777
944,79	1517,545
944,96	1542,120
945,13	1732,582
945,30	1527,785
945,47	1560,552
945,64	1603,560
945,81	1634,279
945,98	1591,272
946,15	1562,600
946,32	1568,744
946,49	1599,464
946,66	1632,231
946,83	1554,408
947,00	1564,648
947,17	1597,416
947,34	1546,216
947,51	1566,696
947,68	1501,161
947,85	1529,833
948,02	1521,641
948,19	1681,382
948,36	1652,711
948,53	1574,888
948,70	1540,072
948,87	1673,190
949,04	1617,895
949,21	1523,689
949,38	1568,744
949,55	1525,737
949,72	1570,792
949,89	1621,991
950,06	1617,895
950,23	1640,423
950,40	1400,811
950,57	1570,792
950,74	1710,054
950,91	1540,072
951,08	1576,936
951,25	1484,777
951,42	1560,552
951,59	1497,065
951,76	1544,168
951,93	1544,168
952,10	1445,866
952,27	1472,490
952,44	1505,257
952,61	1552,360
952,77	1525,737
952,94	1480,681
953,11	1552,360
953,28	1603,560
953,45	1548,264
953,62	1568,744
953,79	1558,504
953,96	1638,375
954,13	1429,482
954,30	1515,497
954,47	1515,497
954,64	1513,449
954,81	1556,456
954,98	1503,209
955,15	1503,209
955,32	1591,272
955,49	1548,264
955,65	1531,881
955,82	1609,703
955,99	1599,464
956,16	1615,847
956,33	1527,785
956,50	1517,545
956,67	1597,416
956,84	1646,567
957,01	1624,039
957,18	1589,224
957,35	1544,168
957,52	1603,560
957,68	1562,600
957,85	1533,929
958,02	1587,176
958,19	1499,113
958,36	1570,792
958,53	1583,080
958,70	1601,512
958,87	1462,250
959,04	1511,401
959,21	1626,087
959,37	1566,696
959,54	1546,216
959,71	1445,866
959,88	1464,298
960,05	1527,785
960,22	1425,386
960,39	1554,408
960,56	1548,264
960,72	1478,633
960,89	1714,150
961,06	1562,600
961,23	1497,065
961,40	1652,711
961,57	1603,560
961,74	1499,113
961,90	1560,552
962,07	1521,641
962,24	1544,168
962,41	1685,478
962,58	1585,128
962,75	1581,032
962,92	1607,655
963,08	1617,895
963,25	1435,626
963,42	1515,497
963,59	1562,600
963,76	1521,641
963,93	1583,080
964,10	1466,346
964,26	1656,807
964,43	1636,327
964,60	1626,087
964,77	1578,984
964,94	1429,482
965,10	1529,833
965,27	1468,394
965,44	1542,120
965,61	1486,825
965,78	1669,095
965,95	1603,560
966,11	1603,560
966,28	1611,751
966,45	1568,744
966,62	1554,408
966,79	1601,512
966,95	1568,744
967,12	1613,799
967,29	1624,039
967,46	1523,689
967,63	1591,272
967,79	1523,689
967,96	1574,888
968,13	1605,608
968,30	1642,471
968,47	1511,401
968,63	1609,703
968,80	1595,368
968,97	1546,216
969,14	1679,334
969,31	1443,818
969,47	1548,264
969,64	1662,951
969,81	1603,560
969,98	1605,608
970,14	1470,442
970,31	1443,818
970,48	1527,785
970,65	1646,567
970,81	1607,655
970,98	1662,951
971,15	1597,416
971,32	1484,777
971,48	1591,272
971,65	1531,881
971,82	1535,977
971,99	1566,696
972,15	1587,176
972,32	1533,929
972,49	1632,231
972,66	1681,382
972,82	1570,792
972,99	1624,039
973,16	1677,286
973,33	1527,785
973,49	1636,327
973,66	1552,360
973,83	1701,862
974,00	1497,065
974,16	1490,921
974,33	1726,438
974,50	1626,087
974,67	1519,593
974,83	1578,984
975,00	1597,416
975,17	1626,087
975,33	1525,737
975,50	1581,032
975,67	1699,814
975,84	1548,264
976,00	1576,936
976,17	1658,855
976,34	1540,072
976,50	1683,430
976,67	1503,209
976,84	1585,128
977,00	1480,681
977,17	1470,442
977,34	1761,253
977,50	1583,080
977,67	1593,320
977,84	1597,416
978,01	1529,833
978,17	1699,814
978,34	1533,929
978,51	1628,135
978,67	1501,161
978,84	1621,991
979,01	1744,869
979,17	1490,921
979,34	1564,648
979,51	1550,312
979,67	1671,142
979,84	1724,390
980,01	1681,382
980,17	1636,327
980,34	1476,585
980,51	1658,855
980,67	1492,969
980,84	1656,807
981,01	1677,286
981,17	1687,526
981,34	1751,013
981,50	1589,224
981,67	1589,224
981,84	1732,582
982,00	1812,452
982,17	1605,608
982,34	1486,825
982,50	1726,438
982,67	1621,991
982,84	1738,725
983,00	1529,833
983,17	1576,936
983,33	1626,087
983,50	1630,183
983,67	1562,600
983,83	1550,312
984,00	1673,190
984,17	1693,670
984,33	1710,054
984,50	1560,552
984,66	1646,567
984,83	1669,095
985,00	1619,943
985,16	1673,190
985,33	1566,696
985,49	1617,895
985,66	1554,408
985,83	1664,999
985,99	1558,504
986,16	1646,567
986,32	1560,552
986,49	1574,888
986,66	1615,847
986,82	1572,840
986,99	1599,464
987,15	1462,250
987,32	1572,840
987,49	1611,751
987,65	1607,655
987,82	1619,943
987,98	1634,279
988,15	1658,855
988,31	1613,799
988,48	1626,087
988,65	1646,567
988,81	1525,737
988,98	1652,711
989,14	1521,641
989,31	1687,526
989,47	1611,751
989,64	1617,895
989,80	1611,751
989,97	1572,840
990,14	1705,958
990,30	1609,703
990,47	1585,128
990,63	1656,807
990,80	1527,785
990,96	1736,678
991,13	1718,246
991,29	1677,286
991,46	1601,512
991,62	1613,799
991,79	1527,785
991,95	1660,903
992,12	1683,430
992,29	1583,080
992,45	1535,977
992,62	1751,013
992,78	1736,678
992,95	1576,936
993,11	1540,072
993,28	1611,751
993,44	1621,991
993,61	1574,888
993,77	1662,951
993,94	1652,711
994,10	1671,142
994,27	1667,047
994,43	1593,320
994,60	1669,095
994,76	1617,895
994,93	1646,567
995,09	1685,478
995,26	1626,087
995,42	1583,080
995,59	1683,430
995,75	1644,519
995,92	1794,021
996,08	1607,655
996,25	1589,224
996,41	1589,224
996,58	1728,486
996,74	1613,799
996,91	1675,238
997,07	1656,807
997,23	1621,991
997,40	1740,773
997,56	1681,382
997,73	1826,788
997,89	1689,574
998,06	1568,744
998,22	1730,534
998,39	1656,807
998,55	1581,032
998,72	1677,286
998,88	1632,231
999,05	1548,264
999,21	1642,471
999,37	1712,102
999,54	1603,560
999,70	1556,456
999,87	1591,272
1000,03	1675,238
1000,20	1642,471
1000,36	1802,212
1000,52	1605,608
1000,69	1806,308
1000,85	1533,929
1001,02	1714,150
1001,18	1560,552
1001,35	1664,999
1001,51	1597,416
1001,67	1822,692
1001,84	1693,670
1002,00	1630,183
1002,17	1591,272
1002,33	1636,327
1002,50	1568,744
1002,66	1685,478
1002,82	1658,855
1002,99	1662,951
1003,15	1687,526
1003,32	1591,272
1003,48	1570,792
1003,64	1656,807
1003,81	1722,342
1003,97	1675,238
1004,14	1681,382
1004,30	1574,888
1004,46	1679,334
1004,63	1677,286
1004,79	1419,242
1004,95	1673,190
1005,12	1593,320
1005,28	1734,630
1005,45	1626,087
1005,61	1517,545
1005,77	1689,574
1005,94	1626,087
1006,10	1464,298
1006,26	1675,238
1006,43	1497,065
1006,59	1662,951
1006,76	1712,102
1006,92	1632,231
1007,08	1755,109
1007,25	1554,408
1007,41	1644,519
1007,57	1527,785
1007,74	1615,847
1007,90	1726,438
1008,06	1535,977
1008,23	1570,792
1008,39	1679,334
1008,55	1640,423
1008,72	1611,751
1008,88	1687,526
1009,04	1716,198
1009,21	1710,054
1009,37	1601,512
1009,53	1564,648
1009,70	1591,272
1009,86	1585,128
1010,02	1589,224
1010,19	1585,128
1010,35	1601,512
1010,51	1654,759
1010,68	1644,519
1010,84	1613,799
1011,00	1619,943
1011,17	1568,744
1011,33	1568,744
1011,49	1634,279
1011,66	1656,807
1011,82	1763,301
1011,98	1773,541
1012,14	1564,648
1012,31	1691,622
1012,47	1576,936
1012,63	1683,430
1012,80	1656,807
1012,96	1621,991
1013,12	1722,342
1013,29	1658,855
1013,45	1730,534
1013,61	1550,312
1013,77	1691,622
1013,94	1542,120
1014,10	1550,312
1014,26	1591,272
1014,43	1656,807
1014,59	1685,478
1014,75	1578,984
1014,91	1705,958
1015,08	1667,047
1015,24	1544,168
1015,40	1716,198
1015,56	1740,773
1015,73	1488,873
1015,89	1490,921
1016,05	1650,663
1016,21	1466,346
1016,38	1732,582
1016,54	1726,438
1016,70	1562,600
1016,86	1712,102
1017,03	1699,814
1017,19	1587,176
1017,35	1621,991
1017,51	1581,032
1017,68	1576,936
1017,84	1742,821
1018,00	1572,840
1018,16	1613,799
1018,33	1519,593
1018,49	1648,615
1018,65	1679,334
1018,81	1578,984
1018,97	1669,095
1019,14	1658,855
1019,30	1777,637
1019,46	1689,574
1019,62	1607,655
1019,79	1644,519
1019,95	1656,807
1020,11	1562,600
1020,27	1572,840
1020,43	1548,264
1020,60	1574,888
1020,76	1617,895
1020,92	1695,718
1021,08	1654,759
1021,24	1628,135
1021,41	1681,382
1021,57	1724,390
1021,73	1630,183
1021,89	1650,663
1022,05	1648,615
1022,21	1611,751
1022,38	1431,530
1022,54	1617,895
1022,70	1542,120
1022,86	1552,360
1023,02	1628,135
1023,19	1662,951
1023,35	1769,445
1023,51	1503,209
1023,67	1538,025
1023,83	1599,464
1023,99	1509,353
1024,16	1554,408
1024,32	1671,142
1024,48	1673,190
1024,64	1636,327
1024,80	1662,951
1024,96	1732,582
1025,12	1597,416
1025,29	1540,072
1025,45	1513,449
1025,61	1554,408
1025,77	1683,430
1025,93	1554,408
1026,09	1601,512
1026,26	1640,423
1026,42	1546,216
1026,58	1583,080
1026,74	1548,264
1026,90	1411,050
1027,06	1589,224
1027,22	1734,630
1027,38	1613,799
1027,55	1566,696
1027,71	1621,991
1027,87	1542,120
1028,03	1540,072
1028,19	1642,471
1028,35	1624,039
1028,51	1519,593
1028,67	1521,641
1028,83	1533,929
1029,00	1570,792
1029,16	1574,888
1029,32	1578,984
1029,48	1486,825
1029,64	1527,785
1029,80	1495,017
1029,96	1738,725
1030,12	1619,943
1030,28	1656,807
1030,44	1572,840
1030,61	1701,862
1030,77	1519,593
1030,93	1636,327
1031,09	1437,674
1031,25	1558,504
1031,41	1568,744
1031,57	1488,873
1031,73	1585,128
1031,89	1576,936
1032,05	1474,538
1032,21	1548,264
1032,37	1589,224
1032,53	1531,881
1032,69	1533,929
1032,86	1529,833
1033,02	1511,401
1033,18	1552,360
1033,34	1466,346
1033,50	1568,744
1033,66	1574,888
1033,82	1583,080
1033,98	1652,711
1034,14	1642,471
1034,30	1552,360
1034,46	1572,840
1034,62	1576,936
1034,78	1624,039
1034,94	1599,464
1035,10	1556,456
1035,26	1521,641
1035,42	1589,224
1035,58	1601,512
1035,74	1585,128
1035,90	1609,703
1036,06	1560,552
1036,22	1460,202
1036,38	1593,320
1036,54	1533,929
1036,70	1562,600
1036,86	1495,017
1037,02	1552,360
1037,18	1621,991
1037,34	1626,087
1037,50	1566,696
1037,66	1509,353
1037,82	1591,272
1037,98	1671,142
1038,14	1474,538
1038,30	1492,969
1038,46	1484,777
1038,62	1595,368
1038,78	1595,368
1038,94	1497,065
1039,10	1572,840
1039,26	1519,593
1039,42	1443,818
1039,58	1503,209
1039,74	1550,312
1039,90	1535,977
1040,06	1572,840
>>>>>End Spectral Data<<<<<
