SpectraSuite Data File
++++++++++++++++++++++++++++++++++++
Date: Tue Jan 31 18:50:15 EET 2017
User: optolab
Dark Spectrum Present: Yes
Reference Spectrum Present: Yes
Number of Sampled Component Spectra: 1
Spectrometers: USB4C02475
Integration Time (usec): 100000 (USB4C02475)
Spectra Averaged: 1 (USB4C02475)
Boxcar Smoothing: 0 (USB4C02475)
Correct for Electrical Dark: No (USB4C02475)
Strobe/Lamp Enabled: No (USB4C02475)
Correct for Detector Non-linearity: No (USB4C02475)
Correct for Stray Light: No (USB4C02475)
Number of Pixels in Processed Spectrum: 3648
>>>>>Begin Processed Spectral Data<<<<<
344,91	30,769
345,13	30,769
345,35	30,769
345,57	0,000
345,79	316,667
346,00	370,000
346,22	-52,778
346,44	-46,154
346,66	225,000
346,87	116,667
347,09	-8,333
347,31	-1466,667
347,53	-433,333
347,74	-284,615
347,96	228,571
348,18	1166,667
348,40	-21,429
348,61	62,857
348,83	143,902
349,05	139,286
349,27	300,000
349,48	117,308
349,70	176,471
349,92	17,073
350,14	311,111
350,35	80,488
350,57	208,571
350,79	164,706
351,01	369,231
351,22	-125,000
351,44	-416,667
351,66	253,846
351,87	44,872
352,09	215,152
352,31	556,250
352,53	191,111
352,74	252,381
352,96	30,233
353,18	85,185
353,40	123,913
353,61	118,333
353,83	66,667
354,05	51,515
354,26	200,000
354,48	-1050,000
354,70	24,390
354,92	15,152
355,13	132,353
355,35	0,000
355,57	69,444
355,78	67,647
356,00	70,588
356,22	355,556
356,44	15,385
356,65	116,667
356,87	114,286
357,09	63,333
357,30	141,270
357,52	146,429
357,74	-2150,000
357,95	400,000
358,17	316,667
358,39	226,471
358,60	420,000
358,82	-52,941
359,04	200,000
359,26	73,438
359,47	52,174
359,69	-51,351
359,91	203,846
360,12	638,462
360,34	59,223
360,56	268,966
360,77	971,429
360,99	30,769
361,21	275,000
361,42	184,375
361,64	284,615
361,86	168,750
362,07	65,385
362,29	41,176
362,51	219,231
362,72	63,514
362,94	166,667
363,16	320,000
363,37	6,452
363,59	120,690
363,81	-44,444
364,02	35,294
364,24	286,957
364,46	191,892
364,67	115,556
364,89	190,000
365,11	1550,000
365,32	115,663
365,54	278,571
365,76	46,552
365,97	85,714
366,19	825,000
366,41	200,000
366,62	157,895
366,84	126,316
367,05	83,077
367,27	-44,444
367,49	112,195
367,70	625,000
367,92	133,871
368,14	2850,000
368,35	59,155
368,57	141,026
368,79	-17,647
369,00	0,000
369,22	133,333
369,43	77,273
369,65	22,388
369,87	70,423
370,08	1028,571
370,30	152,941
370,51	16,667
370,73	167,308
370,95	247,619
371,16	400,000
371,38	161,364
371,60	88,462
371,81	148,649
372,03	463,158
372,24	481,818
372,46	74,390
372,68	64,063
372,89	182,857
373,11	276,190
373,32	-6,667
373,54	128,000
373,76	44,681
373,97	62,366
374,19	213,514
374,40	222,222
374,62	-566,667
374,84	200,000
375,05	164,865
375,27	137,736
375,48	141,860
375,70	29,545
375,92	12,500
376,13	60,000
376,35	966,667
376,56	74,667
376,78	45,833
376,99	64,935
377,21	-6200,000
377,43	22,917
377,64	102,632
377,86	147,826
378,07	83,333
378,29	45,161
378,51	166,667
378,72	106,667
378,94	66,176
379,15	185,714
379,37	108,929
379,58	76,786
379,80	165,385
380,01	487,500
380,23	189,474
380,45	90,385
380,66	272,222
380,88	-2450,000
381,09	71,429
381,31	127,536
381,52	147,222
381,74	94,030
381,95	131,707
382,17	110,000
382,39	140,909
382,60	200,000
382,82	180,000
383,03	190,385
383,25	85,897
383,46	65,854
383,68	180,357
383,89	250,000
384,11	15,909
384,32	-125,000
384,54	222,222
384,76	2300,000
384,97	58,025
385,19	64,583
385,40	45,833
385,62	366,667
385,83	291,892
386,05	0,000
386,26	40,541
386,48	112,000
386,69	58,491
386,91	76,471
387,12	279,167
387,34	139,216
387,55	90,909
387,77	14,286
387,98	-428,571
388,20	180,645
388,41	223,077
388,63	125,581
388,84	133,846
389,06	-35,897
389,27	75,000
389,49	140,625
389,70	40,476
389,92	35,938
390,13	-200,000
390,35	72,000
390,56	128,788
390,78	61,290
390,99	566,667
391,21	135,714
391,42	113,115
391,64	151,852
391,85	66,667
392,07	16,000
392,28	93,750
392,50	101,754
392,71	51,852
392,93	167,568
393,14	-200,000
393,36	178,125
393,57	156,863
393,79	80,303
394,00	100,000
394,22	-34,091
394,43	145,000
394,65	1625,000
394,86	153,030
395,08	104,110
395,29	125,581
395,50	68,750
395,72	125,000
395,93	125,000
396,15	39,437
396,36	96,226
396,58	122,222
396,79	80,000
397,01	102,410
397,22	205,556
397,44	-560,000
397,65	65,789
397,87	-64,103
398,08	64,000
398,29	193,750
398,51	145,833
398,72	70,000
398,94	72,973
399,15	26,531
399,37	89,744
399,58	229,032
399,80	84,375
400,01	53,623
400,22	69,388
400,44	186,667
400,65	440,000
400,87	39,344
401,08	125,000
401,30	54,000
401,51	104,545
401,72	102,326
401,94	109,677
402,15	30,508
402,37	151,515
402,58	86,667
402,80	62,500
403,01	61,702
403,22	130,000
403,44	52,500
403,65	-81,818
403,87	112,821
404,08	66,154
404,30	-13,793
404,51	48,214
404,72	78,049
404,94	128,571
405,15	94,203
405,37	79,167
405,58	47,727
405,79	56,962
406,01	89,720
406,22	14,634
406,44	34,694
406,65	72,603
406,86	41,414
407,08	130,556
407,29	51,685
407,51	37,755
407,72	114,815
407,93	56,376
408,15	89,189
408,36	64,815
408,58	23,577
408,79	67,742
409,00	61,364
409,22	79,121
409,43	41,573
409,64	1,754
409,86	32,624
410,07	42,593
410,29	52,809
410,50	59,589
410,71	30,233
410,93	37,647
411,14	34,375
411,35	35,345
411,57	16,019
411,78	20,853
412,00	24,859
412,21	4,624
412,42	40,686
412,64	25,463
412,85	20,725
413,06	28,293
413,28	32,571
413,49	-2,273
413,70	31,047
413,92	21,723
414,13	20,077
414,34	3,653
414,56	12,903
414,77	6,439
414,98	15,224
415,20	22,622
415,41	11,285
415,63	6,707
415,84	22,699
416,05	26,214
416,27	11,111
416,48	11,500
416,69	10,870
416,91	20,122
417,12	11,213
417,33	14,727
417,55	4,185
417,76	5,263
417,97	10,139
418,19	19,861
418,40	7,623
418,61	10,978
418,83	5,914
419,04	3,415
419,25	7,516
419,46	8,019
419,68	11,840
419,89	3,858
420,10	-0,628
420,32	2,788
420,53	8,532
420,74	8,019
420,96	5,155
421,17	4,983
421,38	8,672
421,60	5,330
421,81	4,194
422,02	3,939
422,23	4,803
422,45	5,268
422,66	5,085
422,87	5,004
423,09	5,140
423,30	3,089
423,51	5,439
423,73	2,053
423,94	4,191
424,15	5,457
424,36	4,124
424,58	2,136
424,79	2,130
425,00	3,851
425,22	4,068
425,43	1,832
425,64	4,674
425,85	6,192
426,07	3,314
426,28	4,159
426,49	4,484
426,71	1,417
426,92	3,264
427,13	2,672
427,34	3,152
427,56	2,814
427,77	3,541
427,98	2,114
428,19	0,292
428,41	2,360
428,62	2,761
428,83	1,888
429,04	3,801
429,26	2,906
429,47	2,458
429,68	1,239
429,89	1,001
430,11	1,083
430,32	1,209
430,53	1,520
430,74	1,480
430,96	1,615
431,17	1,362
431,38	1,775
431,59	1,812
431,81	1,321
432,02	2,062
432,23	1,593
432,44	2,012
432,66	2,322
432,87	1,344
433,08	1,402
433,29	1,647
433,51	1,076
433,72	1,195
433,93	0,816
434,14	0,968
434,35	2,014
434,57	0,900
434,78	1,658
434,99	1,190
435,20	0,276
435,42	0,957
435,63	1,281
435,84	1,090
436,05	0,084
436,26	0,575
436,48	0,786
436,69	0,701
436,90	0,889
437,11	1,569
437,32	0,190
437,54	1,056
437,75	0,334
437,96	0,931
438,17	1,099
438,38	1,041
438,60	0,587
438,81	1,175
439,02	0,975
439,23	0,694
439,44	1,186
439,66	0,737
439,87	0,917
440,08	1,508
440,29	0,903
440,50	1,243
440,72	1,032
440,93	0,739
441,14	0,953
441,35	0,891
441,56	1,053
441,77	1,342
441,99	1,054
442,20	0,929
442,41	1,392
442,62	1,837
442,83	2,195
443,04	3,145
443,26	4,323
443,47	6,055
443,68	7,405
443,89	10,270
444,10	12,293
444,31	15,733
444,53	19,254
444,74	23,025
444,95	25,630
445,16	29,998
445,37	33,483
445,58	36,423
445,80	38,672
446,01	39,841
446,22	43,283
446,43	44,731
446,64	45,555
446,85	46,276
447,06	48,781
447,28	51,179
447,49	53,392
447,70	57,002
447,91	60,726
448,12	66,419
448,33	72,915
448,54	78,678
448,76	83,716
448,97	88,065
449,18	90,492
449,39	90,586
449,60	91,960
449,81	93,856
450,02	92,172
450,23	93,502
450,45	94,341
450,66	95,447
450,87	94,149
451,08	94,370
451,29	95,802
451,50	96,425
451,71	97,081
451,92	95,641
452,13	96,484
452,35	96,614
452,56	95,961
452,77	95,891
452,98	96,411
453,19	96,046
453,40	97,145
453,61	97,513
453,82	96,420
454,03	98,053
454,25	95,726
454,46	97,124
454,67	97,108
454,88	97,559
455,09	97,354
455,30	95,906
455,51	96,290
455,72	96,426
455,93	96,020
456,14	95,716
456,35	94,839
456,56	95,199
456,78	96,709
456,99	94,545
457,20	95,945
457,41	96,621
457,62	95,626
457,83	95,536
458,04	97,857
458,25	95,235
458,46	97,629
458,67	95,975
458,88	96,861
459,09	94,934
459,30	96,178
459,51	95,345
459,73	94,308
459,94	94,138
460,15	92,902
460,36	93,812
460,57	94,458
460,78	94,009
460,99	95,246
461,20	94,313
461,41	94,798
461,62	95,379
461,83	96,012
462,04	96,537
462,25	95,986
462,46	96,924
462,67	97,500
462,88	97,378
463,09	97,644
463,30	97,090
463,51	97,126
463,72	97,552
463,93	97,351
464,15	97,643
464,36	97,747
464,57	98,258
464,78	97,685
464,99	97,932
465,20	97,223
465,41	98,549
465,62	98,502
465,83	97,674
466,04	98,019
466,25	98,152
466,46	97,192
466,67	97,935
466,88	97,317
467,09	98,744
467,30	97,552
467,51	98,562
467,72	97,916
467,93	96,719
468,14	97,959
468,35	98,063
468,56	98,301
468,77	97,971
468,98	97,983
469,19	98,952
469,40	98,975
469,61	99,194
469,82	99,601
470,03	98,270
470,24	98,352
470,45	98,462
470,66	99,159
470,87	97,464
471,08	97,757
471,29	96,598
471,50	97,163
471,71	96,328
471,92	95,984
472,13	96,429
472,34	96,719
472,55	97,033
472,76	96,652
472,97	96,761
473,18	98,271
473,39	96,515
473,60	98,001
473,81	97,698
474,01	97,822
474,22	98,636
474,43	97,861
474,64	98,526
474,85	99,288
475,06	98,464
475,27	98,611
475,48	98,709
475,69	97,398
475,90	98,257
476,11	98,170
476,32	99,326
476,53	97,514
476,74	98,485
476,95	98,322
477,16	99,353
477,37	98,857
477,58	98,855
477,79	98,902
478,00	98,064
478,21	99,495
478,41	99,595
478,62	100,989
478,83	99,900
479,04	99,815
479,25	100,311
479,46	100,322
479,67	100,155
479,88	101,090
480,09	99,973
480,30	99,928
480,51	100,314
480,72	100,736
480,93	100,737
481,14	100,633
481,34	99,875
481,55	100,117
481,76	99,821
481,97	99,929
482,18	100,654
482,39	99,428
482,60	98,868
482,81	99,670
483,02	99,090
483,23	98,804
483,44	99,130
483,65	98,791
483,85	98,803
484,06	98,361
484,27	98,607
484,48	99,413
484,69	99,281
484,90	99,755
485,11	98,905
485,32	99,273
485,53	99,125
485,73	97,805
485,94	99,158
486,15	99,282
486,36	99,245
486,57	97,788
486,78	98,449
486,99	98,060
487,20	98,796
487,41	99,309
487,61	98,705
487,82	98,083
488,03	99,159
488,24	99,017
488,45	99,216
488,66	99,355
488,87	97,953
489,08	98,186
489,28	99,010
489,49	98,754
489,70	98,537
489,91	97,976
490,12	98,779
490,33	98,183
490,54	98,447
490,74	98,509
490,95	95,906
491,16	97,555
491,37	96,503
491,58	95,536
491,79	95,818
492,00	94,816
492,20	94,025
492,41	92,637
492,62	91,418
492,83	90,246
493,04	87,177
493,25	85,438
493,45	81,806
493,66	77,124
493,87	73,656
494,08	68,296
494,29	61,543
494,50	56,791
494,70	50,119
494,91	43,024
495,12	36,741
495,33	30,366
495,54	23,909
495,75	18,576
495,95	13,910
496,16	10,126
496,37	7,340
496,58	4,871
496,79	3,107
496,99	2,342
497,20	1,495
497,41	1,309
497,62	1,048
497,83	0,913
498,04	0,697
498,24	0,843
498,45	0,460
498,66	0,593
498,87	0,607
499,08	0,598
499,28	0,459
499,49	0,751
499,70	0,519
499,91	0,494
500,12	0,631
500,32	0,468
500,53	0,711
500,74	0,559
500,95	0,386
501,15	0,474
501,36	0,515
501,57	0,485
501,78	0,476
501,99	0,314
502,19	0,508
502,40	0,506
502,61	0,273
502,82	0,446
503,02	0,409
503,23	0,490
503,44	0,426
503,65	0,424
503,86	0,299
504,06	0,377
504,27	0,537
504,48	0,514
504,69	0,534
504,89	0,371
505,10	0,484
505,31	0,285
505,52	0,444
505,72	0,368
505,93	0,410
506,14	0,313
506,35	0,524
506,55	0,336
506,76	0,498
506,97	0,512
507,18	0,296
507,38	0,423
507,59	0,280
507,80	0,361
508,01	0,349
508,21	0,516
508,42	0,359
508,63	0,459
508,84	0,435
509,04	0,380
509,25	0,415
509,46	0,349
509,67	0,317
509,87	0,198
510,08	0,376
510,29	0,337
510,49	0,271
510,70	0,299
510,91	0,477
511,12	0,460
511,32	0,374
511,53	0,330
511,74	0,406
511,94	0,451
512,15	0,354
512,36	0,459
512,57	0,544
512,77	0,321
512,98	0,484
513,19	0,265
513,39	0,577
513,60	0,310
513,81	0,439
514,01	0,257
514,22	0,291
514,43	0,187
514,64	0,405
514,84	0,353
515,05	0,147
515,26	0,504
515,46	0,408
515,67	0,476
515,88	0,176
516,08	0,383
516,29	0,303
516,50	0,313
516,70	0,164
516,91	0,431
517,12	0,357
517,32	0,512
517,53	0,213
517,74	0,454
517,95	0,382
518,15	0,284
518,36	0,388
518,57	0,268
518,77	0,257
518,98	0,311
519,19	0,329
519,39	0,426
519,60	0,222
519,80	0,119
520,01	0,247
520,22	0,366
520,42	0,587
520,63	0,308
520,84	0,454
521,04	0,529
521,25	0,566
521,46	0,263
521,66	0,347
521,87	0,478
522,08	0,496
522,28	0,326
522,49	0,333
522,70	0,382
522,90	0,465
523,11	0,366
523,31	0,516
523,52	0,347
523,73	0,475
523,93	0,433
524,14	0,403
524,35	0,493
524,55	0,241
524,76	0,314
524,97	0,387
525,17	0,444
525,38	0,398
525,58	0,281
525,79	0,445
526,00	0,403
526,20	0,591
526,41	0,389
526,61	0,508
526,82	0,534
527,03	0,463
527,23	0,416
527,44	0,431
527,64	0,313
527,85	0,318
528,06	0,531
528,26	0,461
528,47	0,381
528,68	0,447
528,88	0,385
529,09	0,441
529,29	0,336
529,50	0,564
529,70	0,557
529,91	0,539
530,12	0,433
530,32	0,319
530,53	0,505
530,73	0,450
530,94	0,342
531,15	0,254
531,35	0,302
531,56	0,503
531,76	0,381
531,97	0,584
532,17	0,414
532,38	0,453
532,59	0,348
532,79	0,446
533,00	0,475
533,20	0,438
533,41	0,577
533,61	0,628
533,82	0,590
534,03	0,532
534,23	0,575
534,44	0,537
534,64	0,588
534,85	0,626
535,05	0,436
535,26	0,470
535,46	0,427
535,67	0,441
535,88	0,562
536,08	0,514
536,29	0,375
536,49	0,404
536,70	0,534
536,90	0,459
537,11	0,729
537,31	0,526
537,52	0,583
537,72	0,629
537,93	0,444
538,13	0,524
538,34	0,510
538,55	0,528
538,75	0,532
538,96	0,597
539,16	0,648
539,37	0,659
539,57	0,633
539,78	0,750
539,98	0,783
540,19	0,654
540,39	0,692
540,60	0,768
540,80	0,737
541,01	0,719
541,21	0,921
541,42	0,952
541,62	1,009
541,83	1,272
542,03	1,336
542,24	1,809
542,44	1,963
542,65	2,705
542,85	3,583
543,06	4,802
543,26	5,858
543,47	7,146
543,67	9,159
543,88	11,527
544,08	13,628
544,29	16,294
544,49	18,987
544,70	22,057
544,90	24,839
545,11	27,766
545,31	30,932
545,52	33,248
545,72	36,097
545,93	38,836
546,13	40,804
546,34	42,645
546,54	45,035
546,75	47,896
546,95	50,362
547,15	53,049
547,36	56,619
547,56	60,935
547,77	65,162
547,97	70,911
548,18	74,705
548,38	78,244
548,59	84,055
548,79	86,529
549,00	89,029
549,20	91,834
549,41	93,322
549,61	94,922
549,81	96,226
550,02	96,219
550,22	97,802
550,43	97,574
550,63	98,516
550,84	99,311
551,04	98,589
551,25	99,396
551,45	99,627
551,65	99,530
551,86	100,069
552,06	100,573
552,27	99,794
552,47	99,683
552,68	99,658
552,88	100,217
553,08	100,015
553,29	99,829
553,49	99,277
553,70	98,507
553,90	98,769
554,11	100,109
554,31	98,852
554,51	99,364
554,72	100,189
554,92	99,281
555,13	100,306
555,33	100,636
555,53	98,795
555,74	99,558
555,94	100,135
556,15	99,766
556,35	99,739
556,56	100,647
556,76	100,158
556,96	100,535
557,17	99,522
557,37	99,764
557,58	99,692
557,78	100,482
557,98	100,467
558,19	99,875
558,39	100,584
558,59	100,872
558,80	99,928
559,00	100,220
559,21	100,034
559,41	100,323
559,61	99,673
559,82	99,985
560,02	99,762
560,23	100,008
560,43	98,198
560,63	99,566
560,84	98,963
561,04	99,279
561,24	99,238
561,45	99,974
561,65	99,478
561,85	100,199
562,06	99,655
562,26	98,509
562,47	99,368
562,67	98,573
562,87	99,823
563,08	99,287
563,28	99,754
563,48	98,546
563,69	98,946
563,89	98,203
564,09	99,328
564,30	98,265
564,50	98,488
564,70	98,070
564,91	98,661
565,11	98,326
565,31	97,869
565,52	97,447
565,72	98,084
565,92	97,882
566,13	98,126
566,33	96,961
566,53	97,036
566,74	98,454
566,94	98,181
567,14	98,047
567,35	97,104
567,55	98,135
567,75	97,830
567,96	98,196
568,16	97,915
568,36	98,589
568,57	98,471
568,77	98,545
568,97	98,972
569,18	99,056
569,38	98,894
569,58	99,337
569,79	99,885
569,99	100,270
570,19	99,836
570,39	100,329
570,60	99,012
570,80	100,210
571,00	100,147
571,21	99,774
571,41	99,421
571,61	100,154
571,82	99,808
572,02	99,475
572,22	100,725
572,42	101,116
572,63	99,634
572,83	101,348
573,03	100,980
573,24	100,607
573,44	100,459
573,64	100,746
573,84	99,879
574,05	100,289
574,25	101,193
574,45	100,477
574,66	99,075
574,86	100,227
575,06	100,541
575,26	99,654
575,47	100,412
575,67	100,717
575,87	100,631
576,07	99,982
576,28	101,378
576,48	99,316
576,68	100,179
576,88	100,164
577,09	101,242
577,29	100,160
577,49	100,995
577,69	100,509
577,90	99,500
578,10	99,629
578,30	100,164
578,50	100,192
578,71	99,778
578,91	98,953
579,11	99,249
579,31	98,788
579,52	99,891
579,72	98,383
579,92	98,190
580,12	100,312
580,33	99,253
580,53	98,951
580,73	98,467
580,93	98,006
581,13	99,014
581,34	99,248
581,54	98,701
581,74	98,733
581,94	99,506
582,15	99,111
582,35	100,314
582,55	99,233
582,75	99,401
582,95	100,342
583,16	99,199
583,36	100,302
583,56	100,427
583,76	99,802
583,96	100,349
584,17	100,938
584,37	100,167
584,57	101,531
584,77	99,458
584,97	99,605
585,18	100,513
585,38	99,797
585,58	98,915
585,78	100,362
585,98	100,120
586,19	99,964
586,39	98,938
586,59	99,797
586,79	100,663
586,99	99,082
587,20	98,877
587,40	99,003
587,60	99,056
587,80	99,217
588,00	99,506
588,20	99,038
588,41	98,584
588,61	97,769
588,81	98,694
589,01	98,871
589,21	99,063
589,41	97,787
589,62	97,806
589,82	98,013
590,02	98,515
590,22	98,444
590,42	97,410
590,62	97,199
590,83	98,262
591,03	97,683
591,23	98,144
591,43	97,870
591,63	98,197
591,83	96,595
592,03	97,786
592,24	97,602
592,44	97,875
592,64	98,486
592,84	98,854
593,04	97,497
593,24	97,587
593,44	97,540
593,65	97,688
593,85	97,850
594,05	97,609
594,25	98,717
594,45	98,005
594,65	98,093
594,85	97,054
595,06	99,375
595,26	98,085
595,46	98,820
595,66	97,307
595,86	98,979
596,06	98,296
596,26	98,348
596,46	98,932
596,66	99,526
596,87	98,848
597,07	98,235
597,27	98,608
597,47	98,288
597,67	97,542
597,87	98,820
598,07	96,935
598,27	96,515
598,47	97,162
598,67	96,464
598,88	95,961
599,08	95,357
599,28	95,671
599,48	93,684
599,68	93,403
599,88	91,368
600,08	90,092
600,28	89,058
600,48	86,706
600,68	82,264
600,88	80,908
601,09	77,418
601,29	72,702
601,49	68,556
601,69	63,016
601,89	57,578
602,09	51,122
602,29	45,391
602,49	39,542
602,69	33,839
602,89	28,899
603,09	23,677
603,29	19,040
603,49	14,980
603,69	11,506
603,90	8,747
604,10	7,118
604,30	5,282
604,50	4,112
604,70	2,973
604,90	2,628
605,10	1,791
605,30	1,483
605,50	1,000
605,70	1,063
605,90	1,038
606,10	0,728
606,30	0,826
606,50	0,578
606,70	0,596
606,90	0,498
607,10	0,572
607,30	0,401
607,50	0,423
607,70	0,560
607,90	0,409
608,10	0,510
608,30	0,271
608,50	0,571
608,70	0,347
608,90	0,405
609,11	0,510
609,31	0,390
609,51	0,481
609,71	0,557
609,91	0,466
610,11	0,420
610,31	0,528
610,51	0,283
610,71	0,468
610,91	0,405
611,11	0,497
611,31	0,329
611,51	0,511
611,71	0,368
611,91	0,434
612,11	0,595
612,31	0,449
612,51	0,313
612,71	0,294
612,91	0,370
613,11	0,324
613,31	0,441
613,51	0,510
613,71	0,491
613,91	0,299
614,11	0,332
614,31	0,534
614,50	0,140
614,70	0,304
614,90	0,538
615,10	0,263
615,30	0,273
615,50	0,453
615,70	0,394
615,90	0,122
616,10	0,488
616,30	0,521
616,50	0,327
616,70	0,390
616,90	0,565
617,10	0,296
617,30	0,369
617,50	0,573
617,70	0,257
617,90	0,414
618,10	0,397
618,30	0,342
618,50	0,332
618,70	0,435
618,90	0,186
619,10	0,368
619,30	0,414
619,49	0,442
619,69	0,098
619,89	0,176
620,09	0,349
620,29	0,329
620,49	0,401
620,69	0,358
620,89	0,390
621,09	0,271
621,29	0,350
621,49	0,362
621,69	0,342
621,89	0,374
622,09	0,195
622,29	0,272
622,48	0,260
622,68	0,375
622,88	0,281
623,08	0,386
623,28	0,309
623,48	0,252
623,68	0,224
623,88	0,384
624,08	0,308
624,28	0,402
624,48	0,322
624,67	0,274
624,87	0,292
625,07	0,389
625,27	0,365
625,47	0,321
625,67	0,267
625,87	0,404
626,07	0,129
626,27	0,209
626,47	0,366
626,66	0,183
626,86	0,222
627,06	0,308
627,26	0,261
627,46	0,255
627,66	0,410
627,86	0,206
628,06	0,239
628,25	0,108
628,45	0,275
628,65	0,464
628,85	0,223
629,05	0,173
629,25	0,395
629,45	0,300
629,65	0,203
629,84	0,397
630,04	0,210
630,24	0,295
630,44	0,152
630,64	0,470
630,84	0,196
631,04	0,536
631,23	0,381
631,43	0,448
631,63	0,283
631,83	0,429
632,03	0,422
632,23	0,422
632,42	0,293
632,62	0,263
632,82	0,638
633,02	0,235
633,22	0,265
633,42	0,178
633,62	0,362
633,81	0,443
634,01	0,460
634,21	0,413
634,41	0,550
634,61	0,438
634,80	0,487
635,00	0,460
635,20	0,559
635,40	0,551
635,60	0,490
635,80	0,310
635,99	0,666
636,19	0,411
636,39	0,430
636,59	0,324
636,79	0,397
636,98	0,406
637,18	0,571
637,38	0,445
637,58	0,444
637,78	0,341
637,97	0,447
638,17	0,330
638,37	0,500
638,57	0,592
638,77	0,886
638,96	0,759
639,16	0,492
639,36	0,619
639,56	1,067
639,76	1,000
639,95	0,904
640,15	1,051
640,35	1,267
640,55	1,659
640,75	1,992
640,94	2,404
641,14	2,982
641,34	3,198
641,54	4,239
641,73	4,992
641,93	6,018
642,13	7,405
642,33	8,205
642,53	10,079
642,72	11,973
642,92	13,972
643,12	16,186
643,32	18,219
643,51	20,547
643,71	22,500
643,91	24,584
644,11	28,055
644,30	29,695
644,50	32,132
644,70	34,591
644,90	36,145
645,09	38,945
645,29	41,863
645,49	43,008
645,69	45,403
645,88	48,341
646,08	50,206
646,28	54,422
646,48	57,042
646,67	61,712
646,87	65,104
647,07	69,018
647,26	73,493
647,46	76,773
647,66	79,097
647,86	82,677
648,05	84,336
648,25	88,129
648,45	89,240
648,65	91,066
648,84	91,825
649,04	91,422
649,24	93,655
649,43	93,833
649,63	95,783
649,83	95,347
650,03	96,100
650,22	95,344
650,42	97,088
650,62	96,655
650,81	96,396
651,01	97,078
651,21	97,424
651,40	96,676
651,60	97,233
651,80	97,275
652,00	98,108
652,19	97,400
652,39	98,531
652,59	99,122
652,78	97,114
652,98	98,534
653,18	98,707
653,37	97,950
653,57	97,327
653,77	97,350
653,96	96,548
654,16	99,174
654,36	98,665
654,55	100,058
654,75	98,350
654,95	97,644
655,14	95,812
655,34	98,872
655,54	97,639
655,73	97,802
655,93	98,545
656,13	96,372
656,32	97,251
656,52	98,963
656,72	99,697
656,91	98,191
657,11	96,765
657,31	96,877
657,50	97,964
657,70	97,980
657,90	95,791
658,09	96,500
658,29	96,707
658,49	96,486
658,68	96,468
658,88	96,723
659,07	95,937
659,27	95,807
659,47	97,126
659,66	97,963
659,86	96,922
660,06	95,948
660,25	95,086
660,45	94,702
660,64	96,690
660,84	96,081
661,04	94,470
661,23	94,964
661,43	96,122
661,63	95,213
661,82	96,257
662,02	95,884
662,21	96,726
662,41	95,088
662,61	94,819
662,80	96,546
663,00	95,623
663,19	96,048
663,39	97,401
663,59	98,001
663,78	95,579
663,98	96,324
664,17	96,948
664,37	95,442
664,57	95,464
664,76	97,344
664,96	94,415
665,15	97,456
665,35	95,742
665,55	95,991
665,74	96,197
665,94	97,158
666,13	95,206
666,33	95,259
666,53	95,803
666,72	93,952
666,92	97,138
667,11	96,349
667,31	93,194
667,50	95,154
667,70	94,794
667,90	94,604
668,09	95,510
668,29	94,885
668,48	93,750
668,68	94,824
668,87	95,464
669,07	95,878
669,26	94,439
669,46	95,179
669,66	95,513
669,85	96,220
670,05	94,333
670,24	95,461
670,44	94,553
670,63	93,078
670,83	94,944
671,02	96,242
671,22	94,954
671,42	94,874
671,61	95,091
671,81	98,003
672,00	94,545
672,20	96,094
672,39	94,931
672,59	95,139
672,78	95,734
672,98	95,022
673,17	95,241
673,37	96,439
673,56	95,469
673,76	94,824
673,95	96,352
674,15	97,219
674,34	97,368
674,54	96,781
674,73	95,551
674,93	96,348
675,13	95,339
675,32	95,935
675,52	96,662
675,71	94,876
675,91	96,550
676,10	96,281
676,30	96,388
676,49	97,422
676,69	95,572
676,88	96,712
677,08	96,500
677,27	94,530
677,47	96,046
677,66	95,300
677,86	96,004
678,05	95,119
678,24	94,318
678,44	96,467
678,63	95,151
678,83	95,923
679,02	96,135
679,22	95,242
679,41	96,619
679,61	95,193
679,80	95,774
680,00	94,820
680,19	94,923
680,39	94,785
680,58	94,615
680,78	95,486
680,97	95,392
681,17	93,492
681,36	95,835
681,56	93,813
681,75	95,380
681,94	94,041
682,14	93,920
682,33	93,523
682,53	93,862
682,72	93,315
682,92	93,566
683,11	93,833
683,31	93,262
683,50	94,342
683,69	93,768
683,89	94,615
684,08	94,553
684,28	93,744
684,47	94,553
684,67	93,877
684,86	93,447
685,06	93,697
685,25	93,713
685,44	94,762
685,64	93,156
685,83	94,541
686,03	94,369
686,22	94,035
686,42	93,850
686,61	94,926
686,80	94,715
687,00	93,743
687,19	94,951
687,39	95,180
687,58	93,653
687,77	94,086
687,97	94,168
688,16	94,010
688,36	94,393
688,55	93,298
688,74	93,496
688,94	94,495
689,13	94,428
689,33	93,575
689,52	94,606
689,71	93,933
689,91	94,181
690,10	94,507
690,30	94,646
690,49	94,207
690,68	93,830
690,88	94,407
691,07	93,318
691,27	94,689
691,46	94,119
691,65	94,394
691,85	94,392
692,04	94,240
692,23	95,351
692,43	94,357
692,62	94,075
692,82	96,215
693,01	94,823
693,20	94,637
693,40	95,978
693,59	95,004
693,78	96,101
693,98	96,007
694,17	96,073
694,36	95,733
694,56	96,168
694,75	97,257
694,94	97,483
695,14	95,958
695,33	96,170
695,53	95,469
695,72	95,224
695,91	94,118
696,11	93,852
696,30	93,143
696,49	92,812
696,69	92,705
696,88	91,429
697,07	90,742
697,27	90,049
697,46	87,516
697,65	85,065
697,85	83,634
698,04	80,785
698,23	79,993
698,43	76,486
698,62	73,690
698,81	71,988
699,01	68,294
699,20	64,750
699,39	61,762
699,58	58,380
699,78	54,624
699,97	50,957
700,16	46,534
700,36	43,753
700,55	40,217
700,74	36,637
700,94	33,234
701,13	29,313
701,32	26,910
701,52	22,690
701,71	19,985
701,90	17,068
702,09	14,690
702,29	12,944
702,48	10,173
702,67	10,495
702,87	7,668
703,06	6,165
703,25	5,681
703,44	4,928
703,64	4,303
703,83	3,939
704,02	2,308
704,22	2,507
704,41	2,178
704,60	2,282
704,79	1,108
704,99	1,721
705,18	1,907
705,37	1,867
705,56	1,204
705,76	2,170
705,95	1,492
706,14	2,099
706,33	2,001
706,53	2,079
706,72	1,738
706,91	1,773
707,11	1,124
707,30	2,262
707,49	2,321
707,68	2,565
707,88	0,638
708,07	1,857
708,26	1,806
708,45	2,199
708,64	1,877
708,84	1,778
709,03	2,512
709,22	2,482
709,41	3,775
709,61	0,808
709,80	2,740
709,99	2,481
710,18	1,575
710,38	2,706
710,57	2,062
710,76	3,258
710,95	3,191
711,14	2,653
711,34	2,336
711,53	1,211
711,72	3,095
711,91	2,296
712,11	1,583
712,30	3,311
712,49	2,811
712,68	1,275
712,87	2,970
713,07	3,303
713,26	3,267
713,45	1,690
713,64	2,867
713,83	2,742
714,03	1,203
714,22	2,004
714,41	3,575
714,60	2,712
714,79	1,255
714,99	3,755
715,18	3,151
715,37	3,729
715,56	2,381
715,75	3,406
715,94	2,543
716,14	0,914
716,33	2,900
716,52	1,716
716,71	3,740
716,90	1,319
717,10	4,655
717,29	4,484
717,48	3,741
717,67	2,484
717,86	0,744
718,05	5,127
718,24	4,858
718,44	4,887
718,63	4,496
718,82	5,088
719,01	3,565
719,20	4,026
719,39	6,788
719,59	3,040
719,78	2,895
719,97	5,725
720,16	3,221
720,35	6,323
720,54	4,234
720,73	5,210
720,93	4,387
721,12	1,009
721,31	4,592
721,50	4,403
721,69	4,486
721,88	6,067
722,07	4,094
722,27	-0,156
722,46	3,970
722,65	4,632
722,84	6,314
723,03	7,439
723,22	5,203
723,41	5,726
723,60	4,377
723,79	5,838
723,99	6,575
724,18	4,306
724,37	0,355
724,56	2,964
724,75	1,607
724,94	3,648
725,13	8,657
725,32	4,418
725,51	6,452
725,71	7,665
725,90	4,482
726,09	6,369
726,28	6,309
726,47	5,882
726,66	4,382
726,85	3,700
727,04	7,820
727,23	5,957
727,42	4,681
727,61	6,445
727,81	3,575
728,00	7,422
728,19	1,481
728,38	6,090
728,57	9,355
728,76	5,653
728,95	4,262
729,14	5,788
729,33	5,537
729,52	10,656
729,71	7,334
729,90	2,095
730,09	9,822
730,28	7,565
730,48	8,232
730,67	5,647
730,86	7,036
731,05	2,086
731,24	-0,353
731,43	7,253
731,62	10,000
731,81	7,437
732,00	9,714
732,19	8,020
732,38	5,455
732,57	1,131
732,76	-4,328
732,95	7,060
733,14	9,383
733,33	5,139
733,52	1,084
733,71	7,846
733,90	-2,628
734,09	6,275
734,28	9,318
734,47	1,618
734,66	3,787
734,85	6,347
735,04	8,895
735,23	8,033
735,42	4,823
735,61	10,942
735,81	3,409
736,00	3,308
736,19	3,448
736,38	6,015
736,57	7,437
736,76	1,915
736,95	5,901
737,14	9,202
737,33	1,558
737,52	5,623
737,71	15,549
737,90	6,709
738,09	0,862
738,28	4,058
738,47	6,913
738,66	9,661
738,85	2,047
739,04	6,441
739,22	5,660
739,41	-2,967
739,60	0,359
739,79	9,236
739,98	10,169
740,17	6,757
740,36	9,848
740,55	10,747
740,74	4,275
740,93	15,514
741,12	12,803
741,31	6,544
741,50	9,059
741,69	6,285
741,88	17,163
742,07	10,424
742,26	-2,677
742,45	6,884
742,64	8,163
742,83	3,736
743,02	6,827
743,21	0,677
743,40	14,751
743,59	6,876
743,78	-6,751
743,97	14,801
744,16	10,560
744,34	1,653
744,53	9,483
744,72	9,766
744,91	12,320
745,10	12,184
745,29	6,573
745,48	-1,528
745,67	10,889
745,86	14,108
746,05	19,911
746,24	9,483
746,43	5,215
746,62	19,329
746,81	1,422
747,00	11,042
747,18	4,773
747,37	9,773
747,56	17,849
747,75	5,371
747,94	8,838
748,13	3,972
748,32	11,951
748,51	14,754
748,70	11,990
748,89	9,140
749,08	13,547
749,26	15,733
749,45	10,539
749,64	6,718
749,83	4,423
750,02	8,043
750,21	8,594
750,40	13,456
750,59	7,447
750,78	15,904
750,96	12,968
751,15	19,035
751,34	20,393
751,53	19,167
751,72	9,651
751,91	5,512
752,10	7,042
752,29	-6,377
752,47	-0,862
752,66	13,609
752,85	23,545
753,04	16,486
753,23	20,128
753,42	15,212
753,61	17,021
753,80	6,907
753,98	5,938
754,17	-0,283
754,36	20,261
754,55	14,658
754,74	25,405
754,93	16,129
755,12	22,462
755,30	-1,107
755,49	9,971
755,68	12,603
755,87	7,509
756,06	23,919
756,25	1,320
756,43	19,424
756,62	15,523
756,81	-5,098
757,00	23,077
757,19	19,325
757,38	20,847
757,56	21,959
757,75	2,290
757,94	18,966
758,13	11,146
758,32	3,030
758,51	18,710
758,69	9,936
758,88	25,902
759,07	27,758
759,26	6,803
759,45	14,286
759,63	5,929
759,82	26,277
760,01	11,111
760,20	11,314
760,39	18,391
760,57	0,858
760,76	7,252
760,95	18,391
761,14	-0,769
761,33	29,297
761,51	17,407
761,70	20,690
761,89	28,295
762,08	17,241
762,27	6,250
762,45	34,906
762,64	7,965
762,83	37,175
763,02	27,682
763,21	10,211
763,39	24,434
763,58	8,980
763,77	22,340
763,96	38,012
764,14	4,564
764,33	24,436
764,52	25,000
764,71	11,330
764,89	29,054
765,08	27,715
765,27	-6,436
765,46	6,818
765,65	29,442
765,83	17,143
766,02	23,810
766,21	24,895
766,40	31,163
766,58	11,312
766,77	15,819
766,96	26,154
767,15	35,266
767,33	34,135
767,52	15,166
767,71	7,778
767,90	11,667
768,08	33,476
768,27	27,907
768,46	10,952
768,64	17,476
768,83	29,730
769,02	22,381
769,21	21,875
769,39	14,765
769,58	35,500
769,77	1,630
769,96	17,219
770,14	15,649
770,33	13,904
770,52	20,513
770,70	28,218
770,89	41,837
771,08	22,917
771,27	5,155
771,45	26,590
771,64	36,184
771,83	37,097
772,01	25,954
772,20	25,758
772,39	4,459
772,57	21,354
772,76	66,207
772,95	1,015
773,14	28,488
773,32	4,945
773,51	24,651
773,70	9,272
773,88	35,678
774,07	32,218
774,26	28,659
774,44	35,678
774,63	31,646
774,82	30,723
775,00	26,201
775,19	4,023
775,38	34,667
775,56	39,024
775,75	11,976
775,94	61,194
776,12	21,667
776,31	35,329
776,50	30,909
776,68	56,790
776,87	15,385
777,06	21,918
777,24	-7,377
777,43	38,211
777,62	37,037
777,80	24,457
777,99	32,484
778,18	34,395
778,36	23,664
778,55	37,778
778,74	10,606
778,92	42,534
779,11	59,355
779,29	35,294
779,48	-3,306
779,67	38,849
779,85	36,800
780,04	30,986
780,23	25,874
780,41	13,529
780,60	23,977
780,79	43,056
780,97	24,286
781,16	12,800
781,34	26,515
781,53	25,641
781,72	23,148
781,90	67,308
782,09	19,672
782,28	29,268
782,46	15,447
782,65	20,280
782,83	12,977
783,02	38,400
783,21	32,558
783,39	17,308
783,58	52,667
783,76	18,919
783,95	38,411
784,14	24,211
784,32	25,688
784,51	24,719
784,69	15,287
784,88	38,710
785,06	56,028
785,25	6,015
785,44	16,216
785,62	30,714
785,81	22,388
785,99	26,531
786,18	28,689
786,37	40,690
786,55	21,642
786,74	57,143
786,92	4,651
787,11	20,000
787,29	55,294
787,48	21,000
787,67	13,265
787,85	-15,625
788,04	15,068
788,22	30,556
788,41	51,974
788,59	63,946
788,78	37,500
788,96	77,143
789,15	53,279
789,34	54,878
789,52	42,537
789,71	-1,587
789,89	52,632
790,08	30,392
790,26	36,508
790,45	64,234
790,63	7,895
790,82	34,677
791,00	53,175
791,19	47,143
791,38	29,452
791,56	14,474
791,75	-8,108
791,93	40,196
792,12	3,788
792,30	35,526
792,49	7,477
792,67	22,857
792,86	4,054
793,04	10,317
793,23	42,105
793,41	41,935
793,60	18,987
793,78	63,087
793,97	19,828
794,15	13,072
794,34	8,163
794,52	50,388
794,71	45,679
794,89	13,571
795,08	28,205
795,26	42,000
795,45	89,362
795,63	27,673
795,82	20,168
796,00	-24,615
796,19	84,416
796,37	48,305
796,56	-25,926
796,74	57,031
796,93	24,370
797,11	17,500
797,30	73,282
797,48	33,566
797,67	48,387
797,85	26,087
798,04	27,928
798,22	18,705
798,41	72,034
798,59	-2,143
798,77	11,111
798,96	45,161
799,14	17,593
799,33	68,142
799,51	62,376
799,70	23,077
799,88	14,679
800,07	17,986
800,25	37,405
800,44	65,347
800,62	30,216
800,80	2,273
800,99	33,333
801,17	24,138
801,36	16,667
801,54	55,814
801,73	6,061
801,91	24,719
802,10	56,471
802,28	14,173
802,46	47,581
802,65	17,881
802,83	8,264
803,02	41,327
803,20	55,932
803,39	23,853
803,57	27,465
803,75	19,286
803,94	64,865
804,12	48,447
804,31	37,500
804,49	46,452
804,67	-1,802
804,86	40,994
805,04	27,132
805,23	53,285
805,41	14,706
805,59	12,651
805,78	42,143
805,96	43,373
806,15	41,600
806,33	-17,518
806,51	83,974
806,70	-30,233
806,88	9,091
807,07	36,066
807,25	79,130
807,43	-17,778
807,62	46,875
807,80	25,000
807,99	41,727
808,17	5,556
808,35	2,830
808,54	56,425
808,72	25,641
808,90	37,398
809,09	28,467
809,27	39,806
809,46	34,579
809,64	41,040
809,82	42,069
810,01	45,699
810,19	14,545
810,37	11,932
810,56	15,894
810,74	44,654
810,92	8,451
811,11	12,270
811,29	37,267
811,48	50,435
811,66	39,086
811,84	11,864
812,03	16,216
812,21	43,030
812,39	20,968
812,58	45,614
812,76	37,226
812,94	-1,342
813,13	15,854
813,31	51,852
813,49	29,333
813,68	22,951
813,86	21,154
814,04	35,135
814,23	3,077
814,41	15,753
814,59	30,719
814,78	33,557
814,96	32,961
815,14	33,166
815,33	3,306
815,51	18,110
815,69	45,802
815,87	12,903
816,06	48,259
816,24	18,954
816,42	16,667
816,61	20,370
816,79	19,653
816,97	1,923
817,16	0,000
817,34	11,765
817,52	21,963
817,70	20,207
817,89	25,359
818,07	24,667
818,25	30,380
818,44	17,112
818,62	18,812
818,80	6,593
818,98	10,256
819,17	23,305
819,35	34,228
819,53	28,718
819,72	1,622
819,90	26,667
820,08	33,168
820,26	5,936
820,45	-0,538
820,63	21,637
820,81	40,826
820,99	21,834
821,18	13,253
821,36	17,500
821,54	19,403
821,73	36,612
821,91	-6,338
822,09	26,627
822,27	19,455
822,46	7,882
822,64	25,263
822,82	20,305
823,00	18,325
823,19	16,667
823,37	29,060
823,55	16,034
823,73	30,337
823,91	-1,604
824,10	22,396
824,28	39,669
824,46	-34,868
824,64	30,996
824,83	16,114
825,01	30,000
825,19	24,454
825,37	21,569
825,56	21,374
825,74	14,286
825,92	31,907
826,10	28,634
826,28	18,819
826,47	23,735
826,65	21,942
826,83	9,649
827,01	19,291
827,19	39,147
827,38	1,124
827,56	26,000
827,74	4,739
827,92	-0,488
828,10	8,681
828,29	17,343
828,47	14,599
828,65	13,281
828,83	11,814
829,01	3,153
829,20	10,385
829,38	19,262
829,56	14,141
829,74	10,769
829,92	21,862
830,10	1,288
830,29	18,391
830,47	11,940
830,65	7,950
830,83	14,966
831,01	20,179
831,20	0,365
831,38	12,378
831,56	12,281
831,74	25,085
831,92	2,198
832,10	8,228
832,29	20,495
832,47	14,184
832,65	11,475
832,83	0,949
833,01	10,574
833,19	15,625
833,37	20,061
833,56	9,821
833,74	28,525
833,92	20,270
834,10	6,325
834,28	6,969
834,46	5,780
834,64	24,800
834,83	15,297
835,01	14,099
835,19	2,482
835,37	17,514
835,55	11,331
835,73	8,192
835,91	12,684
836,09	18,421
836,28	-1,524
836,46	7,375
836,64	13,911
836,82	13,187
837,00	-7,987
837,18	15,667
837,36	7,918
837,54	3,279
837,72	6,076
837,91	11,048
838,09	11,515
838,27	7,513
838,45	19,726
838,63	10,423
838,81	-3,647
838,99	11,141
839,17	1,863
839,35	10,158
839,53	11,735
839,72	15,934
839,90	17,778
840,08	14,353
840,26	9,974
840,44	4,326
840,62	-0,809
840,80	18,022
840,98	19,911
841,16	1,359
841,34	9,804
841,52	10,435
841,70	-3,970
841,89	10,023
842,07	5,747
842,25	7,338
842,43	7,786
842,61	6,856
842,79	7,483
842,97	1,144
843,15	5,010
843,33	9,053
843,51	5,652
843,69	10,937
843,87	16,532
844,05	-0,432
844,23	2,911
844,41	17,893
844,59	7,261
844,77	10,515
844,95	1,732
845,13	14,947
845,31	8,055
845,50	3,106
845,68	7,923
845,86	3,252
846,04	11,424
846,22	12,105
846,40	12,190
846,58	10,757
846,76	12,373
846,94	7,356
847,12	8,077
847,30	6,379
847,48	11,475
847,66	-4,321
847,84	4,770
848,02	-0,184
848,20	10,734
848,38	0,893
848,56	2,873
848,74	4,554
848,92	12,199
849,10	13,380
849,28	6,614
849,46	1,664
849,64	12,248
849,82	15,176
850,00	4,384
850,18	4,279
850,36	6,291
850,54	10,064
850,72	1,713
850,90	8,243
851,08	8,819
851,26	4,045
851,44	8,239
851,62	15,542
851,80	3,163
851,98	7,994
852,16	10,015
852,34	5,775
852,52	-0,148
852,70	9,289
852,87	2,183
853,05	15,473
853,23	0,295
853,41	7,042
853,59	2,742
853,77	6,541
853,95	3,540
854,13	9,233
854,31	-1,213
854,49	8,720
854,67	7,173
854,85	5,256
855,03	18,228
855,21	5,952
855,39	14,564
855,57	10,364
855,75	2,922
855,93	-0,562
856,11	12,322
856,28	-0,133
856,46	4,605
856,64	5,455
856,82	11,439
857,00	10,025
857,18	8,609
857,36	7,711
857,54	12,302
857,72	8,679
857,90	5,439
858,08	7,292
858,26	9,631
858,44	6,810
858,61	11,073
858,79	11,800
858,97	13,533
859,15	13,834
859,33	7,953
859,51	10,289
859,69	12,386
859,87	11,245
860,05	3,444
860,23	11,467
860,40	8,087
860,58	9,323
860,76	10,978
860,94	14,209
861,12	15,408
861,30	12,944
861,48	15,098
861,66	12,630
861,84	11,797
862,01	14,515
862,19	20,325
862,37	16,035
862,55	18,320
862,73	15,393
862,91	19,886
863,09	18,789
863,27	14,551
863,44	12,085
863,62	20,961
863,80	18,927
863,98	13,996
864,16	19,582
864,34	20,359
864,52	23,844
864,69	22,992
864,87	17,755
865,05	18,339
865,23	18,586
865,41	11,310
865,59	21,766
865,76	20,748
865,94	20,994
866,12	21,217
866,30	19,877
866,48	22,143
866,66	19,391
866,83	24,593
867,01	26,390
867,19	19,621
867,37	20,776
867,55	21,429
867,73	17,012
867,90	21,220
868,08	26,377
868,26	17,520
868,44	20,569
868,62	22,241
868,79	20,436
868,97	19,562
869,15	18,976
869,33	19,475
869,51	23,349
869,69	21,434
869,86	22,362
870,04	21,852
870,22	24,115
870,40	25,347
870,57	25,556
870,75	23,973
870,93	20,735
871,11	24,328
871,29	20,762
871,46	19,615
871,64	23,583
871,82	22,172
872,00	22,816
872,18	22,074
872,35	25,331
872,53	25,198
872,71	22,802
872,89	25,662
873,06	26,594
873,24	25,716
873,42	25,361
873,60	28,753
873,77	27,166
873,95	25,887
874,13	28,947
874,31	27,043
874,49	24,204
874,66	26,742
874,84	27,620
875,02	26,512
875,20	26,428
875,37	27,749
875,55	24,252
875,73	26,448
875,91	21,960
876,08	21,370
876,26	20,851
876,44	21,403
876,61	18,496
876,79	17,808
876,97	18,404
877,15	21,441
877,32	17,976
877,50	20,255
877,68	21,807
877,86	18,776
878,03	18,946
878,21	20,491
878,39	19,432
878,56	19,438
878,74	19,053
878,92	20,629
879,10	21,118
879,27	23,863
879,45	19,443
879,63	20,030
879,80	19,300
879,98	18,912
880,16	20,752
880,34	21,041
880,51	22,122
880,69	19,148
880,87	20,964
881,04	18,876
881,22	19,817
881,40	17,203
881,57	18,346
881,75	19,637
881,93	16,767
882,10	19,160
882,28	18,569
882,46	17,677
882,63	17,798
882,81	15,985
882,99	14,580
883,16	16,765
883,34	18,513
883,52	14,614
883,69	15,635
883,87	15,196
884,05	10,843
884,22	14,274
884,40	12,847
884,58	10,743
884,75	13,331
884,93	11,373
885,11	14,136
885,28	11,576
885,46	11,102
885,64	10,810
885,81	8,142
885,99	8,147
886,17	9,390
886,34	8,761
886,52	9,332
886,70	8,998
886,87	9,585
887,05	8,821
887,22	6,535
887,40	11,098
887,58	7,790
887,75	8,000
887,93	8,423
888,11	8,413
888,28	9,207
888,46	8,189
888,63	8,043
888,81	8,656
888,99	8,866
889,16	7,639
889,34	9,039
889,51	10,325
889,69	11,879
889,87	10,362
890,04	10,206
890,22	12,067
890,39	10,174
890,57	11,781
890,75	12,370
890,92	12,171
891,10	12,335
891,27	11,690
891,45	12,673
891,63	12,116
891,80	13,587
891,98	11,962
892,15	13,204
892,33	12,056
892,51	13,464
892,68	12,712
892,86	14,264
893,03	13,612
893,21	13,947
893,38	15,558
893,56	16,134
893,74	15,898
893,91	16,140
894,09	15,651
894,26	14,321
894,44	14,790
894,61	14,604
894,79	16,459
894,96	14,095
895,14	17,162
895,32	16,293
895,49	17,040
895,67	16,070
895,84	16,087
896,02	18,120
896,19	16,318
896,37	15,751
896,54	16,479
896,72	16,478
896,89	17,117
897,07	16,489
897,25	17,258
897,42	16,607
897,60	16,164
897,77	15,108
897,95	15,374
898,12	16,841
898,30	15,925
898,47	14,746
898,65	15,535
898,82	15,258
899,00	14,631
899,17	13,667
899,35	14,013
899,52	15,785
899,70	14,502
899,87	15,507
900,05	15,721
900,22	15,066
900,40	13,682
900,57	15,268
900,75	15,286
900,92	14,060
901,10	15,323
901,27	16,495
901,45	15,728
901,62	16,190
901,80	16,944
901,97	17,728
902,15	18,894
902,32	19,192
902,50	17,828
902,67	19,955
902,85	19,762
903,02	18,428
903,20	20,480
903,37	21,001
903,54	20,209
903,72	20,199
903,89	21,211
904,07	20,945
904,24	23,876
904,42	23,747
904,59	24,499
904,77	24,876
904,94	24,533
905,12	25,965
905,29	26,360
905,47	27,464
905,64	27,378
905,81	29,184
905,99	29,275
906,16	30,211
906,34	30,558
906,51	30,556
906,69	31,525
906,86	34,758
907,03	33,357
907,21	34,039
907,38	31,884
907,56	34,031
907,73	37,550
907,91	36,754
908,08	36,881
908,25	37,154
908,43	39,915
908,60	40,768
908,78	40,551
908,95	42,989
909,13	40,145
909,30	44,697
909,47	42,189
909,65	43,644
909,82	42,778
910,00	43,654
910,17	41,650
910,34	42,752
910,52	43,509
910,69	44,780
910,87	45,570
911,04	45,991
911,21	44,073
911,39	45,738
911,56	45,965
911,73	45,694
911,91	45,024
912,08	46,567
912,26	46,136
912,43	45,179
912,60	45,051
912,78	45,243
912,95	45,462
913,13	44,844
913,30	44,138
913,47	45,183
913,65	44,276
913,82	43,545
913,99	44,003
914,17	44,373
914,34	43,005
914,51	44,397
914,69	44,632
914,86	44,128
915,03	41,945
915,21	42,095
915,38	42,725
915,56	43,443
915,73	43,510
915,90	44,150
916,08	43,108
916,25	42,980
916,42	43,641
916,60	43,425
916,77	44,269
916,94	45,732
917,12	44,744
917,29	44,222
917,46	45,586
917,64	44,022
917,81	45,456
917,98	44,785
918,16	46,231
918,33	45,785
918,50	45,012
918,67	46,792
918,85	46,058
919,02	46,672
919,19	47,808
919,37	49,608
919,54	49,700
919,71	48,387
919,89	48,125
920,06	51,211
920,23	50,404
920,41	50,460
920,58	47,956
920,75	49,071
920,92	50,969
921,10	50,232
921,27	51,072
921,44	51,420
921,62	48,739
921,79	50,106
921,96	51,179
922,13	51,378
922,31	50,238
922,48	48,895
922,65	50,559
922,82	49,622
923,00	51,179
923,17	50,722
923,34	50,295
923,52	47,237
923,69	49,829
923,86	49,378
924,03	49,231
924,21	48,206
924,38	48,158
924,55	49,268
924,72	47,132
924,90	47,715
925,07	49,019
925,24	46,154
925,41	47,483
925,59	47,838
925,76	47,235
925,93	49,449
926,10	47,241
926,28	48,509
926,45	48,065
926,62	46,451
926,79	47,757
926,96	47,623
927,14	48,313
927,31	46,968
927,48	47,054
927,65	49,059
927,83	48,025
928,00	48,503
928,17	46,782
928,34	48,956
928,51	47,211
928,69	47,939
928,86	49,381
929,03	49,268
929,20	49,217
929,37	49,250
929,55	51,494
929,72	51,981
929,89	51,938
930,06	51,586
930,23	52,196
930,41	52,165
930,58	51,056
930,75	51,774
930,92	53,146
931,09	52,219
931,27	51,690
931,44	52,423
931,61	53,226
931,78	52,374
931,95	53,723
932,12	51,320
932,30	52,900
932,47	52,749
932,64	51,680
932,81	52,063
932,98	52,592
933,16	51,343
933,33	52,725
933,50	50,577
933,67	49,472
933,84	51,415
934,01	51,095
934,18	49,520
934,36	48,806
934,53	49,119
934,70	48,982
934,87	48,950
935,04	47,239
935,21	48,232
935,38	46,532
935,56	46,190
935,73	45,352
935,90	44,301
936,07	45,198
936,24	45,113
936,41	42,272
936,58	43,299
936,76	42,335
936,93	40,664
937,10	40,821
937,27	41,106
937,44	40,888
937,61	40,709
937,78	39,572
937,95	39,302
938,13	40,585
938,30	39,131
938,47	40,009
938,64	39,578
938,81	38,989
938,98	38,994
939,15	39,053
939,32	38,682
939,49	40,814
939,66	38,299
939,84	39,673
940,01	38,146
940,18	39,714
940,35	39,006
940,52	38,544
940,69	41,054
940,86	39,573
941,03	39,934
941,20	40,508
941,37	40,610
941,54	40,882
941,71	40,065
941,89	40,258
942,06	42,598
942,23	41,788
942,40	42,401
942,57	40,582
942,74	40,875
942,91	41,450
943,08	42,982
943,25	42,541
943,42	42,166
943,59	40,796
943,76	43,669
943,93	43,056
944,10	44,075
944,27	42,711
944,44	42,308
944,61	43,792
944,79	42,752
944,96	41,894
945,13	43,603
945,30	42,253
945,47	42,381
945,64	41,894
945,81	40,911
945,98	42,765
946,15	41,287
946,32	40,665
946,49	41,356
946,66	38,865
946,83	40,218
947,00	39,255
947,17	39,048
947,34	39,737
947,51	37,399
947,68	38,716
947,85	36,547
948,02	35,959
948,19	37,602
948,36	36,280
948,53	32,478
948,70	33,561
948,87	33,398
949,04	32,846
949,21	33,748
949,38	31,199
949,55	31,362
949,72	29,732
949,89	30,361
950,06	30,245
950,23	29,541
950,40	27,188
950,57	27,508
950,74	28,698
950,91	27,099
951,08	27,233
951,25	27,203
951,42	25,154
951,59	24,202
951,76	25,075
951,93	24,902
952,10	24,882
952,27	24,964
952,44	24,888
952,61	24,421
952,77	23,327
952,94	25,226
953,11	22,654
953,28	24,421
953,45	24,455
953,62	25,042
953,79	25,580
953,96	25,433
954,13	24,336
954,30	26,138
954,47	24,837
954,64	23,621
954,81	24,906
954,98	25,568
955,15	23,325
955,32	27,185
955,49	27,099
955,65	27,756
955,82	25,536
955,99	27,297
956,16	26,001
956,33	27,120
956,50	29,352
956,67	28,571
956,84	27,507
957,01	29,173
957,18	29,959
957,35	30,915
957,52	27,975
957,68	28,533
957,85	28,603
958,02	29,714
958,19	30,664
958,36	31,699
958,53	33,977
958,70	30,879
958,87	32,917
959,04	35,283
959,21	34,854
959,37	34,297
959,54	36,431
959,71	35,598
959,88	37,005
960,05	37,425
960,22	35,339
960,39	36,661
960,56	35,318
960,72	39,742
960,89	41,407
961,06	38,678
961,23	39,127
961,40	42,518
961,57	36,884
961,74	43,873
961,90	40,699
962,07	40,656
962,24	45,073
962,41	43,206
962,58	39,688
962,75	46,272
962,92	42,273
963,08	39,864
963,25	47,512
963,42	42,279
963,59	45,959
963,76	45,116
963,93	39,181
964,10	41,108
964,26	38,718
964,43	46,038
964,60	46,598
964,77	45,789
964,94	50,308
965,10	55,556
965,27	48,986
965,44	51,667
965,61	48,069
965,78	49,736
965,95	51,458
966,11	51,775
966,28	55,385
966,45	45,905
966,62	48,504
966,79	41,870
966,95	38,578
967,12	48,086
967,29	42,523
967,46	53,043
967,63	45,926
967,79	54,891
967,96	46,719
968,13	53,918
968,30	42,623
968,47	51,451
968,63	47,337
968,80	52,069
968,97	56,286
969,14	49,558
969,31	60,577
969,47	62,776
969,64	60,396
969,81	60,702
969,98	42,690
970,14	51,111
970,31	62,007
970,48	56,228
970,65	55,986
970,81	39,796
970,98	65,169
971,15	57,143
971,32	36,864
971,48	38,971
971,65	52,101
971,82	65,306
971,99	52,239
972,15	87,368
972,32	30,864
972,49	64,807
972,66	42,035
972,82	42,079
972,99	56,170
973,16	79,897
973,33	59,048
973,49	45,000
973,66	72,269
973,83	36,735
974,00	89,344
974,16	74,843
974,33	70,122
974,50	50,694
974,67	58,947
974,83	63,277
975,00	68,116
975,17	62,585
975,33	78,986
975,50	58,182
975,67	50,000
975,84	63,121
976,00	53,846
976,17	73,529
976,34	45,390
976,50	72,174
976,67	85,345
976,84	79,487
977,00	56,391
977,17	62,992
977,34	119,355
977,50	57,447
977,67	33,333
977,84	36,364
978,01	64,368
978,17	148,718
978,34	81,250
978,51	19,697
978,67	72,527
978,84	42,708
979,01	33,846
979,17	122,727
979,34	356,250
979,51	48,077
979,67	127,500
979,84	64,286
980,01	78,689
980,17	64,706
980,34	94,203
980,51	143,182
980,67	56,000
980,84	39,655
981,01	-64,103
981,17	48,000
981,34	462,500
981,50	64,706
981,67	187,931
981,84	6,897
982,00	71,739
982,17	218,182
982,34	66,667
982,50	373,684
982,67	78,704
982,84	83,333
983,00	86,000
983,17	12,500
983,33	148,387
983,50	65,217
983,67	36,957
983,83	-316,667
984,00	225,000
984,17	45,000
984,33	106,757
984,50	79,167
984,66	64,286
984,83	59,302
985,00	181,967
985,16	48,718
985,33	193,750
985,49	189,655
985,66	127,273
985,83	100,000
985,99	66,667
986,16	92,000
986,32	143,478
986,49	491,667
986,66	46,512
986,82	40,351
986,99	135,714
987,15	79,310
987,32	133,333
987,49	-5,556
987,65	120,000
987,82	88,235
987,98	47,059
988,15	110,714
988,31	76,000
988,48	133,333
988,65	33,333
988,81	106,522
988,98	100,000
989,14	197,959
989,31	123,333
989,47	43,902
989,64	65,714
989,80	246,667
989,97	102,941
990,14	-78,261
990,30	137,500
990,47	95,122
990,63	160,870
990,80	106,061
990,96	141,667
991,13	36,111
991,29	84,314
991,46	164,706
991,62	144,118
991,79	85,965
991,95	355,000
992,12	81,395
992,29	240,000
992,45	-500,000
992,62	-310,000
992,78	-70,370
992,95	183,333
993,11	103,333
993,28	54,321
993,44	378,261
993,61	1000,000
993,77	500,000
993,94	109,302
994,10	142,857
994,27	120,000
994,43	144,118
994,60	6,061
994,76	257,895
994,93	213,636
995,09	43,243
995,26	62,963
995,42	74,576
995,59	235,714
995,75	159,375
995,92	263,636
996,08	16,667
996,25	166,667
996,41	204,167
996,58	89,189
996,74	270,000
996,91	272,222
997,07	265,385
997,23	151,064
997,40	800,000
997,56	73,333
997,73	0,000
997,89	203,704
998,06	-49,020
998,22	-4500,000
998,39	126,087
998,55	-162,500
998,72	230,000
998,88	1600,000
999,05	-84,615
999,21	147,826
999,37	-4900,000
999,54	-400,000
999,70	392,308
999,87	150,000
1000,03	131,250
1000,20	-150,000
1000,36	4900,000
1000,52	305,556
1000,69	97,727
1000,85	170,690
1001,02	93,846
1001,18	145,455
1001,35	-75,556
1001,51	-135,714
1001,67	6,667
1001,84	800,000
1002,00	47,500
1002,17	90,909
1002,33	-47,059
1002,50	422,222
1002,66	-1400,000
1002,82	160,000
1002,99	-30,769
1003,15	100,000
1003,32	48,387
1003,48	340,000
1003,64	12,500
1003,81	-50,000
1003,97	104,545
1004,14	2000,000
1004,30	-628,571
1004,46	175,000
1004,63	178,947
1004,79	-133,333
1004,95	14,706
1005,12	-100,000
1005,28	237,931
1005,45	119,231
1005,61	-900,000
1005,77	89,474
1005,94	138,710
1006,10	-5400,000
1006,26	64,286
1006,43	400,000
1006,59	-11,111
1006,76	-120,000
1006,92	280,000
1007,08	430,000
1007,25	-2,778
1007,41	-375,000
1007,57	-206,250
1007,74	-147,826
1007,90	-560,000
1008,06	157,143
1008,23	157,407
1008,39	2950,000
1008,55	-92,857
1008,72	337,500
1008,88	64,000
1009,04	216,000
1009,21	117,647
1009,37	187,500
1009,53	-205,263
1009,70	-184,615
1009,86	138,636
1010,02	153,846
1010,19	0,000
1010,35	50,000
1010,51	611,111
1010,68	875,000
1010,84	-300,000
1011,00	44,444
1011,17	-960,000
1011,33	-64,706
1011,49	115,625
1011,66	334,783
1011,82	-37,736
1011,98	-11,364
1012,14	80,303
1012,31	-880,000
1012,47	333,333
1012,63	888,889
1012,80	152,000
1012,96	-90,909
1013,12	86,047
1013,29	118,421
1013,45	4,444
1013,61	222,222
1013,77	150,000
1013,94	71,875
1014,10	-27,273
1014,26	900,000
1014,43	-112,121
1014,59	-650,000
1014,75	1500,000
1014,91	800,000
1015,08	193,333
1015,24	-1000,000
1015,40	-382,353
1015,56	277,778
1015,73	253,333
1015,89	133,333
1016,05	960,000
1016,21	-244,444
1016,38	360,000
1016,54	-192,308
1016,70	7,407
1016,86	130,303
1017,03	100,000
1017,19	91,304
1017,35	-0,000
1017,51	111,429
1017,68	154,545
1017,84	3900,000
1018,00	442,857
1018,16	12,500
1018,33	-157,143
1018,49	185,366
1018,65	20,588
1018,81	70,000
1018,97	-275,000
1019,14	110,000
1019,30	231,250
1019,46	577,778
1019,62	240,000
1019,79	391,667
1019,95	87,500
1020,11	-28,571
1020,27	616,667
1020,43	214,286
1020,60	-173,684
1020,76	16,667
1020,92	221,429
1021,08	1800,000
1021,24	290,000
1021,41	-0,000
1021,57	281,818
1021,73	-625,000
1021,89	-164,286
1022,05	-300,000
1022,21	128,205
1022,38	120,000
1022,54	2150,000
1022,70	-104,545
1022,86	800,000
1023,02	-111,765
1023,19	88,889
1023,35	100,000
1023,51	35,714
1023,67	191,667
1023,83	2733,333
1023,99	105,556
1024,16	147,619
1024,32	16,000
1024,48	136,364
1024,64	488,889
1024,80	-100,000
1024,96	68,966
1025,12	-142,857
1025,29	53,571
1025,45	102,778
1025,61	-533,333
1025,77	-109,677
1025,93	180,000
1026,09	73,171
1026,26	215,789
1026,42	-58,333
1026,58	73,913
1026,74	300,000
1026,90	266,667
1027,06	-64,103
1027,22	-43,478
1027,38	106,522
1027,55	-400,000
1027,71	240,000
1027,87	187,500
1028,03	50,000
1028,19	-105,882
1028,35	-557,143
1028,51	204,000
1028,67	123,529
1028,83	135,556
1029,00	-162,500
1029,16	94,595
1029,32	103,571
1029,48	442,857
1029,64	-223,077
1029,80	36,364
1029,96	700,000
1030,12	352,632
1030,28	-300,000
1030,44	1240,000
1030,61	-22,727
1030,77	-566,667
1030,93	-243,750
1031,09	175,000
1031,25	0,000
1031,41	-40,000
1031,57	-1425,000
1031,73	-1025,000
1031,89	-54,545
1032,05	-30,233
1032,21	-6,061
1032,37	96,429
1032,53	65,517
1032,69	130,769
1032,86	-150,000
1033,02	55,556
1033,18	275,000
1033,34	-1600,000
1033,50	237,500
1033,66	-100,000
1033,82	444,444
1033,98	2450,000
1034,14	-250,000
1034,30	-6,667
1034,46	188,235
1034,62	123,077
1034,78	-34,783
1034,94	125,806
1035,10	-446,154
1035,26	511,111
1035,42	-63,333
1035,58	229,167
1035,74	95,946
1035,90	318,750
1036,06	70,588
1036,22	245,455
1036,38	-206,250
1036,54	-93,750
1036,70	154,839
1036,86	-140,000
1037,02	-271,429
1037,18	123,529
1037,34	166,667
1037,50	-780,000
1037,66	-1500,000
1037,82	152,381
1037,98	375,000
1038,14	-500,000
1038,30	137,931
1038,46	-314,286
1038,62	122,222
1038,78	-685,714
1038,94	-150,000
1039,10	172,000
1039,26	-154,167
1039,42	178,261
1039,58	-550,000
1039,74	500,000
1039,90	-75,000
1040,06	7,692
>>>>>End Processed Spectral Data<<<<<
