SpectraSuite Data File
++++++++++++++++++++++++++++++++++++
Date: Tue Jan 31 18:53:58 EET 2017
User: optolab
Dark Spectrum Present: Yes
Reference Spectrum Present: Yes
Number of Sampled Component Spectra: 1
Spectrometers: USB4C02475
Integration Time (usec): 100000 (USB4C02475)
Spectra Averaged: 1 (USB4C02475)
Boxcar Smoothing: 0 (USB4C02475)
Correct for Electrical Dark: No (USB4C02475)
Strobe/Lamp Enabled: No (USB4C02475)
Correct for Detector Non-linearity: No (USB4C02475)
Correct for Stray Light: No (USB4C02475)
Number of Pixels in Processed Spectrum: 3648
>>>>>Begin Processed Spectral Data<<<<<
344,91	107,692
345,13	107,692
345,35	107,692
345,57	0,000
345,79	100,000
346,00	130,000
346,22	-169,444
346,44	300,000
346,66	1650,000
346,87	366,667
347,09	52,778
347,31	-900,000
347,53	533,333
347,74	53,846
347,96	361,905
348,18	1333,333
348,40	-357,143
348,61	137,143
348,83	92,683
349,05	117,857
349,27	52,632
349,48	86,538
349,70	329,412
349,92	82,927
350,14	322,222
350,35	175,610
350,57	137,143
350,79	370,588
351,01	230,769
351,22	225,000
351,44	-850,000
351,66	84,615
351,87	87,179
352,09	254,545
352,31	343,750
352,53	222,222
352,74	33,333
352,96	127,907
353,18	77,778
353,40	128,261
353,61	135,000
353,83	650,000
354,05	184,848
354,26	210,714
354,48	-475,000
354,70	102,439
354,92	151,515
355,13	117,647
355,35	0,000
355,57	138,889
355,78	152,941
356,00	79,412
356,22	155,556
356,44	15,385
356,65	116,667
356,87	-200,000
357,09	163,333
357,30	92,063
357,52	228,571
357,74	-1450,000
357,95	760,000
358,17	833,333
358,39	111,765
358,60	710,000
358,82	429,412
359,04	-106,250
359,26	107,812
359,47	65,217
359,69	-48,649
359,91	119,231
360,12	123,077
360,34	105,825
360,56	100,000
360,77	642,857
360,99	92,308
361,21	229,167
361,42	171,875
361,64	46,154
361,86	200,000
362,07	38,462
362,29	97,059
362,51	161,538
362,72	89,189
362,94	238,095
363,16	205,000
363,37	3,226
363,59	148,276
363,81	-38,889
364,02	34,118
364,24	330,435
364,46	175,676
364,67	157,778
364,89	285,000
365,11	3100,000
365,32	109,639
365,54	414,286
365,76	37,931
365,97	300,000
366,19	-100,000
366,41	253,846
366,62	194,737
366,84	205,263
367,05	120,000
367,27	-477,778
367,49	200,000
367,70	700,000
367,92	67,742
368,14	550,000
368,35	122,535
368,57	100,000
368,79	102,941
369,00	0,000
369,22	83,333
369,43	368,182
369,65	83,582
369,87	133,803
370,08	771,429
370,30	47,059
370,51	96,296
370,73	117,308
370,95	114,286
371,16	166,667
371,38	86,364
371,60	65,385
371,81	156,757
372,03	321,053
372,24	81,818
372,46	81,707
372,68	87,500
372,89	202,857
373,11	195,238
373,32	220,000
373,54	180,000
373,76	59,574
373,97	76,344
374,19	140,541
374,40	233,333
374,62	600,000
374,84	168,000
375,05	89,189
375,27	111,321
375,48	79,070
375,70	50,000
375,92	204,167
376,13	146,667
376,35	1366,667
376,56	54,667
376,78	120,833
376,99	96,104
377,21	-3600,000
377,43	83,333
377,64	92,105
377,86	95,652
378,07	56,667
378,29	-106,452
378,51	182,051
378,72	95,556
378,94	72,059
379,15	120,000
379,37	82,143
379,58	146,429
379,80	76,923
380,01	625,000
380,23	89,474
380,45	88,462
380,66	294,444
380,88	-1350,000
381,09	71,429
381,31	92,754
381,52	100,000
381,74	129,851
381,95	75,610
382,17	186,667
382,39	300,000
382,60	615,385
382,82	277,143
383,03	136,538
383,25	46,154
383,46	112,195
383,68	119,643
383,89	-20,000
384,11	4,545
384,32	-137,500
384,54	173,333
384,76	3100,000
384,97	74,074
385,19	54,167
385,40	156,250
385,62	400,000
385,83	124,324
386,05	-13,953
386,26	81,081
386,48	64,000
386,69	100,000
386,91	135,294
387,12	300,000
387,34	92,157
387,55	136,364
387,77	328,571
387,98	-428,571
388,20	80,645
388,41	184,615
388,63	169,767
388,84	52,308
389,06	53,846
389,27	157,143
389,49	103,125
389,70	58,333
389,92	73,437
390,13	4,348
390,35	90,000
390,56	145,455
390,78	148,387
390,99	166,667
391,21	153,571
391,42	132,787
391,64	296,296
391,85	36,667
392,07	130,000
392,28	51,250
392,50	43,860
392,71	111,111
392,93	67,568
393,14	-121,053
393,36	265,625
393,57	107,843
393,79	118,182
394,00	83,636
394,22	127,273
394,43	147,500
394,65	1200,000
394,86	89,394
395,08	89,041
395,29	127,907
395,50	250,000
395,72	75,000
395,93	110,417
396,15	71,831
396,36	75,472
396,58	203,704
396,79	94,545
397,01	102,410
397,22	227,778
397,44	-960,000
397,65	100,000
397,87	53,846
398,08	64,000
398,29	256,250
398,51	104,167
398,72	65,000
398,94	50,000
399,15	118,367
399,37	52,564
399,58	361,290
399,80	-34,375
400,01	94,203
400,22	130,612
400,44	333,333
400,65	260,000
400,87	86,885
401,08	92,105
401,30	56,000
401,51	63,636
401,72	158,140
401,94	45,161
402,15	44,068
402,37	193,939
402,58	91,111
402,80	117,857
403,01	103,191
403,22	31,667
403,44	70,000
403,65	-309,091
403,87	110,256
404,08	7,692
404,30	13,793
404,51	48,214
404,72	97,561
404,94	128,571
405,15	52,174
405,37	66,667
405,58	143,182
405,79	25,316
406,01	89,720
406,22	78,049
406,44	41,837
406,65	139,726
406,86	51,515
407,08	183,333
407,29	95,506
407,51	45,918
407,72	51,852
407,93	63,087
408,15	5,405
408,36	62,963
408,58	49,593
408,79	74,194
409,00	62,500
409,22	65,934
409,43	57,303
409,64	6,140
409,86	13,475
410,07	49,074
410,29	34,831
410,50	39,041
410,71	74,419
410,93	58,824
411,14	42,187
411,35	32,759
411,57	34,951
411,78	14,218
412,00	35,593
412,21	12,717
412,42	18,137
412,64	34,259
412,85	30,052
413,06	37,561
413,28	14,286
413,49	37,500
413,70	48,736
413,92	15,730
414,13	23,166
414,34	12,329
414,56	13,871
414,77	17,803
414,98	19,403
415,20	26,992
415,41	10,658
415,63	5,488
415,84	13,804
416,05	19,417
416,27	14,010
416,48	4,500
416,69	3,382
416,91	15,854
417,12	12,586
417,33	10,926
417,55	0,881
417,76	18,219
417,97	13,121
418,19	15,679
418,40	10,526
418,61	9,605
418,83	10,753
419,04	7,805
419,25	9,641
419,46	6,132
419,68	11,412
419,89	9,347
420,10	7,035
420,32	4,816
420,53	2,008
420,74	11,792
420,96	3,780
421,17	5,794
421,38	7,135
421,60	6,930
421,81	9,355
422,02	3,131
422,23	6,532
422,45	6,477
422,66	5,254
422,87	7,587
423,09	5,452
423,30	1,382
423,51	3,408
423,73	6,920
423,94	4,697
424,15	4,536
424,36	3,854
424,58	6,408
424,79	2,495
425,00	4,317
425,22	5,424
425,43	3,720
425,64	4,620
425,85	7,507
426,07	2,572
426,28	5,920
426,49	5,448
426,71	3,885
426,92	4,170
427,13	4,950
427,34	5,010
427,56	6,036
427,77	4,436
427,98	4,188
428,19	4,711
428,41	8,932
428,62	9,045
428,83	10,745
429,04	12,171
429,26	13,542
429,47	15,443
429,68	16,687
429,89	17,459
430,11	22,235
430,32	22,210
430,53	23,349
430,74	26,206
430,96	29,461
431,17	30,455
431,38	33,062
431,59	33,509
431,81	36,254
432,02	36,999
432,23	37,804
432,44	39,918
432,66	39,211
432,87	41,195
433,08	41,738
433,29	43,054
433,51	43,112
433,72	42,398
433,93	44,432
434,14	44,091
434,35	44,032
434,57	44,303
434,78	43,753
434,99	46,652
435,20	44,734
435,42	45,310
435,63	44,846
435,84	45,539
436,05	44,751
436,26	46,388
436,48	47,715
436,69	46,618
436,90	46,779
437,11	48,203
437,32	46,855
437,54	47,333
437,75	48,171
437,96	48,039
438,17	48,378
438,38	49,635
438,60	50,099
438,81	51,767
439,02	53,611
439,23	55,243
439,44	57,864
439,66	60,387
439,87	63,344
440,08	65,276
440,29	66,519
440,50	67,556
440,72	71,086
440,93	72,923
441,14	74,399
441,35	76,967
441,56	78,748
441,77	79,922
441,99	82,983
442,20	83,053
442,41	85,809
442,62	86,031
442,83	86,659
443,04	88,492
443,26	88,495
443,47	88,880
443,68	89,530
443,89	89,149
444,10	88,978
444,31	89,846
444,53	90,297
444,74	91,307
444,95	90,813
445,16	91,066
445,37	90,449
445,58	91,379
445,80	90,792
446,01	91,523
446,22	93,551
446,43	93,482
446,64	92,497
446,85	92,310
447,06	91,673
447,28	91,510
447,49	90,425
447,70	88,602
447,91	88,475
448,12	86,817
448,33	86,611
448,54	84,950
448,76	85,831
448,97	85,312
449,18	84,120
449,39	84,562
449,60	84,557
449,81	84,741
450,02	85,517
450,23	84,350
450,45	87,386
450,66	88,269
450,87	88,316
451,08	89,324
451,29	90,419
451,50	92,451
451,71	92,582
451,92	93,900
452,13	93,716
452,35	93,637
452,56	93,783
452,77	93,905
452,98	95,340
453,19	96,073
453,40	95,324
453,61	95,180
453,82	95,590
454,03	96,274
454,25	96,919
454,46	95,703
454,67	97,310
454,88	97,729
455,09	97,880
455,30	98,092
455,51	99,043
455,72	97,659
455,93	98,049
456,14	97,556
456,35	96,713
456,56	97,599
456,78	97,727
456,99	96,478
457,20	95,428
457,41	96,029
457,62	93,999
457,83	94,285
458,04	95,194
458,25	93,704
458,46	94,301
458,67	92,800
458,88	93,426
459,09	92,782
459,30	92,384
459,51	94,665
459,73	92,337
459,94	93,323
460,15	92,596
460,36	93,997
460,57	93,929
460,78	93,282
460,99	94,625
461,20	93,745
461,41	92,791
461,62	94,542
461,83	92,784
462,04	94,207
462,25	92,688
462,46	91,819
462,67	92,454
462,88	91,110
463,09	90,955
463,30	90,113
463,51	90,201
463,72	89,709
463,93	89,642
464,15	89,240
464,36	90,368
464,57	89,729
464,78	90,475
464,99	91,570
465,20	92,267
465,41	92,482
465,62	92,397
465,83	93,201
466,04	93,320
466,25	94,098
466,46	92,916
466,67	93,133
466,88	92,809
467,09	93,507
467,30	94,218
467,51	93,393
467,72	93,469
467,93	92,793
468,14	94,311
468,35	93,845
468,56	94,015
468,77	92,956
468,98	93,694
469,19	94,096
469,40	93,483
469,61	93,922
469,82	92,460
470,03	92,650
470,24	92,351
470,45	91,369
470,66	90,968
470,87	89,699
471,08	89,568
471,29	88,796
471,50	88,969
471,71	89,089
471,92	87,858
472,13	87,896
472,34	88,448
472,55	88,779
472,76	87,763
472,97	88,245
473,18	87,374
473,39	86,336
473,60	87,564
473,81	87,411
474,01	85,374
474,22	86,113
474,43	85,044
474,64	85,315
474,85	84,223
475,06	82,574
475,27	81,417
475,48	80,190
475,69	77,172
475,90	75,050
476,11	72,584
476,32	71,843
476,53	67,152
476,74	65,208
476,95	60,740
477,16	58,803
477,37	55,187
477,58	50,918
477,79	47,809
478,00	43,657
478,21	40,694
478,41	37,309
478,62	34,377
478,83	30,932
479,04	27,556
479,25	24,567
479,46	21,778
479,67	19,003
479,88	16,623
480,09	14,078
480,30	11,829
480,51	10,286
480,72	8,657
480,93	6,495
481,14	5,716
481,34	4,558
481,55	3,721
481,76	2,928
481,97	2,392
482,18	1,927
482,39	1,658
482,60	1,481
482,81	1,048
483,02	1,236
483,23	0,817
483,44	0,730
483,65	0,524
483,85	0,520
484,06	0,452
484,27	0,439
484,48	0,535
484,69	0,463
484,90	0,374
485,11	0,405
485,32	0,537
485,53	0,382
485,73	0,509
485,94	0,276
486,15	0,388
486,36	0,290
486,57	0,440
486,78	0,237
486,99	0,432
487,20	0,433
487,41	0,193
487,61	0,381
487,82	0,213
488,03	0,356
488,24	0,156
488,45	0,189
488,66	0,548
488,87	0,486
489,08	0,170
489,28	0,600
489,49	0,455
489,70	0,451
489,91	0,289
490,12	0,435
490,33	0,456
490,54	0,326
490,74	0,291
490,95	0,186
491,16	0,234
491,37	0,027
491,58	0,281
491,79	0,247
492,00	0,160
492,20	0,450
492,41	0,398
492,62	0,290
492,83	0,138
493,04	0,418
493,25	0,110
493,45	0,344
493,66	0,334
493,87	0,506
494,08	0,277
494,29	0,398
494,50	0,334
494,70	0,321
494,91	0,323
495,12	0,212
495,33	0,356
495,54	0,209
495,75	0,350
495,95	0,259
496,16	0,280
496,37	0,531
496,58	0,349
496,79	0,081
496,99	0,393
497,20	0,361
497,41	0,339
497,62	0,352
497,83	0,274
498,04	0,175
498,24	0,222
498,45	0,029
498,66	0,293
498,87	0,280
499,08	0,128
499,28	0,160
499,49	0,308
499,70	0,402
499,91	0,284
500,12	0,368
500,32	0,171
500,53	0,221
500,74	0,336
500,95	0,166
501,15	0,416
501,36	0,320
501,57	0,022
501,78	0,250
501,99	0,148
502,19	0,169
502,40	0,367
502,61	0,118
502,82	0,358
503,02	0,217
503,23	0,343
503,44	0,233
503,65	0,280
503,86	0,239
504,06	0,414
504,27	0,492
504,48	0,183
504,69	0,346
504,89	0,201
505,10	0,334
505,31	0,236
505,52	0,406
505,72	0,262
505,93	0,284
506,14	0,147
506,35	0,285
506,55	0,102
506,76	0,342
506,97	0,375
507,18	0,234
507,38	0,300
507,59	0,238
507,80	0,261
508,01	0,151
508,21	0,428
508,42	0,266
508,63	0,432
508,84	0,307
509,04	0,235
509,25	0,392
509,46	0,161
509,67	0,274
509,87	0,198
510,08	0,368
510,29	0,250
510,49	0,420
510,70	0,426
510,91	0,280
511,12	0,361
511,32	0,302
511,53	0,266
511,74	0,310
511,94	0,348
512,15	0,322
512,36	0,259
512,57	0,544
512,77	0,293
512,98	0,365
513,19	0,437
513,39	0,399
513,60	0,282
513,81	0,368
514,01	0,285
514,22	0,303
514,43	0,302
514,64	0,309
514,84	0,382
515,05	0,337
515,26	0,360
515,46	0,585
515,67	0,533
515,88	0,284
516,08	0,447
516,29	0,200
516,50	0,489
516,70	0,268
516,91	0,609
517,12	0,309
517,32	0,262
517,53	0,447
517,74	0,346
517,95	0,501
518,15	0,376
518,36	0,556
518,57	0,509
518,77	0,478
518,98	0,451
519,19	0,416
519,39	0,605
519,60	0,449
519,80	0,416
520,01	0,431
520,22	0,652
520,42	0,698
520,63	0,687
520,84	0,865
521,04	1,117
521,25	1,029
521,46	1,336
521,66	1,281
521,87	1,581
522,08	2,108
522,28	2,297
522,49	2,883
522,70	3,455
522,90	3,867
523,11	4,497
523,31	5,373
523,52	6,165
523,73	6,956
523,93	8,234
524,14	9,548
524,35	10,591
524,55	12,008
524,76	13,201
524,97	15,316
525,17	16,505
525,38	17,764
525,58	19,693
525,79	21,995
526,00	23,394
526,20	25,105
526,41	26,447
526,61	28,693
526,82	29,588
527,03	31,471
527,23	32,583
527,44	34,420
527,64	36,500
527,85	37,347
528,06	38,372
528,26	40,044
528,47	41,277
528,68	41,826
528,88	42,479
529,09	43,589
529,29	43,684
529,50	44,731
529,70	44,995
529,91	45,058
530,12	46,223
530,32	46,438
530,53	45,996
530,73	47,572
530,94	47,545
531,15	47,666
531,35	48,110
531,56	48,200
531,76	48,176
531,97	50,079
532,17	49,316
532,38	50,416
532,59	51,127
532,79	51,353
533,00	53,541
533,20	54,614
533,41	55,755
533,61	57,816
533,82	59,580
534,03	61,896
534,23	64,225
534,44	66,783
534,64	69,242
534,85	72,184
535,05	76,480
535,26	77,927
535,46	80,501
535,67	82,433
535,88	85,837
536,08	87,802
536,29	89,076
536,49	89,757
536,70	92,294
536,90	93,003
537,11	95,400
537,31	95,722
537,52	96,425
537,72	96,971
537,93	97,027
538,13	98,042
538,34	98,059
538,55	98,948
538,75	98,437
538,96	98,971
539,16	97,269
539,37	98,483
539,57	98,779
539,78	97,481
539,98	98,310
540,19	98,091
540,39	98,065
540,60	97,233
540,80	98,118
541,01	97,184
541,21	96,406
541,42	97,346
541,62	98,023
541,83	97,207
542,03	97,059
542,24	97,800
542,44	96,307
542,65	96,468
542,85	97,222
543,06	97,101
543,26	97,679
543,47	97,799
543,67	98,446
543,88	97,314
544,08	98,986
544,29	97,718
544,49	98,437
544,70	96,565
544,90	96,484
545,11	95,186
545,31	96,216
545,52	95,503
545,72	95,610
545,93	96,110
546,13	96,452
546,34	96,268
546,54	94,603
546,75	94,524
546,95	95,689
547,15	94,893
547,36	95,033
547,56	96,233
547,77	95,103
547,97	96,031
548,18	95,223
548,38	94,705
548,59	95,422
548,79	94,890
549,00	95,534
549,20	96,585
549,41	95,942
549,61	96,832
549,81	97,695
550,02	96,670
550,22	97,191
550,43	96,922
550,63	98,194
550,84	97,208
551,04	97,124
551,25	98,029
551,45	97,517
551,65	98,136
551,86	97,960
552,06	98,201
552,27	98,440
552,47	98,344
552,68	98,727
552,88	99,161
553,08	99,095
553,29	98,688
553,49	97,969
553,70	98,642
553,90	99,106
554,11	99,736
554,31	98,359
554,51	99,299
554,72	100,308
554,92	99,873
555,13	99,469
555,33	100,077
555,53	99,735
555,74	100,227
555,94	100,768
556,15	99,597
556,35	100,472
556,56	100,770
556,76	100,511
556,96	100,319
557,17	99,373
557,37	99,809
557,58	100,141
557,78	100,023
557,98	99,768
558,19	99,191
558,39	99,287
558,59	99,379
558,80	99,676
559,00	99,032
559,21	98,707
559,41	98,914
559,61	98,714
559,82	99,307
560,02	98,664
560,23	99,202
560,43	98,703
560,63	99,014
560,84	99,242
561,04	99,264
561,24	98,895
561,45	100,420
561,65	99,448
561,85	100,146
562,06	99,059
562,26	99,573
562,47	100,303
562,67	100,000
562,87	99,959
563,08	100,086
563,28	99,214
563,48	99,137
563,69	99,607
563,89	98,587
564,09	99,099
564,30	99,262
564,50	98,698
564,70	98,301
564,91	98,769
565,11	98,538
565,31	99,047
565,52	97,820
565,72	97,759
565,92	98,114
566,13	98,011
566,33	96,532
566,53	97,596
566,74	98,658
566,94	98,592
567,14	98,192
567,35	97,174
567,55	98,050
567,75	96,450
567,96	97,420
568,16	97,178
568,36	97,598
568,57	97,369
568,77	98,074
568,97	97,592
569,18	97,295
569,38	97,732
569,58	98,063
569,79	97,392
569,99	97,966
570,19	97,577
570,39	98,601
570,60	96,894
570,80	97,550
571,00	97,382
571,21	97,704
571,41	97,807
571,61	97,881
571,82	97,628
572,02	96,937
572,22	97,802
572,42	98,169
572,63	96,904
572,83	97,093
573,03	97,299
573,24	97,366
573,44	97,803
573,64	97,698
573,84	96,342
574,05	96,674
574,25	96,937
574,45	96,411
574,66	96,401
574,86	96,367
575,06	96,445
575,26	96,507
575,47	95,970
575,67	96,215
575,87	95,275
576,07	95,259
576,28	94,832
576,48	93,469
576,68	95,046
576,88	93,671
577,09	93,373
577,29	93,348
577,49	92,111
577,69	90,678
577,90	90,305
578,10	88,763
578,30	87,920
578,50	86,724
578,71	85,108
578,91	82,701
579,11	81,517
579,31	79,455
579,52	76,400
579,72	73,761
579,92	71,467
580,12	69,215
580,33	66,233
580,53	62,349
580,73	58,246
580,93	54,640
581,13	51,079
581,34	47,741
581,54	43,666
581,74	39,976
581,94	37,593
582,15	34,659
582,35	31,325
582,55	28,055
582,75	26,102
582,95	23,697
583,16	21,006
583,36	19,322
583,56	17,389
583,76	15,243
583,96	13,753
584,17	11,955
584,37	10,413
584,57	8,949
584,77	7,948
584,97	6,676
585,18	5,556
585,38	4,565
585,58	3,980
585,78	3,146
585,98	2,701
586,19	2,328
586,39	1,911
586,59	1,499
586,79	1,304
586,99	0,846
587,20	0,881
587,40	0,899
587,60	0,705
587,80	0,456
588,00	0,651
588,20	0,767
588,41	0,458
588,61	0,398
588,81	0,386
589,01	0,443
589,21	0,355
589,41	0,246
589,62	0,292
589,82	0,372
590,02	0,268
590,22	0,420
590,42	0,324
590,62	0,380
590,83	0,412
591,03	0,424
591,23	0,485
591,43	0,196
591,63	0,242
591,83	0,484
592,03	0,372
592,24	0,146
592,44	0,272
592,64	0,195
592,84	0,296
593,04	0,373
593,24	0,370
593,44	0,185
593,65	0,482
593,85	0,380
594,05	0,218
594,25	0,169
594,45	0,318
594,65	0,344
594,85	0,182
595,06	0,262
595,26	0,378
595,46	0,304
595,66	0,085
595,86	0,307
596,06	0,292
596,26	0,285
596,46	0,168
596,66	0,217
596,87	0,187
597,07	0,253
597,27	0,295
597,47	0,304
597,67	0,171
597,87	0,221
598,07	0,210
598,27	0,368
598,47	0,198
598,67	0,253
598,88	0,134
599,08	0,197
599,28	0,257
599,48	0,212
599,68	0,361
599,88	0,316
600,08	0,279
600,28	0,233
600,48	0,288
600,68	0,030
600,88	0,378
601,09	0,208
601,29	0,250
601,49	0,261
601,69	0,056
601,89	0,261
602,09	0,261
602,29	0,319
602,49	0,182
602,69	0,145
602,89	0,249
603,09	0,333
603,29	0,276
603,49	0,178
603,69	-0,030
603,90	0,116
604,10	0,300
604,30	0,094
604,50	0,141
604,70	0,038
604,90	0,292
605,10	0,090
605,30	0,350
605,50	0,140
605,70	0,311
605,90	0,231
606,10	0,315
606,30	0,169
606,50	0,221
606,70	0,159
606,90	0,169
607,10	0,290
607,30	0,239
607,50	0,346
607,70	0,436
607,90	0,214
608,10	0,257
608,30	0,073
608,50	0,287
608,70	0,144
608,90	0,158
609,11	0,460
609,31	0,234
609,51	0,341
609,71	0,451
609,91	0,290
610,11	0,186
610,31	0,270
610,51	0,177
610,71	0,179
610,91	0,354
611,11	0,356
611,31	0,122
611,51	0,190
611,71	0,233
611,91	0,205
612,11	0,305
612,31	0,226
612,51	0,234
612,71	0,211
612,91	0,185
613,11	0,368
613,31	0,295
613,51	0,558
613,71	0,306
613,91	0,480
614,11	0,493
614,31	0,676
614,50	0,744
614,70	0,872
614,90	1,203
615,10	1,201
615,30	1,197
615,50	1,591
615,70	1,968
615,90	2,028
616,10	2,633
616,30	2,719
616,50	3,086
616,70	3,682
616,90	4,607
617,10	4,951
617,30	5,695
617,50	7,167
617,70	7,106
617,90	8,236
618,10	9,440
618,30	10,349
618,50	11,586
618,70	12,586
618,90	14,077
619,10	15,150
619,30	16,575
619,49	17,834
619,69	18,898
619,89	20,589
620,09	21,393
620,29	23,254
620,49	24,261
620,69	25,490
620,89	26,552
621,09	28,180
621,29	28,742
621,49	30,017
621,69	30,470
621,89	32,042
622,09	32,249
622,29	33,562
622,48	33,675
622,68	34,954
622,88	35,549
623,08	36,243
623,28	36,672
623,48	37,460
623,68	37,781
623,88	38,065
624,08	38,192
624,28	38,835
624,48	40,215
624,67	40,648
624,87	41,036
625,07	41,531
625,27	41,974
625,47	42,508
625,67	42,756
625,87	43,088
626,07	43,745
626,27	44,218
626,47	45,053
626,66	45,443
626,86	45,969
627,06	46,821
627,26	47,358
627,46	48,068
627,66	49,045
627,86	50,337
628,06	51,261
628,25	53,640
628,45	54,951
628,65	56,286
628,85	58,292
629,05	61,111
629,25	62,939
629,45	64,992
629,65	67,710
629,84	69,973
630,04	73,392
630,24	75,392
630,44	77,353
630,64	79,408
630,84	81,891
631,04	84,123
631,23	85,661
631,43	87,049
631,63	88,849
631,83	91,181
632,03	91,796
632,23	92,851
632,42	94,297
632,62	94,349
632,82	94,461
633,02	95,272
633,22	95,300
633,42	95,431
633,62	96,231
633,81	96,079
634,01	96,400
634,21	96,543
634,41	96,997
634,61	97,490
634,80	96,520
635,00	96,873
635,20	98,131
635,40	97,160
635,60	98,262
635,80	97,274
635,99	98,429
636,19	96,035
636,39	98,042
636,59	97,696
636,79	96,628
636,98	96,314
637,18	96,780
637,38	96,253
637,58	95,329
637,78	96,000
637,97	95,380
638,17	96,422
638,37	95,883
638,57	96,074
638,77	95,240
638,96	95,327
639,16	94,235
639,36	93,930
639,56	94,523
639,76	95,319
639,95	93,885
640,15	95,399
640,35	93,511
640,55	93,922
640,75	95,179
640,94	95,181
641,14	95,015
641,34	93,623
641,54	93,181
641,73	93,918
641,93	94,921
642,13	92,999
642,33	92,887
642,53	94,193
642,72	92,675
642,92	94,487
643,12	94,225
643,32	94,348
643,51	93,684
643,71	93,902
643,91	93,973
644,11	94,155
644,30	94,098
644,50	93,922
644,70	92,701
644,90	94,208
645,09	92,211
645,29	93,231
645,49	92,196
645,69	93,180
645,88	93,501
646,08	93,705
646,28	94,185
646,48	92,615
646,67	94,939
646,87	94,347
647,07	93,607
647,26	94,457
647,46	93,423
647,66	94,694
647,86	93,296
648,05	92,142
648,25	94,603
648,45	93,454
648,65	94,265
648,84	95,069
649,04	92,920
649,24	93,126
649,43	92,694
649,63	93,005
649,83	93,751
650,03	93,886
650,22	93,844
650,42	93,680
650,62	93,256
650,81	93,890
651,01	95,054
651,21	92,790
651,40	92,284
651,60	94,746
651,80	94,879
652,00	94,721
652,19	93,930
652,39	95,106
652,59	96,114
652,78	94,729
652,98	94,888
653,18	95,164
653,37	94,854
653,57	94,941
653,77	96,228
653,96	94,715
654,16	95,821
654,36	95,427
654,55	96,414
654,75	95,788
654,95	95,614
655,14	94,135
655,34	95,641
655,54	95,674
655,73	95,630
655,93	96,791
656,13	96,100
656,32	95,092
656,52	96,769
656,72	96,743
656,91	94,411
657,11	94,709
657,31	93,424
657,50	95,136
657,70	94,373
657,90	95,237
658,09	94,979
658,29	95,369
658,49	96,146
658,68	94,257
658,88	94,516
659,07	94,910
659,27	95,331
659,47	96,288
659,66	95,755
659,86	95,689
660,06	93,306
660,25	93,654
660,45	94,526
660,64	95,010
660,84	94,134
661,04	92,998
661,23	92,764
661,43	94,087
661,63	93,838
661,82	93,905
662,02	93,322
662,21	94,247
662,41	93,004
662,61	93,493
662,80	94,006
663,00	94,503
663,19	94,362
663,39	94,709
663,59	94,113
663,78	92,708
663,98	93,368
664,17	93,030
664,37	93,655
664,57	93,595
664,76	94,614
664,96	92,400
665,15	95,542
665,35	93,180
665,55	93,067
665,74	94,272
665,94	94,252
666,13	93,549
666,33	93,377
666,53	92,678
666,72	91,661
666,92	93,934
667,11	92,508
667,31	90,333
667,50	90,145
667,70	91,818
667,90	89,501
668,09	89,693
668,29	88,315
668,48	87,006
668,68	87,814
668,87	85,599
669,07	85,053
669,26	83,273
669,46	83,347
669,66	81,619
669,85	81,320
670,05	79,106
670,24	78,308
670,44	76,433
670,63	73,866
670,83	72,154
671,02	69,486
671,22	67,517
671,42	65,590
671,61	63,255
671,81	62,192
672,00	58,403
672,20	57,304
672,39	53,985
672,59	52,817
672,78	49,629
672,98	47,162
673,17	45,349
673,37	43,106
673,56	40,710
673,76	37,914
673,95	35,242
674,15	33,728
674,34	32,054
674,54	29,053
674,73	26,556
674,93	24,093
675,13	22,585
675,32	21,141
675,52	18,755
675,71	17,886
675,91	15,772
676,10	13,912
676,30	13,500
676,49	11,892
676,69	10,751
676,88	9,698
677,08	8,494
677,27	7,213
677,47	6,808
677,66	6,168
677,86	5,461
678,05	4,881
678,24	4,000
678,44	3,758
678,63	3,119
678,83	2,871
679,02	2,859
679,22	2,253
679,41	2,094
679,61	1,774
679,80	1,821
680,00	1,447
680,19	1,047
680,39	1,024
680,58	0,875
680,78	0,794
680,97	0,641
681,17	0,495
681,36	0,436
681,56	0,320
681,75	0,588
681,94	0,286
682,14	0,214
682,33	0,440
682,53	0,132
682,72	0,359
682,92	0,082
683,11	0,201
683,31	0,171
683,50	-0,014
683,69	0,205
683,89	0,237
684,08	-0,051
684,28	0,268
684,47	-0,027
684,67	-0,054
684,86	0,071
685,06	0,182
685,25	0,048
685,44	0,232
685,64	0,034
685,83	0,177
686,03	0,180
686,22	0,178
686,42	-0,109
686,61	0,172
686,80	0,271
687,00	0,165
687,19	0,282
687,39	0,053
687,58	-0,020
687,77	0,108
687,97	0,088
688,16	0,012
688,36	0,198
688,55	0,111
688,74	0,004
688,94	0,156
689,13	-0,108
689,33	0,087
689,52	-0,030
689,71	0,079
689,91	-0,063
690,10	-0,019
690,30	0,158
690,49	0,069
690,68	0,062
690,88	0,145
691,07	0,014
691,27	0,165
691,46	0,177
691,65	0,090
691,85	-0,075
692,04	-0,184
692,23	0,058
692,43	0,061
692,62	0,148
692,82	0,109
693,01	0,101
693,20	-0,113
693,40	0,026
693,59	-0,044
693,78	-0,055
693,98	-0,037
694,17	0,170
694,36	-0,008
694,56	-0,046
694,75	0,031
694,94	0,008
695,14	0,196
695,33	0,016
695,53	-0,098
695,72	0,004
695,91	0,089
696,11	0,164
696,30	-0,083
696,49	-0,036
696,69	0,055
696,88	0,253
697,07	0,116
697,27	0,143
697,46	0,106
697,65	-0,099
697,85	-0,187
698,04	-0,146
698,23	-0,136
698,43	0,456
698,62	-0,054
698,81	0,068
699,01	-0,236
699,20	0,285
699,39	-0,040
699,58	-0,007
699,78	0,171
699,97	-0,037
700,16	0,045
700,36	0,151
700,55	0,241
700,74	-0,008
700,94	0,291
701,13	0,150
701,32	0,532
701,52	0,247
701,71	0,553
701,90	0,098
702,09	-0,031
702,29	0,397
702,48	-0,043
702,67	0,737
702,87	0,197
703,06	0,210
703,25	0,233
703,44	0,468
703,64	0,349
703,83	0,923
704,02	-0,137
704,22	0,312
704,41	0,309
704,60	0,635
704,79	-0,455
704,99	0,248
705,18	0,192
705,37	0,552
705,56	-0,187
705,76	0,478
705,95	0,144
706,14	0,219
706,33	0,852
706,53	0,510
706,72	0,859
706,91	-0,227
707,11	0,381
707,30	0,634
707,49	1,827
707,68	1,732
707,88	0,159
708,07	0,511
708,26	1,454
708,45	1,816
708,64	0,829
708,84	0,751
709,03	0,906
709,22	0,713
709,41	0,027
709,61	-1,198
709,80	0,615
709,99	1,455
710,18	0,178
710,38	2,255
710,57	0,478
710,76	1,769
710,95	0,798
711,14	0,066
711,34	0,000
711,53	1,211
711,72	0,884
711,91	-0,137
712,11	0,773
712,30	0,612
712,49	1,516
712,68	0,502
712,87	0,586
713,07	1,494
713,26	-0,282
713,45	1,154
713,64	1,884
713,83	2,327
714,03	-0,043
714,22	-0,697
714,41	1,296
714,60	2,010
714,79	2,269
714,99	0,134
715,18	-0,047
715,37	1,114
715,56	0,714
715,75	-0,899
715,94	-0,966
716,14	-0,866
716,33	-1,139
716,52	1,716
716,71	0,000
716,90	-0,686
717,10	0,665
717,29	3,643
717,48	1,474
717,67	0,169
717,86	-0,858
718,05	2,189
718,24	2,429
718,44	4,459
718,63	2,673
718,82	1,319
719,01	0,738
719,20	0,841
719,39	2,514
719,59	0,697
719,78	1,309
719,97	3,626
720,16	-0,070
720,35	0,652
720,54	3,629
720,73	1,218
720,93	2,019
721,12	-0,937
721,31	3,280
721,50	3,267
721,69	1,701
721,88	0,512
722,07	1,365
722,27	0,078
722,46	-3,143
722,65	0,000
722,84	1,657
723,03	4,464
723,22	3,089
723,41	-2,742
723,60	2,357
723,79	1,334
723,99	3,653
724,18	1,494
724,37	-1,684
724,56	0,697
724,75	-0,625
724,94	2,580
725,13	3,975
725,32	3,336
725,51	2,867
725,71	3,066
725,90	6,629
726,09	0,285
726,28	1,977
726,47	1,746
726,66	0,292
726,85	1,071
727,04	3,030
727,23	3,320
727,42	4,880
727,61	0,728
727,81	-3,250
728,00	3,410
728,19	-0,212
728,38	1,389
728,57	3,548
728,76	6,680
728,95	-0,328
729,14	5,038
729,33	0,221
729,52	5,738
729,71	1,863
729,90	-0,349
730,09	3,432
730,28	4,492
730,48	6,053
730,67	6,706
730,86	1,961
731,05	-2,454
731,24	2,473
731,43	0,713
731,62	-0,123
731,81	2,517
732,00	-2,242
732,19	5,890
732,38	4,848
732,57	0,628
732,76	-1,940
732,95	0,513
733,14	6,555
733,33	2,500
733,52	7,317
733,71	4,920
733,90	-1,107
734,09	5,207
734,28	5,643
734,47	-3,529
734,66	0,701
734,85	0,000
735,04	9,326
735,23	6,233
735,42	5,248
735,61	-0,416
735,81	6,960
736,00	0,000
736,19	1,799
736,38	6,015
736,57	4,272
736,76	6,186
736,95	5,582
737,14	5,521
737,33	-1,869
737,52	-1,368
737,71	1,220
737,90	6,070
738,09	-4,655
738,28	-1,136
738,47	5,949
738,66	0,169
738,85	3,307
739,04	-1,771
739,22	8,748
739,41	-3,665
739,60	1,795
739,79	-3,197
739,98	8,286
740,17	10,304
740,36	3,977
740,55	8,925
740,74	-2,602
740,93	8,938
741,12	8,997
741,31	-3,272
741,50	3,833
741,69	-0,555
741,88	6,305
742,07	10,424
742,26	4,398
742,45	4,891
742,64	-1,429
742,83	-6,154
743,02	1,205
743,21	2,483
743,40	7,663
743,59	-0,393
743,78	-3,376
743,97	12,524
744,16	-3,448
744,34	-2,479
744,53	9,267
744,72	10,403
744,91	7,803
745,10	3,218
745,29	4,225
745,48	3,712
745,67	-4,222
745,86	1,452
746,05	4,474
746,24	1,078
746,43	10,204
746,62	10,059
746,81	8,057
747,00	16,458
747,18	-1,136
747,37	-1,818
747,56	11,899
747,75	2,558
747,94	18,182
748,13	2,804
748,32	7,073
748,51	11,944
748,70	5,276
748,89	2,151
749,08	2,217
749,26	6,933
749,45	2,810
749,64	9,561
749,83	5,651
750,02	-0,804
750,21	6,510
750,40	-1,055
750,59	7,979
750,78	3,373
750,96	12,968
751,15	-5,362
751,34	5,897
751,53	9,167
751,72	3,753
751,91	-6,037
752,10	-3,099
752,29	0,870
752,47	0,575
752,66	2,071
752,85	16,402
753,04	-11,081
753,23	-1,278
753,42	14,464
753,61	7,903
753,80	-0,300
753,98	10,937
754,17	-7,082
754,36	10,784
754,55	6,840
754,74	14,054
754,93	1,613
755,12	8,000
755,30	4,428
755,49	10,557
755,68	10,959
755,87	2,730
756,06	6,916
756,25	-9,901
756,43	15,108
756,62	-2,527
756,81	-1,176
757,00	21,978
757,19	8,896
757,38	17,264
757,56	9,122
757,75	4,580
757,94	-3,017
758,13	13,057
758,32	9,091
758,51	4,194
758,69	9,615
758,88	13,770
759,07	26,335
759,26	-1,361
759,45	5,714
759,63	-6,719
759,82	-7,299
760,01	16,667
760,20	17,518
760,39	0,766
760,57	-24,034
760,76	1,145
760,95	4,598
761,14	3,077
761,33	17,187
761,51	9,259
761,70	26,207
761,89	24,031
762,08	18,966
762,27	12,019
762,45	8,962
762,64	19,027
762,83	19,331
763,02	10,035
763,21	10,915
763,39	-3,167
763,58	10,612
763,77	-3,723
763,96	8,772
764,14	14,523
764,33	11,654
764,52	6,696
764,71	11,330
764,89	26,014
765,08	16,479
765,27	-6,436
765,46	19,091
765,65	8,122
765,83	10,000
766,02	5,861
766,21	21,941
766,40	12,558
766,58	0,905
766,77	-10,734
766,96	1,026
767,15	12,077
767,33	-5,288
767,52	0,948
767,71	-6,667
767,90	13,750
768,08	24,893
768,27	12,558
768,46	4,762
768,64	0,971
768,83	20,541
769,02	19,524
769,21	-4,688
769,39	6,040
769,58	25,500
769,77	3,804
769,96	21,192
770,14	16,031
770,33	0,000
770,52	10,256
770,70	6,436
770,89	21,939
771,08	3,646
771,27	-16,495
771,45	20,231
771,64	45,395
771,83	23,656
772,01	3,817
772,20	13,636
772,39	29,299
772,57	18,229
772,76	28,966
772,95	-14,213
773,14	39,535
773,32	-3,297
773,51	21,860
773,70	5,960
773,88	12,060
774,07	22,176
774,26	17,073
774,44	23,116
774,63	32,278
774,82	23,494
775,00	46,725
775,19	28,161
775,38	-10,000
775,56	23,171
775,75	-10,180
775,94	11,940
776,12	0,833
776,31	15,569
776,50	-5,455
776,68	17,284
776,87	-19,580
777,06	19,863
777,24	-32,787
777,43	16,260
777,62	16,296
777,80	32,065
777,99	8,280
778,18	26,752
778,36	17,557
778,55	8,148
778,74	12,121
778,92	28,054
779,11	2,581
779,29	22,222
779,48	-9,917
779,67	-4,317
779,85	21,600
780,04	42,958
780,23	-9,790
780,41	13,529
780,60	15,789
780,79	29,167
780,97	42,857
781,16	-10,400
781,34	28,788
781,53	28,205
781,72	37,963
781,90	2,885
782,09	22,951
782,28	24,390
782,46	-21,138
782,65	21,678
782,83	4,580
783,02	-12,000
783,21	19,380
783,39	16,667
783,58	44,667
783,76	10,811
783,95	10,596
784,14	-4,211
784,32	-8,257
784,51	3,371
784,69	13,376
784,88	16,774
785,06	27,660
785,25	24,060
785,44	19,595
785,62	-7,857
785,81	0,746
785,99	12,925
786,18	30,328
786,37	30,345
786,55	5,224
786,74	49,689
786,92	23,837
787,11	16,800
787,29	32,941
787,48	-10,000
787,67	4,082
787,85	-10,938
788,04	37,671
788,22	48,148
788,41	51,974
788,59	36,735
788,78	13,889
788,96	53,333
789,15	27,869
789,34	-1,220
789,52	14,925
789,71	3,175
789,89	21,053
790,08	15,686
790,26	51,587
790,45	37,956
790,63	1,974
790,82	18,548
791,00	15,873
791,19	31,429
791,38	37,671
791,56	14,474
791,75	-20,270
791,93	3,922
792,12	2,273
792,30	35,526
792,49	19,626
792,67	37,143
792,86	-18,919
793,04	-21,429
793,23	38,816
793,41	18,065
793,60	12,025
793,78	36,913
793,97	13,793
794,15	21,569
794,34	-3,061
794,52	17,829
794,71	36,420
794,89	-6,429
795,08	53,205
795,26	19,000
795,45	35,106
795,63	26,415
795,82	20,168
796,00	-15,385
796,19	-1,299
796,37	7,627
796,56	-24,074
796,74	14,844
796,93	22,689
797,11	-8,333
797,30	58,015
797,48	43,357
797,67	16,935
797,85	54,348
798,04	26,126
798,22	43,885
798,41	49,153
798,59	22,143
798,77	6,838
798,96	33,871
799,14	44,444
799,33	19,469
799,51	28,713
799,70	8,791
799,88	27,523
800,07	15,827
800,25	3,817
800,44	44,554
800,62	11,511
800,80	13,636
800,99	38,462
801,17	2,759
801,36	-18,750
801,54	22,481
801,73	40,909
801,91	57,303
802,10	22,353
802,28	11,811
802,46	26,613
802,65	26,490
802,83	-4,132
803,02	40,306
803,20	48,305
803,39	42,202
803,57	7,746
803,75	39,286
803,94	34,459
804,12	22,981
804,31	43,269
804,49	41,935
804,67	-20,721
804,86	43,478
805,04	-6,977
805,23	45,985
805,41	-11,765
805,59	15,060
805,78	28,571
805,96	42,771
806,15	-6,400
806,33	5,109
806,51	31,410
806,70	-4,651
806,88	-17,273
807,07	27,869
807,25	41,739
807,43	-36,667
807,62	-5,469
807,80	28,049
807,99	26,619
808,17	6,944
808,35	-32,075
808,54	23,464
808,72	33,974
808,90	13,008
809,09	18,978
809,27	3,883
809,46	48,598
809,64	32,370
809,82	11,034
810,01	26,344
810,19	-10,909
810,37	12,500
810,56	13,245
810,74	37,107
810,92	1,408
811,11	19,018
811,29	19,876
811,48	28,696
811,66	13,198
811,84	22,881
812,03	10,135
812,21	22,424
812,39	-17,742
812,58	25,146
812,76	14,599
812,94	16,779
813,13	20,122
813,31	20,106
813,49	36,000
813,68	23,770
813,86	22,436
814,04	36,036
814,23	7,692
814,41	-14,384
814,59	13,725
814,78	44,966
814,96	12,291
815,14	18,593
815,33	17,355
815,51	-5,512
815,69	15,267
815,87	4,516
816,06	16,418
816,24	22,876
816,42	1,190
816,61	22,840
816,79	17,919
816,97	15,385
817,16	24,405
817,34	38,235
817,52	16,355
817,70	6,218
817,89	22,967
818,07	15,333
818,25	6,329
818,44	13,369
818,62	32,673
818,80	18,132
818,98	8,718
819,17	31,356
819,35	36,242
819,53	42,051
819,72	4,324
819,90	32,889
820,08	20,297
820,26	31,963
820,45	11,828
820,63	26,901
820,81	21,560
820,99	25,764
821,18	31,325
821,36	-11,875
821,54	20,398
821,73	20,765
821,91	11,972
822,09	15,976
822,27	23,346
822,46	29,557
822,64	20,526
822,82	16,244
823,00	14,660
823,19	33,810
823,37	32,906
823,55	29,536
823,73	32,584
823,91	17,647
824,10	26,042
824,28	27,273
824,46	-28,289
824,64	30,258
824,83	30,332
825,01	24,706
825,19	27,948
825,37	36,275
825,56	24,809
825,74	41,126
825,92	27,237
826,10	18,943
826,28	28,413
826,47	28,794
826,65	26,619
826,83	39,912
827,01	34,646
827,19	21,318
827,38	39,326
827,56	36,500
827,74	9,005
827,92	23,902
828,10	19,444
828,29	26,199
828,47	33,942
828,65	25,391
828,83	19,409
829,01	18,919
829,20	31,538
829,38	36,475
829,56	30,976
829,74	46,923
829,92	30,769
830,10	20,172
830,29	29,885
830,47	18,657
830,65	19,665
830,83	32,653
831,01	20,179
831,20	16,423
831,38	25,081
831,56	43,158
831,74	26,102
831,92	27,106
832,10	28,481
832,29	19,788
832,47	20,567
832,65	26,885
832,83	28,481
833,01	22,054
833,19	25,568
833,37	24,924
833,56	25,000
833,74	27,213
833,92	26,689
834,10	25,602
834,28	13,589
834,46	21,387
834,64	33,867
834,83	9,065
835,01	25,065
835,19	19,149
835,37	25,989
835,55	30,878
835,73	8,475
835,91	23,894
836,09	17,763
836,28	16,159
836,46	14,454
836,64	15,748
836,82	17,582
837,00	5,431
837,18	12,667
837,36	27,273
837,54	13,115
837,72	17,722
837,91	20,113
838,09	23,333
838,27	17,617
838,45	24,110
838,63	16,901
838,81	26,444
838,99	18,568
839,17	4,037
839,35	19,413
839,53	21,684
839,72	20,879
839,90	17,333
840,08	21,882
840,26	12,861
840,44	13,486
840,62	12,399
840,80	22,637
840,98	22,819
841,16	7,880
841,34	17,429
841,52	11,304
841,70	15,385
841,89	19,590
842,07	17,701
842,25	12,998
842,43	9,489
842,61	13,002
842,79	16,100
842,97	5,950
843,15	12,944
843,33	17,490
843,51	15,652
843,69	17,969
843,87	29,032
844,05	12,311
844,23	24,948
844,41	22,664
844,59	20,539
844,77	13,608
844,95	19,697
845,13	21,895
845,31	22,790
845,50	21,118
845,68	17,773
845,86	18,699
846,04	23,902
846,22	24,912
846,40	22,521
846,58	29,880
846,76	25,355
846,94	13,917
847,12	15,962
847,30	25,704
847,48	20,947
847,66	19,342
847,84	22,968
848,02	24,265
848,20	20,716
848,38	18,214
848,56	22,262
848,74	26,594
848,92	22,680
849,10	31,514
849,28	23,465
849,46	24,030
849,64	30,698
849,82	30,032
850,00	28,499
850,18	22,979
850,36	25,993
850,54	28,914
850,72	21,340
850,90	29,238
851,08	20,000
851,26	22,977
851,44	26,979
851,62	35,793
851,80	23,193
851,98	26,998
852,16	24,664
852,34	25,070
852,52	20,562
852,70	30,769
852,87	18,632
853,05	22,636
853,23	23,746
853,41	28,873
853,59	21,501
853,77	28,343
853,95	23,156
854,13	20,313
854,31	12,129
854,49	21,941
854,67	28,692
854,85	20,081
855,03	30,253
855,21	29,497
855,39	27,178
855,57	25,070
855,75	21,381
855,93	21,910
856,11	19,455
856,28	23,435
856,46	21,579
856,64	23,377
856,82	25,461
857,00	25,508
857,18	27,682
857,36	26,493
857,54	21,924
857,72	23,019
857,90	19,530
858,08	21,094
858,26	24,019
858,44	20,669
858,61	24,746
858,79	20,858
858,97	24,483
859,15	22,658
859,33	24,094
859,51	18,844
859,69	21,591
859,87	19,589
860,05	10,824
860,23	19,729
860,40	15,519
860,58	14,872
860,76	15,761
860,94	14,744
861,12	20,062
861,30	20,459
861,48	17,373
861,66	17,745
861,84	14,286
862,01	17,918
862,19	21,545
862,37	12,784
862,55	18,421
862,73	17,562
862,91	19,696
863,09	14,579
863,27	17,441
863,44	18,429
863,62	17,996
863,80	20,293
863,98	17,311
864,16	19,106
864,34	17,565
864,52	19,039
864,69	20,080
864,87	17,041
865,05	19,982
865,23	17,071
865,41	16,865
865,59	21,409
865,76	20,125
865,94	19,337
866,12	17,130
866,30	23,131
866,48	21,701
866,66	19,652
866,83	24,593
867,01	24,890
867,19	23,495
867,37	24,483
867,55	23,554
867,73	23,900
867,90	27,317
868,08	29,382
868,26	24,545
868,44	22,742
868,62	31,960
868,79	24,372
868,97	27,465
869,15	27,036
869,33	25,914
869,51	29,796
869,69	24,738
869,86	29,983
870,04	29,569
870,22	31,121
870,40	26,502
870,57	31,032
870,75	30,365
870,93	31,370
871,11	29,854
871,29	30,769
871,46	25,846
871,64	30,612
871,82	32,051
872,00	33,509
872,18	31,852
872,35	31,222
872,53	30,742
872,71	29,950
872,89	29,485
873,06	32,536
873,24	28,718
873,42	33,883
873,60	32,347
873,77	30,839
873,95	30,967
874,13	27,193
874,31	30,565
874,49	30,769
874,66	30,856
874,84	26,632
875,02	30,759
875,20	31,764
875,37	30,628
875,55	28,218
875,73	33,398
875,91	30,211
876,08	25,644
876,26	30,537
876,44	27,878
876,61	28,381
876,79	28,827
876,97	27,315
877,15	31,712
877,32	30,357
877,50	29,689
877,68	30,725
877,86	30,065
878,03	28,226
878,21	28,881
878,39	32,071
878,56	33,146
878,74	30,121
878,92	31,876
879,10	32,778
879,27	33,240
879,45	32,370
879,63	31,968
879,80	31,292
879,98	31,034
880,16	34,192
880,34	34,857
880,51	36,301
880,69	35,489
880,87	37,002
881,04	34,253
881,22	35,198
881,40	35,512
881,57	35,789
881,75	37,015
881,93	34,321
882,10	37,886
882,28	37,091
882,46	38,082
882,63	35,596
882,81	36,483
882,99	37,647
883,16	38,255
883,34	36,981
883,52	38,465
883,69	38,976
883,87	38,571
884,05	35,718
884,22	38,594
884,40	40,376
884,58	36,467
884,75	38,905
884,93	39,442
885,11	41,824
885,28	41,094
885,46	38,227
885,64	39,330
885,81	38,380
885,99	36,422
886,17	38,732
886,34	38,829
886,52	38,969
886,70	38,428
886,87	36,787
887,05	38,405
887,22	35,828
887,40	39,447
887,58	38,642
887,75	37,094
887,93	37,731
888,11	36,266
888,28	39,409
888,46	36,761
888,63	35,797
888,81	39,226
888,99	37,208
889,16	37,537
889,34	37,835
889,51	39,296
889,69	38,421
889,87	38,005
890,04	38,070
890,22	39,973
890,39	38,375
890,57	41,164
890,75	41,569
890,92	41,967
891,10	39,046
891,27	40,996
891,45	40,132
891,63	41,971
891,80	42,880
891,98	42,030
892,15	43,218
892,33	42,821
892,51	43,489
892,68	42,074
892,86	43,410
893,03	41,302
893,21	45,699
893,38	44,356
893,56	45,796
893,74	44,964
893,91	44,983
894,09	45,830
894,26	45,610
894,44	45,679
894,61	44,051
894,79	46,283
894,96	47,166
895,14	46,600
895,32	45,698
895,49	46,285
895,67	47,126
895,84	48,055
896,02	46,730
896,19	46,154
896,37	46,374
896,54	46,788
896,72	45,789
896,89	45,783
897,07	45,233
897,25	47,596
897,42	44,698
897,60	45,807
897,77	45,099
897,95	46,706
898,12	45,811
898,30	44,332
898,47	45,557
898,65	46,409
898,82	46,048
899,00	45,005
899,17	45,357
899,35	43,497
899,52	44,578
899,70	45,098
899,87	44,477
900,05	42,789
900,22	43,753
900,40	43,969
900,57	42,937
900,75	44,809
900,92	43,944
901,10	42,511
901,27	44,758
901,45	44,053
901,62	42,672
901,80	45,572
901,97	46,737
902,15	45,251
902,32	46,051
902,50	44,737
902,67	44,254
902,85	44,729
903,02	42,814
903,20	43,333
903,37	44,892
903,54	43,351
903,72	44,144
903,89	45,690
904,07	42,313
904,24	44,574
904,42	45,566
904,59	44,030
904,77	46,443
904,94	44,627
905,12	45,347
905,29	44,610
905,47	45,073
905,64	44,305
905,81	43,739
905,99	43,949
906,16	44,285
906,34	42,524
906,51	43,177
906,69	41,923
906,86	44,047
907,03	42,403
907,21	42,667
907,38	40,291
907,56	39,162
907,73	40,949
907,91	40,597
908,08	39,254
908,25	39,223
908,43	40,714
908,60	39,691
908,78	39,915
908,95	37,638
909,13	37,229
909,30	37,828
909,47	35,761
909,65	37,751
909,82	37,023
910,00	36,386
910,17	36,135
910,34	34,241
910,52	34,736
910,69	32,471
910,87	34,706
911,04	33,137
911,21	34,088
911,39	33,906
911,56	33,631
911,73	34,189
911,91	32,030
912,08	33,476
912,26	33,255
912,43	32,740
912,60	34,095
912,78	32,104
912,95	32,509
913,13	33,053
913,30	32,208
913,47	32,440
913,65	33,504
913,82	33,225
913,99	31,514
914,17	33,864
914,34	32,183
914,51	34,082
914,69	33,112
914,86	32,945
915,03	33,600
915,21	32,241
915,38	34,314
915,56	33,638
915,73	32,622
915,90	32,607
916,08	33,727
916,25	32,961
916,42	34,161
916,60	33,568
916,77	33,635
916,94	33,971
917,12	33,661
917,29	34,455
917,46	32,622
917,64	33,617
917,81	34,140
917,98	32,636
918,16	32,860
918,33	34,438
918,50	33,253
918,67	33,528
918,85	33,141
919,02	33,545
919,19	33,878
919,37	33,607
919,54	34,719
919,71	33,124
919,89	33,474
920,06	32,917
920,23	33,346
920,41	33,015
920,58	32,030
920,75	32,567
920,92	32,166
921,10	31,833
921,27	32,679
921,44	32,244
921,62	31,416
921,79	31,137
921,96	32,541
922,13	30,166
922,31	30,288
922,48	30,394
922,65	30,643
922,82	29,162
923,00	31,574
923,17	30,746
923,34	29,664
923,52	28,803
923,69	28,969
923,86	29,737
924,03	28,816
924,21	29,493
924,38	29,350
924,55	30,392
924,72	29,871
924,90	28,825
925,07	29,983
925,24	29,387
925,41	29,789
925,59	30,982
925,76	30,443
925,93	30,791
926,10	30,106
926,28	31,749
926,45	31,558
926,62	31,236
926,79	32,001
926,96	31,455
927,14	32,349
927,31	31,370
927,48	31,799
927,65	33,065
927,83	33,456
928,00	33,486
928,17	32,898
928,34	33,223
928,51	34,146
928,69	35,603
928,86	35,232
929,03	34,761
929,20	35,421
929,37	34,848
929,55	37,348
929,72	36,858
929,89	36,185
930,06	36,900
930,23	36,455
930,41	39,174
930,58	38,748
930,75	38,279
930,92	40,468
931,09	40,326
931,27	40,410
931,44	40,785
931,61	41,061
931,78	42,019
931,95	43,724
932,12	41,464
932,30	43,576
932,47	42,511
932,64	43,375
932,81	43,932
932,98	44,210
933,16	44,355
933,33	44,909
933,50	45,140
933,67	45,397
933,84	46,473
934,01	46,612
934,18	47,277
934,36	47,308
934,53	48,373
934,70	47,695
934,87	48,742
935,04	48,646
935,21	47,873
935,38	48,184
935,56	48,099
935,73	48,970
935,90	49,092
936,07	49,523
936,24	48,915
936,41	48,033
936,58	49,178
936,76	48,952
936,93	49,613
937,10	49,269
937,27	49,718
937,44	50,447
937,61	49,812
937,78	48,506
937,95	49,699
938,13	49,503
938,30	49,749
938,47	48,865
938,64	48,537
938,81	48,893
938,98	49,645
939,15	48,979
939,32	48,748
939,49	49,065
939,66	48,513
939,84	48,885
940,01	49,499
940,18	48,777
940,35	49,065
940,52	48,686
940,69	49,667
940,86	49,283
941,03	48,922
941,20	47,962
941,37	48,300
941,54	48,668
941,71	48,345
941,89	48,476
942,06	49,661
942,23	49,535
942,40	49,321
942,57	49,114
942,74	48,555
942,91	48,799
943,08	49,786
943,25	50,223
943,42	50,000
943,59	49,183
943,76	50,059
943,93	49,336
944,10	49,017
944,27	49,270
944,44	49,704
944,61	50,077
944,79	48,793
944,96	47,580
945,13	49,807
945,30	50,582
945,47	48,919
945,64	50,106
945,81	49,232
945,98	50,671
946,15	49,248
946,32	48,301
946,49	49,223
946,66	49,167
946,83	47,758
947,00	50,424
947,17	49,155
947,34	49,508
947,51	48,475
947,68	49,408
947,85	49,786
948,02	49,046
948,19	50,849
948,36	48,659
948,53	47,080
948,70	46,392
948,87	47,333
949,04	50,124
949,21	46,945
949,38	47,207
949,55	46,272
949,72	44,794
949,89	45,317
950,06	45,118
950,23	44,751
950,40	42,516
950,57	43,715
950,74	45,090
950,91	43,889
951,08	44,610
951,25	43,583
951,42	44,027
951,59	40,891
951,76	40,955
951,93	43,677
952,10	41,609
952,27	40,470
952,44	41,321
952,61	38,131
952,77	40,562
952,94	38,104
953,11	37,371
953,28	42,246
953,45	39,028
953,62	38,805
953,79	40,655
953,96	37,769
954,13	36,624
954,30	37,504
954,47	36,353
954,64	37,134
954,81	35,462
954,98	35,926
955,15	34,161
955,32	35,285
955,49	32,901
955,65	38,181
955,82	32,575
955,99	36,395
956,16	31,896
956,33	32,834
956,50	34,259
956,67	33,657
956,84	33,217
957,01	34,312
957,18	30,722
957,35	32,440
957,52	31,623
957,68	33,315
957,85	32,343
958,02	32,571
958,19	31,808
958,36	33,041
958,53	31,020
958,70	31,683
958,87	31,106
959,04	34,625
959,21	33,270
959,37	31,473
959,54	30,505
959,71	29,552
959,88	31,677
960,05	30,614
960,22	32,445
960,39	33,151
960,56	30,330
960,72	30,300
960,89	31,523
961,06	29,251
961,23	33,275
961,40	36,588
961,57	22,975
961,74	31,151
961,90	33,805
962,07	30,219
962,24	36,373
962,41	27,175
962,58	31,327
962,75	30,178
962,92	25,682
963,08	32,616
963,25	33,531
963,42	30,025
963,59	31,122
963,76	28,920
963,93	25,736
964,10	27,191
964,26	24,032
964,43	28,279
964,60	30,621
964,77	27,259
964,94	35,231
965,10	34,967
965,27	28,041
965,44	32,000
965,61	21,622
965,78	32,865
965,95	29,331
966,11	23,800
966,28	23,736
966,45	32,762
966,62	21,368
966,79	27,642
966,95	26,078
967,12	29,665
967,29	38,551
967,46	27,609
967,63	35,309
967,79	23,098
967,96	17,060
968,13	39,498
968,30	18,852
968,47	28,496
968,63	24,260
968,80	37,241
968,97	27,143
969,14	33,628
969,31	34,295
969,47	38,170
969,64	32,013
969,81	30,526
969,98	31,871
970,14	11,111
970,31	17,563
970,48	34,164
970,65	51,761
970,81	30,952
970,98	45,318
971,15	37,788
971,32	21,186
971,48	27,574
971,65	24,370
971,82	52,041
971,99	58,209
972,15	36,842
972,32	29,630
972,49	15,880
972,66	32,301
972,82	16,337
972,99	51,489
973,16	51,546
973,33	30,476
973,49	35,556
973,66	52,941
973,83	42,857
974,00	54,098
974,16	27,673
974,33	12,195
974,50	52,778
974,67	48,421
974,83	57,627
975,00	38,406
975,17	48,980
975,33	21,739
975,50	46,061
975,67	35,714
975,84	58,865
976,00	58,462
976,17	98,529
976,34	25,532
976,50	65,217
976,67	47,414
976,84	55,128
977,00	41,353
977,17	60,630
977,34	58,065
977,50	17,021
977,67	50,877
977,84	20,000
978,01	48,276
978,17	35,897
978,34	70,833
978,51	48,485
978,67	36,264
978,84	81,250
979,01	1,538
979,17	89,394
979,34	68,750
979,51	26,923
979,67	63,750
979,84	21,429
980,01	104,918
980,17	41,176
980,34	68,116
980,51	106,818
980,67	66,667
980,84	129,310
981,01	0,000
981,17	38,000
981,34	237,500
981,50	72,059
981,67	182,759
981,84	68,966
982,00	6,522
982,17	327,273
982,34	84,615
982,50	173,684
982,67	86,111
982,84	95,238
983,00	90,000
983,17	29,167
983,33	88,710
983,50	52,174
983,67	113,043
983,83	333,333
984,00	209,375
984,17	120,000
984,33	82,432
984,50	68,750
984,66	228,571
984,83	75,581
985,00	144,262
985,16	51,282
985,33	300,000
985,49	248,276
985,66	184,848
985,83	84,211
985,99	55,856
986,16	156,000
986,32	98,551
986,49	416,667
986,66	4,651
986,82	42,105
986,99	73,810
987,15	155,172
987,32	105,556
987,49	27,778
987,65	190,000
987,82	-41,176
987,98	-105,882
988,15	42,857
988,31	86,000
988,48	29,167
988,65	270,370
988,81	89,130
988,98	391,667
989,14	128,571
989,31	116,667
989,47	102,439
989,64	37,143
989,80	-46,667
989,97	126,471
990,14	156,522
990,30	182,500
990,47	124,390
990,63	91,304
990,80	157,576
990,96	304,167
991,13	5,556
991,29	149,020
991,46	178,431
991,62	26,471
991,79	52,632
991,95	120,000
992,12	141,860
992,29	220,000
992,45	-130,769
992,62	-380,000
992,78	59,259
992,95	44,444
993,11	270,000
993,28	46,914
993,44	230,435
993,61	333,333
993,77	220,000
993,94	118,605
994,10	157,143
994,27	240,000
994,43	158,824
994,60	-6,061
994,76	300,000
994,93	195,455
995,09	-35,135
995,26	58,025
995,42	140,678
995,59	71,429
995,75	200,000
995,92	418,182
996,08	108,333
996,25	-88,889
996,41	64,583
996,58	202,703
996,74	-340,000
996,91	366,667
997,07	242,308
997,23	187,234
997,40	933,333
997,56	-46,667
997,73	0,000
997,89	237,037
998,06	-70,588
998,22	-2100,000
998,39	286,957
998,55	-66,667
998,72	340,000
998,88	2000,000
999,05	69,231
999,21	39,130
999,37	-500,000
999,54	-2200,000
999,70	307,692
999,87	-143,750
1000,03	25,000
1000,20	583,333
1000,36	-2800,000
1000,52	161,111
1000,69	-2,273
1000,85	160,345
1001,02	107,692
1001,18	59,091
1001,35	17,778
1001,51	-414,286
1001,67	-18,667
1001,84	0,000
1002,00	162,500
1002,17	-22,727
1002,33	-194,118
1002,50	-11,111
1002,66	1700,000
1002,82	165,714
1002,99	-7,692
1003,15	330,435
1003,32	145,161
1003,48	-240,000
1003,64	-40,000
1003,81	-67,857
1003,97	59,091
1004,14	600,000
1004,30	-142,857
1004,46	575,000
1004,63	268,421
1004,79	-180,000
1004,95	5,882
1005,12	-214,286
1005,28	206,897
1005,45	153,846
1005,61	-1433,333
1005,77	157,895
1005,94	193,548
1006,10	-6100,000
1006,26	94,643
1006,43	400,000
1006,59	48,148
1006,76	-84,000
1006,92	120,000
1007,08	530,000
1007,25	-41,667
1007,41	-333,333
1007,57	-262,500
1007,74	78,261
1007,90	-1240,000
1008,06	114,286
1008,23	153,704
1008,39	1000,000
1008,55	-192,857
1008,72	218,750
1008,88	22,000
1009,04	36,000
1009,21	-70,588
1009,37	-300,000
1009,53	-52,632
1009,70	-61,538
1009,86	-2,273
1010,02	130,769
1010,19	0,000
1010,35	375,000
1010,51	500,000
1010,68	475,000
1010,84	-1300,000
1011,00	35,556
1011,17	40,000
1011,33	117,647
1011,49	87,500
1011,66	208,696
1011,82	-35,849
1011,98	-6,818
1012,14	62,121
1012,31	-920,000
1012,47	900,000
1012,63	222,222
1012,80	200,000
1012,96	-381,818
1013,12	79,070
1013,29	163,158
1013,45	28,889
1013,61	155,556
1013,77	61,111
1013,94	62,500
1014,10	9,091
1014,26	2550,000
1014,43	-39,394
1014,59	-500,000
1014,75	400,000
1014,91	-166,667
1015,08	120,000
1015,24	-500,000
1015,40	-111,765
1015,56	244,444
1015,73	162,222
1015,89	4,762
1016,05	400,000
1016,21	-11,111
1016,38	180,000
1016,54	-276,923
1016,70	-51,852
1016,86	87,879
1017,03	143,590
1017,19	13,043
1017,35	-238,462
1017,51	114,286
1017,68	27,273
1017,84	4000,000
1018,00	300,000
1018,16	120,833
1018,33	-857,143
1018,49	148,780
1018,65	-52,941
1018,81	-30,000
1018,97	-875,000
1019,14	133,333
1019,30	109,375
1019,46	377,778
1019,62	20,000
1019,79	691,667
1019,95	93,750
1020,11	-0,000
1020,27	233,333
1020,43	-642,857
1020,60	5,263
1020,76	22,222
1020,92	407,143
1021,08	3400,000
1021,24	170,000
1021,41	-29,412
1021,57	81,818
1021,73	-1575,000
1021,89	64,286
1022,05	1050,000
1022,21	115,385
1022,38	-200,000
1022,54	2000,000
1022,70	-50,000
1022,86	550,000
1023,02	-147,059
1023,19	-344,444
1023,35	203,226
1023,51	100,000
1023,67	83,333
1023,83	933,333
1023,99	144,444
1024,16	109,524
1024,32	52,000
1024,48	136,364
1024,64	300,000
1024,80	-83,333
1024,96	-31,034
1025,12	-278,571
1025,29	192,857
1025,45	200,000
1025,61	-1366,667
1025,77	19,355
1025,93	10,000
1026,09	14,634
1026,26	5,263
1026,42	-56,250
1026,58	13,043
1026,74	254,167
1026,90	177,778
1027,06	35,897
1027,22	26,087
1027,38	60,870
1027,55	66,667
1027,71	250,000
1027,87	-137,500
1028,03	-75,000
1028,19	-182,353
1028,35	-300,000
1028,51	284,000
1028,67	-61,765
1028,83	215,556
1029,00	212,500
1029,16	113,514
1029,32	192,857
1029,48	100,000
1029,64	-76,923
1029,80	263,636
1029,96	-100,000
1030,12	273,684
1030,28	-100,000
1030,44	1580,000
1030,61	109,091
1030,77	-850,000
1030,93	-187,500
1031,09	1050,000
1031,25	0,000
1031,41	120,000
1031,57	-900,000
1031,73	-1450,000
1031,89	-59,091
1032,05	-90,698
1032,21	-9,091
1032,37	89,286
1032,53	72,414
1032,69	150,000
1032,86	-133,333
1033,02	22,222
1033,18	116,667
1033,34	-3250,000
1033,50	275,000
1033,66	-28,000
1033,82	55,556
1033,98	200,000
1034,14	-171,429
1034,30	-73,333
1034,46	-47,059
1034,62	115,385
1034,78	-86,957
1034,94	138,710
1035,10	-238,462
1035,26	322,222
1035,42	20,000
1035,58	283,333
1035,74	83,784
1035,90	550,000
1036,06	121,569
1036,22	42,424
1036,38	31,250
1036,54	-12,500
1036,70	138,710
1036,86	120,000
1037,02	-250,000
1037,18	41,176
1037,34	344,444
1037,50	-0,000
1037,66	-2000,000
1037,82	271,429
1037,98	112,500
1038,14	-625,000
1038,30	206,897
1038,46	-100,000
1038,62	400,000
1038,78	-271,429
1038,94	290,000
1039,10	24,000
1039,26	25,000
1039,42	171,739
1039,58	-625,000
1039,74	350,000
1039,90	-333,333
1040,06	27,692
>>>>>End Processed Spectral Data<<<<<
