SpectraSuite Data File
++++++++++++++++++++++++++++++++++++
Date: Tue Jan 31 18:55:00 EET 2017
User: optolab
Dark Spectrum Present: Yes
Reference Spectrum Present: Yes
Number of Sampled Component Spectra: 1
Spectrometers: USB4C02475
Integration Time (usec): 100000 (USB4C02475)
Spectra Averaged: 1 (USB4C02475)
Boxcar Smoothing: 0 (USB4C02475)
Correct for Electrical Dark: No (USB4C02475)
Strobe/Lamp Enabled: No (USB4C02475)
Correct for Detector Non-linearity: No (USB4C02475)
Correct for Stray Light: No (USB4C02475)
Number of Pixels in Processed Spectrum: 3648
>>>>>Begin Processed Spectral Data<<<<<
344,91	292,308
345,13	292,308
345,35	292,308
345,57	0,000
345,79	366,667
346,00	200,000
346,22	-38,889
346,44	276,923
346,66	1700,000
346,87	883,333
347,09	11,111
347,31	-1833,333
347,53	-633,333
347,74	-215,385
347,96	209,524
348,18	1766,667
348,40	14,286
348,61	100,000
348,83	75,610
349,05	94,643
349,27	215,789
349,48	138,462
349,70	188,235
349,92	95,122
350,14	255,556
350,35	136,585
350,57	157,143
350,79	235,294
351,01	323,077
351,22	50,000
351,44	-716,667
351,66	223,077
351,87	158,974
352,09	209,091
352,31	493,750
352,53	104,444
352,74	142,857
352,96	83,721
353,18	44,444
353,40	76,087
353,61	118,333
353,83	-200,000
354,05	230,303
354,26	178,571
354,48	-1000,000
354,70	121,951
354,92	103,030
355,13	23,529
355,35	0,000
355,57	77,778
355,78	32,353
356,00	82,353
356,22	222,222
356,44	-400,000
356,65	142,424
356,87	-50,000
357,09	150,000
357,30	100,000
357,52	139,286
357,74	-4100,000
357,95	200,000
358,17	466,667
358,39	261,765
358,60	280,000
358,82	276,471
359,04	-25,000
359,26	70,313
359,47	139,130
359,69	13,514
359,91	192,308
360,12	192,308
360,34	83,495
360,56	27,586
360,77	828,571
360,99	65,385
361,21	229,167
361,42	125,000
361,64	315,385
361,86	145,833
362,07	100,000
362,29	82,353
362,51	103,846
362,72	62,162
362,94	285,714
363,16	365,000
363,37	29,032
363,59	155,172
363,81	-138,889
364,02	52,941
364,24	247,826
364,46	189,189
364,67	66,667
364,89	445,000
365,11	2850,000
365,32	89,157
365,54	307,143
365,76	65,517
365,97	128,571
366,19	1025,000
366,41	219,231
366,62	173,684
366,84	142,105
367,05	96,923
367,27	11,111
367,49	217,073
367,70	612,500
367,92	112,903
368,14	3700,000
368,35	78,873
368,57	174,359
368,79	70,588
369,00	0,000
369,22	191,667
369,43	168,182
369,65	83,582
369,87	71,831
370,08	442,857
370,30	317,647
370,51	70,370
370,73	117,308
370,95	209,524
371,16	516,667
371,38	84,091
371,60	173,077
371,81	32,432
372,03	384,211
372,24	545,455
372,46	121,951
372,68	46,875
372,89	77,143
373,11	38,095
373,32	-40,000
373,54	138,000
373,76	2,128
373,97	51,613
374,19	136,486
374,40	205,556
374,62	-300,000
374,84	132,000
375,05	145,946
375,27	152,830
375,48	104,651
375,70	25,000
375,92	295,833
376,13	108,889
376,35	966,667
376,56	82,667
376,78	-8,333
376,99	20,779
377,21	-2900,000
377,43	64,583
377,64	110,526
377,86	150,000
378,07	183,333
378,29	16,129
378,51	46,154
378,72	80,000
378,94	47,059
379,15	202,857
379,37	108,929
379,58	117,857
379,80	192,308
380,01	575,000
380,23	142,105
380,45	100,000
380,66	83,333
380,88	-650,000
381,09	85,714
381,31	27,536
381,52	180,556
381,74	125,373
381,95	73,171
382,17	111,667
382,39	204,545
382,60	407,692
382,82	114,286
383,03	153,846
383,25	120,513
383,46	70,732
383,68	62,500
383,89	550,000
384,11	77,273
384,32	-87,500
384,54	111,111
384,76	2600,000
384,97	13,580
385,19	58,333
385,40	66,667
385,62	172,222
385,83	70,270
386,05	88,372
386,26	143,243
386,48	116,000
386,69	94,340
386,91	194,118
387,12	304,167
387,34	92,157
387,55	127,273
387,77	142,857
387,98	-571,429
388,20	129,032
388,41	158,974
388,63	139,535
388,84	150,769
389,06	89,744
389,27	114,286
389,49	184,375
389,70	33,333
389,92	82,812
390,13	-134,783
390,35	110,000
390,56	92,424
390,78	145,161
390,99	800,000
391,21	135,714
391,42	132,787
391,64	170,370
391,85	70,000
392,07	92,000
392,28	35,000
392,50	147,368
392,71	48,148
392,93	156,757
393,14	-121,053
393,36	193,750
393,57	160,784
393,79	59,091
394,00	143,636
394,22	120,455
394,43	245,000
394,65	600,000
394,86	113,636
395,08	89,041
395,29	93,023
395,50	193,750
395,72	133,333
395,93	145,833
396,15	145,070
396,36	143,396
396,58	81,481
396,79	96,364
397,01	85,542
397,22	288,889
397,44	-660,000
397,65	55,263
397,87	69,231
398,08	54,000
398,29	118,750
398,51	354,167
398,72	43,000
398,94	47,297
399,15	28,571
399,37	105,128
399,58	203,226
399,80	43,750
400,01	18,841
400,22	77,551
400,44	213,333
400,65	433,333
400,87	26,230
401,08	19,737
401,30	59,000
401,51	118,182
401,72	23,256
401,94	79,032
402,15	50,847
402,37	242,424
402,58	113,333
402,80	73,214
403,01	43,617
403,22	76,667
403,44	91,250
403,65	190,909
403,87	66,667
404,08	32,308
404,30	-134,483
404,51	57,143
404,72	98,780
404,94	112,857
405,15	47,826
405,37	70,833
405,58	106,818
405,79	49,367
406,01	42,991
406,22	31,707
406,44	55,102
406,65	64,384
406,86	27,273
407,08	191,667
407,29	30,337
407,51	82,653
407,72	77,778
407,93	68,456
408,15	60,811
408,36	54,630
408,58	51,220
408,79	56,989
409,00	70,455
409,22	80,220
409,43	70,787
409,64	27,193
409,86	36,170
410,07	40,741
410,29	38,202
410,50	35,616
410,71	25,581
410,93	19,412
411,14	42,187
411,35	18,103
411,57	33,010
411,78	22,275
412,00	35,593
412,21	27,168
412,42	36,765
412,64	43,519
412,85	23,834
413,06	43,415
413,28	22,857
413,49	18,182
413,70	36,101
413,92	19,101
414,13	30,888
414,34	2,740
414,56	9,677
414,77	28,030
414,98	12,239
415,20	22,365
415,41	14,107
415,63	9,756
415,84	20,245
416,05	18,689
416,27	11,594
416,48	12,250
416,69	10,145
416,91	26,220
417,12	9,611
417,33	8,551
417,55	5,727
417,76	9,109
417,97	11,928
418,19	13,937
418,40	9,800
418,61	11,149
418,83	6,272
419,04	6,667
419,25	12,418
419,46	11,950
419,68	12,126
419,89	6,083
420,10	2,010
420,32	4,563
420,53	5,772
420,74	7,429
420,96	8,935
421,17	10,197
421,38	10,318
421,60	8,102
421,81	10,860
422,02	9,495
422,23	11,912
422,45	9,154
422,66	8,814
422,87	16,384
423,09	11,449
423,30	13,902
423,51	17,114
423,73	16,122
423,94	20,737
424,15	20,579
424,36	23,056
424,58	26,861
424,79	25,015
425,00	29,463
425,22	31,186
425,43	28,873
425,64	31,739
425,85	37,863
426,07	33,531
426,28	39,335
426,49	37,560
426,71	36,974
426,92	39,121
427,13	40,166
427,34	41,333
427,56	41,232
427,77	41,284
427,98	39,961
428,19	40,139
428,41	43,791
428,62	42,354
428,83	45,280
429,04	42,047
429,26	45,353
429,47	45,131
429,68	47,007
429,89	44,712
430,11	47,367
430,32	45,544
430,53	47,693
430,74	44,792
430,96	45,168
431,17	46,235
431,38	46,326
431,59	46,101
431,81	45,086
432,02	46,094
432,23	46,738
432,44	48,464
432,66	46,794
432,87	46,838
433,08	47,426
433,29	48,150
433,51	48,953
433,72	47,073
433,93	48,477
434,14	48,100
434,35	47,400
434,57	48,003
434,78	48,053
434,99	50,508
435,20	51,050
435,42	52,098
435,63	52,534
435,84	54,710
436,05	55,924
436,26	59,711
436,48	60,822
436,69	63,289
436,90	67,712
437,11	70,172
437,32	73,731
437,54	74,411
437,75	78,599
437,96	80,053
438,17	83,440
438,38	82,774
438,60	83,519
438,81	83,936
439,02	83,862
439,23	85,481
439,44	86,161
439,66	85,411
439,87	85,975
440,08	85,846
440,29	87,356
440,50	86,586
440,72	89,051
440,93	88,878
441,14	89,220
441,35	88,986
441,56	89,867
441,77	88,729
441,99	88,389
442,20	88,657
442,41	87,492
442,62	85,821
442,83	84,748
443,04	84,969
443,26	84,087
443,47	81,790
443,68	81,491
443,89	80,310
444,10	79,445
444,31	79,399
444,53	78,685
444,74	78,326
444,95	77,929
445,16	79,057
445,37	79,405
445,58	80,555
445,80	80,083
446,01	80,965
446,22	82,831
446,43	83,262
446,64	83,101
446,85	84,336
447,06	84,297
447,28	87,288
447,49	85,211
447,70	87,057
447,91	88,791
448,12	88,254
448,33	89,186
448,54	89,806
448,76	92,527
448,97	92,871
449,18	93,651
449,39	94,721
449,60	94,504
449,81	95,959
450,02	95,820
450,23	95,607
450,45	96,830
450,66	97,124
450,87	95,394
451,08	95,950
451,29	96,557
451,50	96,941
451,71	96,514
451,92	95,441
452,13	95,736
452,35	94,692
452,56	92,963
452,77	91,939
452,98	92,092
453,19	91,924
453,40	91,493
453,61	90,650
453,82	90,069
454,03	90,947
454,25	89,401
454,46	88,904
454,67	91,209
454,88	91,357
455,09	91,540
455,30	90,553
455,51	91,089
455,72	90,985
455,93	90,270
456,14	90,030
456,35	88,365
456,56	89,024
456,78	88,859
456,99	88,463
457,20	85,848
457,41	86,567
457,62	84,078
457,83	82,620
458,04	83,577
458,25	82,744
458,46	84,421
458,67	82,906
458,88	83,942
459,09	82,282
459,30	84,020
459,51	84,441
459,73	84,455
459,94	86,517
460,15	86,434
460,36	86,427
460,57	87,574
460,78	87,144
460,99	88,455
461,20	88,076
461,41	88,428
461,62	88,699
461,83	89,009
462,04	89,496
462,25	88,704
462,46	88,830
462,67	89,346
462,88	88,827
463,09	88,455
463,30	87,670
463,51	87,793
463,72	87,468
463,93	87,706
464,15	86,986
464,36	86,370
464,57	85,849
464,78	85,215
464,99	84,084
465,20	84,007
465,41	83,321
465,62	82,636
465,83	81,852
466,04	81,461
466,25	80,287
466,46	79,318
466,67	78,037
466,88	78,547
467,09	78,373
467,30	77,891
467,51	77,246
467,72	75,451
467,93	74,811
468,14	74,243
468,35	72,557
468,56	71,222
468,77	69,605
468,98	67,446
469,19	66,332
469,40	64,374
469,61	61,918
469,82	58,703
470,03	56,586
470,24	53,522
470,45	50,493
470,66	47,113
470,87	44,393
471,08	41,475
471,29	37,640
471,50	34,396
471,71	31,171
471,92	28,644
472,13	25,837
472,34	22,632
472,55	20,443
472,76	17,954
472,97	15,932
473,18	14,212
473,39	11,911
473,60	10,441
473,81	8,969
474,01	7,364
474,22	6,097
474,43	5,098
474,64	4,280
474,85	3,391
475,06	3,017
475,27	2,378
475,48	2,141
475,69	1,835
475,90	1,513
476,11	1,402
476,32	1,066
476,53	1,104
476,74	0,901
476,95	0,515
477,16	0,781
477,37	0,684
477,58	0,683
477,79	0,364
478,00	0,592
478,21	0,690
478,41	0,337
478,62	0,427
478,83	0,339
479,04	0,293
479,25	0,252
479,46	0,586
479,67	0,418
479,88	0,454
480,09	0,375
480,30	0,309
480,51	0,460
480,72	0,343
480,93	0,167
481,14	0,440
481,34	0,488
481,55	0,445
481,76	0,359
481,97	0,371
482,18	0,416
482,39	0,136
482,60	0,371
482,81	0,515
483,02	0,649
483,23	0,397
483,44	0,153
483,65	0,336
483,85	0,415
484,06	0,304
484,27	0,256
484,48	0,196
484,69	0,281
484,90	0,193
485,11	0,181
485,32	0,095
485,53	0,369
485,73	0,225
485,94	0,102
486,15	0,334
486,36	0,247
486,57	0,307
486,78	0,237
486,99	0,249
487,20	0,558
487,41	0,356
487,61	0,197
487,82	0,020
488,03	0,207
488,24	0,206
488,45	0,230
488,66	0,317
488,87	0,296
489,08	0,166
489,28	0,330
489,49	0,379
489,70	0,363
489,91	0,254
490,12	0,223
490,33	0,288
490,54	0,165
490,74	0,307
490,95	0,214
491,16	0,418
491,37	0,313
491,58	0,123
491,79	0,181
492,00	0,097
492,20	0,366
492,41	0,456
492,62	0,302
492,83	0,361
493,04	0,273
493,25	0,069
493,45	0,378
493,66	0,256
493,87	0,396
494,08	0,326
494,29	0,353
494,50	0,290
494,70	0,164
494,91	0,290
495,12	0,208
495,33	0,412
495,54	0,271
495,75	0,240
495,95	0,159
496,16	0,317
496,37	0,311
496,58	0,342
496,79	0,191
496,99	0,390
497,20	0,168
497,41	0,310
497,62	0,225
497,83	0,292
498,04	0,237
498,24	0,338
498,45	0,182
498,66	0,223
498,87	0,411
499,08	0,131
499,28	0,182
499,49	0,504
499,70	0,307
499,91	0,182
500,12	0,245
500,32	0,305
500,53	0,265
500,74	0,256
500,95	0,346
501,15	0,376
501,36	0,339
501,57	0,209
501,78	0,443
501,99	0,262
502,19	0,327
502,40	0,244
502,61	0,122
502,82	0,398
503,02	0,184
503,23	0,309
503,44	0,148
503,65	0,350
503,86	0,303
504,06	0,347
504,27	0,469
504,48	0,276
504,69	0,302
504,89	0,303
505,10	0,375
505,31	0,225
505,52	0,294
505,72	0,433
505,93	0,307
506,14	0,321
506,35	0,372
506,55	0,291
506,76	0,217
506,97	0,501
507,18	0,311
507,38	0,389
507,59	0,361
507,80	0,453
508,01	0,170
508,21	0,420
508,42	0,432
508,63	0,494
508,84	0,396
509,04	0,364
509,25	0,329
509,46	0,337
509,67	0,329
509,87	0,229
510,08	0,352
510,29	0,432
510,49	0,337
510,70	0,442
510,91	0,307
511,12	0,488
511,32	0,433
511,53	0,544
511,74	0,597
511,94	0,663
512,15	0,692
512,36	0,790
512,57	0,934
512,77	0,936
512,98	1,039
513,19	1,232
513,39	1,469
513,60	1,657
513,81	2,066
514,01	2,035
514,22	2,386
514,43	2,846
514,64	3,397
514,84	3,884
515,05	4,312
515,26	5,149
515,46	5,995
515,67	6,597
515,88	7,202
516,08	8,481
516,29	9,403
516,50	10,524
516,70	11,821
516,91	13,420
517,12	14,351
517,32	15,748
517,53	17,456
517,74	18,442
517,95	19,803
518,15	21,393
518,36	22,418
518,57	24,296
518,77	25,648
518,98	27,346
519,19	28,885
519,39	30,258
519,60	31,543
519,80	32,937
520,01	34,426
520,22	34,876
520,42	36,475
520,63	37,603
520,84	38,660
521,04	39,532
521,25	40,322
521,46	40,930
521,66	42,045
521,87	42,655
522,08	43,209
522,28	44,201
522,49	43,803
522,70	45,076
522,90	45,726
523,11	46,632
523,31	46,450
523,52	47,081
523,73	47,008
523,93	48,621
524,14	48,464
524,35	48,424
524,55	48,695
524,76	48,631
524,97	48,672
525,17	49,202
525,38	48,529
525,58	49,454
525,79	49,786
526,00	50,191
526,20	50,082
526,41	49,700
526,61	51,145
526,82	51,371
527,03	51,389
527,23	52,617
527,44	54,163
527,64	54,842
527,85	55,848
528,06	57,806
528,26	59,827
528,47	61,117
528,68	64,253
528,88	65,627
529,09	67,867
529,29	71,258
529,50	71,842
529,70	74,583
529,91	75,837
530,12	78,239
530,32	80,442
530,53	82,116
530,73	84,926
530,94	86,526
531,15	88,058
531,35	88,901
531,56	90,474
531,76	90,569
531,97	92,758
532,17	92,872
532,38	94,322
532,59	93,753
532,79	94,817
533,00	95,137
533,20	95,237
533,41	96,090
533,61	95,053
533,82	95,029
534,03	94,966
534,23	94,816
534,44	94,491
534,64	94,998
534,85	94,609
535,05	95,588
535,26	95,054
535,46	94,696
535,67	95,133
535,88	96,513
536,08	95,526
536,29	95,431
536,49	95,112
536,70	96,306
536,90	95,678
537,11	96,341
537,31	96,160
537,52	95,806
537,72	95,882
537,93	95,021
538,13	94,736
538,34	94,579
538,55	94,493
538,75	94,847
538,96	94,397
539,16	93,146
539,37	93,614
539,57	93,288
539,78	93,441
539,98	92,850
540,19	93,475
540,39	93,207
540,60	92,717
540,80	92,856
541,01	92,066
541,21	92,824
541,42	92,614
541,62	92,283
541,83	92,928
542,03	93,606
542,24	93,440
542,44	92,787
542,65	93,893
542,85	94,865
543,06	94,424
543,26	95,684
543,47	96,130
543,67	95,462
543,88	95,323
544,08	98,346
544,29	96,009
544,49	96,671
544,70	96,596
544,90	96,416
545,11	96,111
545,31	97,553
545,52	97,148
545,72	96,229
545,93	98,065
546,13	97,500
546,34	97,531
546,54	96,568
546,75	96,564
546,95	98,049
547,15	97,747
547,36	98,256
547,56	98,986
547,77	97,776
547,97	99,134
548,18	98,667
548,38	98,437
548,59	98,237
548,79	98,158
549,00	98,792
549,20	98,522
549,41	98,785
549,61	98,418
549,81	99,324
550,02	98,411
550,22	99,549
550,43	99,034
550,63	98,303
550,84	99,515
551,04	98,662
551,25	98,951
551,45	98,001
551,65	98,800
551,86	98,865
552,06	98,777
552,27	98,778
552,47	98,565
552,68	98,523
552,88	98,557
553,08	98,744
553,29	98,936
553,49	98,850
553,70	98,450
553,90	98,573
554,11	99,817
554,31	98,933
554,51	99,101
554,72	100,012
554,92	99,177
555,13	99,899
555,33	99,391
555,53	98,530
555,74	99,658
555,94	99,502
556,15	98,776
556,35	99,202
556,56	99,048
556,76	99,323
556,96	99,719
557,17	98,076
557,37	99,508
557,58	98,332
557,78	97,996
557,98	98,207
558,19	97,352
558,39	98,911
558,59	98,011
558,80	98,422
559,00	98,296
559,21	97,413
559,41	96,925
559,61	97,901
559,82	98,501
560,02	98,236
560,23	97,709
560,43	96,415
560,63	96,510
560,84	97,039
561,04	97,328
561,24	96,445
561,45	97,649
561,65	96,935
561,85	96,580
562,06	96,563
562,26	95,981
562,47	96,504
562,67	96,555
562,87	97,439
563,08	96,744
563,28	96,674
563,48	95,844
563,69	96,269
563,89	96,343
564,09	96,676
564,30	96,552
564,50	96,293
564,70	95,408
564,91	94,977
565,11	94,956
565,31	95,175
565,52	93,560
565,72	95,152
565,92	93,844
566,13	94,326
566,33	92,920
566,53	94,086
566,74	94,124
566,94	94,196
567,14	92,997
567,35	92,239
567,55	92,939
567,75	91,815
567,96	92,107
568,16	91,776
568,36	90,983
568,57	90,180
568,77	89,491
568,97	89,358
569,18	88,061
569,38	86,988
569,58	85,653
569,79	84,943
569,99	84,638
570,19	82,327
570,39	80,019
570,60	77,587
570,80	75,910
571,00	73,835
571,21	72,225
571,41	68,840
571,61	66,630
571,82	63,887
572,02	60,301
572,22	56,733
572,42	53,868
572,63	49,824
572,83	46,664
573,03	43,336
573,24	39,467
573,44	35,687
573,64	32,269
573,84	29,222
574,05	26,286
574,25	23,937
574,45	21,607
574,66	19,187
574,86	17,273
575,06	15,569
575,26	14,021
575,47	12,413
575,67	11,143
575,87	10,246
576,07	8,718
576,28	8,196
576,48	7,048
576,68	6,327
576,88	5,399
577,09	4,820
577,29	3,901
577,49	3,453
577,69	3,329
577,90	2,583
578,10	2,109
578,30	1,847
578,50	1,582
578,71	1,420
578,91	1,243
579,11	0,922
579,31	0,767
579,52	0,699
579,72	0,626
579,92	0,624
580,12	0,689
580,33	0,685
580,53	0,363
580,73	0,529
580,93	0,541
581,13	0,407
581,34	0,431
581,54	0,283
581,74	0,398
581,94	0,396
582,15	0,300
582,35	0,434
582,55	0,152
582,75	0,265
582,95	0,345
583,16	0,069
583,36	0,383
583,56	0,408
583,76	0,252
583,96	0,243
584,17	0,340
584,37	0,163
584,57	0,278
584,77	0,354
584,97	0,112
585,18	0,309
585,38	0,149
585,58	0,221
585,78	0,256
585,98	0,327
586,19	0,203
586,39	0,336
586,59	0,327
586,79	0,422
586,99	0,105
587,20	0,184
587,40	0,196
587,60	0,286
587,80	0,226
588,00	0,305
588,20	0,367
588,41	0,375
588,61	0,143
588,81	0,258
589,01	0,323
589,21	0,255
589,41	0,228
589,62	0,148
589,82	0,293
590,02	0,286
590,22	0,230
590,42	0,417
590,62	0,312
590,83	0,275
591,03	0,278
591,23	0,409
591,43	0,239
591,63	0,101
591,83	0,304
592,03	0,232
592,24	0,054
592,44	0,215
592,64	0,267
592,84	0,307
593,04	0,306
593,24	0,302
593,44	0,028
593,65	0,364
593,85	0,290
594,05	0,136
594,25	0,130
594,45	0,368
594,65	0,295
594,85	0,178
595,06	0,244
595,26	0,182
595,46	0,179
595,66	0,053
595,86	0,275
596,06	0,288
596,26	0,356
596,46	0,211
596,66	0,257
596,87	0,234
597,07	0,196
597,27	0,245
597,47	0,308
597,67	0,250
597,87	0,453
598,07	0,218
598,27	0,314
598,47	0,202
598,67	0,188
598,88	0,153
599,08	0,142
599,28	0,368
599,48	0,223
599,68	0,368
599,88	0,298
600,08	0,260
600,28	0,277
600,48	0,229
600,68	0,388
600,88	0,322
601,09	0,356
601,29	0,347
601,49	0,250
601,69	0,090
601,89	0,287
602,09	0,190
602,29	0,345
602,49	0,337
602,69	0,377
602,89	0,441
603,09	0,529
603,29	0,399
603,49	0,442
603,69	0,623
603,90	0,540
604,10	0,738
604,30	0,592
604,50	0,886
604,70	0,889
604,90	1,117
605,10	1,210
605,30	1,765
605,50	1,738
605,70	2,196
605,90	2,504
606,10	2,935
606,30	3,272
606,50	3,659
606,70	4,352
606,90	4,874
607,10	5,413
607,30	6,217
607,50	7,330
607,70	8,090
607,90	8,820
608,10	9,923
608,30	10,730
608,50	11,801
608,70	12,850
608,90	13,795
609,11	15,379
609,31	15,970
609,51	17,506
609,71	19,010
609,91	19,642
610,11	20,702
610,31	21,913
610,51	23,086
610,71	24,278
610,91	25,889
611,11	26,176
611,31	26,649
611,51	28,465
611,71	28,862
611,91	29,777
612,11	30,718
612,31	31,346
612,51	31,932
612,71	32,604
612,91	33,087
613,11	34,366
613,31	34,411
613,51	34,579
613,71	34,962
613,91	36,576
614,11	37,354
614,31	37,992
614,50	38,429
614,70	39,099
614,90	39,627
615,10	39,848
615,30	40,959
615,50	41,083
615,70	41,708
615,90	41,721
616,10	41,990
616,30	43,190
616,50	42,823
616,70	43,088
616,90	43,873
617,10	44,412
617,30	44,363
617,50	44,350
617,70	45,075
617,90	44,961
618,10	45,649
618,30	45,469
618,50	45,404
618,70	46,037
618,90	46,531
619,10	46,573
619,30	47,352
619,49	47,619
619,69	48,014
619,89	48,391
620,09	48,724
620,29	50,320
620,49	50,588
620,69	52,069
620,89	53,103
621,09	55,081
621,29	56,136
621,49	57,219
621,69	59,712
621,89	61,214
622,09	62,264
622,29	64,437
622,48	66,554
622,68	69,241
622,88	71,520
623,08	73,356
623,28	74,934
623,48	76,530
623,68	78,153
623,88	80,000
624,08	80,752
624,28	82,317
624,48	84,290
624,67	83,867
624,87	85,316
625,07	84,906
625,27	86,256
625,47	87,100
625,67	87,421
625,87	87,997
626,07	87,836
626,27	88,271
626,47	89,002
626,66	88,885
626,86	89,914
627,06	89,592
627,26	90,030
627,46	90,270
627,66	89,458
627,86	90,279
628,06	89,161
628,25	91,029
628,45	90,280
628,65	89,914
628,85	90,967
629,05	90,435
629,25	90,836
629,45	89,306
629,65	89,461
629,84	88,977
630,04	90,382
630,24	89,134
630,44	89,630
630,64	89,709
630,84	89,843
631,04	89,948
631,23	90,967
631,43	89,761
631,63	90,172
631,83	91,405
632,03	91,211
632,23	90,893
632,42	91,762
632,62	91,032
632,82	91,345
633,02	91,188
633,22	91,412
633,42	91,306
633,62	92,644
633,81	91,813
634,01	91,442
634,21	92,139
634,41	92,552
634,61	91,950
634,80	92,458
635,00	92,434
635,20	92,617
635,40	92,583
635,60	92,691
635,80	94,248
635,99	92,374
636,19	91,773
636,39	93,266
636,59	92,591
636,79	91,893
636,98	91,278
637,18	91,442
637,38	91,648
637,58	91,800
637,78	91,574
637,97	91,094
638,17	92,278
638,37	91,502
638,57	92,590
638,77	92,443
638,96	91,098
639,16	91,837
639,36	91,324
639,56	91,173
639,76	91,725
639,95	91,276
640,15	92,489
640,35	91,869
640,55	92,876
640,75	91,948
640,94	92,072
641,14	92,458
641,34	92,235
641,54	92,135
641,73	91,726
641,93	92,754
642,13	91,649
642,33	92,070
642,53	91,807
642,72	90,773
642,92	92,699
643,12	91,627
643,32	92,547
643,51	92,171
643,71	92,114
643,91	91,812
644,11	93,265
644,30	94,797
644,50	92,069
644,70	93,954
644,90	92,580
645,09	92,881
645,29	93,960
645,49	93,356
645,69	94,131
645,88	94,058
646,08	93,534
646,28	93,862
646,48	93,288
646,67	95,724
646,87	95,247
647,07	93,504
647,26	94,703
647,46	94,911
647,66	94,986
647,86	94,318
648,05	91,868
648,25	94,957
648,45	93,015
648,65	93,145
648,84	94,294
649,04	91,104
649,24	93,648
649,43	92,854
649,63	93,593
649,83	92,743
650,03	93,800
650,22	93,258
650,42	92,775
650,62	92,578
650,81	93,147
651,01	93,419
651,21	94,204
651,40	92,877
651,60	93,342
651,80	94,268
652,00	93,088
652,19	93,260
652,39	93,986
652,59	93,034
652,78	92,684
652,98	93,454
653,18	93,593
653,37	93,041
653,57	94,334
653,77	93,314
653,96	93,491
654,16	93,451
654,36	94,381
654,55	94,217
654,75	93,845
654,95	94,219
655,14	92,767
655,34	93,377
655,54	92,759
655,73	92,464
655,93	94,643
656,13	93,338
656,32	92,754
656,52	92,864
656,72	94,204
656,91	90,963
657,11	90,631
657,31	89,631
657,50	90,520
657,70	88,593
657,90	87,177
658,09	87,969
658,29	85,227
658,49	84,125
658,68	81,937
658,88	81,947
659,07	79,583
659,27	76,623
659,47	76,830
659,66	74,204
659,86	72,239
660,06	69,977
660,25	67,972
660,45	66,516
660,64	65,440
660,84	63,489
661,04	61,352
661,23	58,273
661,43	57,504
661,63	55,806
661,82	52,980
662,02	50,441
662,21	48,363
662,41	47,148
662,61	44,421
662,80	42,518
663,00	40,598
663,19	38,488
663,39	36,514
663,59	34,473
663,78	32,706
663,98	29,566
664,17	27,694
664,37	25,900
664,57	23,195
664,76	22,349
664,96	20,267
665,15	18,683
665,35	16,634
665,55	15,080
665,74	13,480
665,94	12,042
666,13	11,310
666,33	9,995
666,53	8,697
666,72	7,895
666,92	7,330
667,11	6,524
667,31	5,839
667,50	5,078
667,70	4,615
667,90	4,237
668,09	3,040
668,29	3,297
668,48	2,658
668,68	2,554
668,87	2,249
669,07	1,890
669,26	1,986
669,46	1,565
669,66	1,588
669,85	1,225
670,05	1,006
670,24	1,094
670,44	1,502
670,63	1,078
670,83	0,807
671,02	0,753
671,22	0,808
671,42	0,788
671,61	0,194
671,81	0,497
672,00	0,203
672,20	0,512
672,39	0,331
672,59	0,290
672,78	0,430
672,98	0,035
673,17	0,556
673,37	0,553
673,56	0,465
673,76	0,458
673,95	0,349
674,15	0,313
674,34	0,404
674,54	0,268
674,73	0,052
674,93	0,419
675,13	0,077
675,32	0,405
675,52	0,184
675,71	0,107
675,91	0,332
676,10	0,137
676,30	0,193
676,49	0,339
676,69	0,245
676,88	0,177
677,08	0,126
677,27	0,054
677,47	0,326
677,66	0,511
677,86	0,422
678,05	0,181
678,24	-0,006
678,44	-0,161
678,63	-0,222
678,83	0,258
679,02	0,198
679,22	0,163
679,41	0,177
679,61	0,192
679,80	0,224
680,00	0,244
680,19	-0,119
680,39	0,122
680,58	0,048
680,78	0,101
680,97	0,047
681,17	0,067
681,36	0,130
681,56	0,117
681,75	0,146
681,94	0,090
682,14	0,095
682,33	0,138
682,53	0,263
682,72	0,214
682,92	0,087
683,11	-0,005
683,31	0,190
683,50	0,137
683,69	0,019
683,89	-0,037
684,08	-0,177
684,28	0,182
684,47	-0,059
684,67	0,086
684,86	-0,027
685,06	0,093
685,25	-0,136
685,44	0,039
685,64	0,099
685,83	0,013
686,03	0,219
686,22	0,132
686,42	-0,151
686,61	-0,075
686,80	0,183
687,00	0,214
687,19	0,074
687,39	-0,025
687,58	-0,122
687,77	0,008
687,97	0,124
688,16	-0,167
688,36	0,040
688,55	-0,079
688,74	0,031
688,94	0,136
689,13	-0,042
689,33	0,008
689,52	-0,091
689,71	-0,049
689,91	-0,071
690,10	0,227
690,30	0,037
690,49	0,088
690,68	0,000
690,88	0,062
691,07	0,022
691,27	0,137
691,46	0,141
691,65	0,209
691,85	-0,072
692,04	-0,090
692,23	-0,072
692,43	0,083
692,62	0,173
692,82	0,033
693,01	0,004
693,20	-0,065
693,40	0,088
693,59	-0,106
693,78	-0,166
693,98	-0,030
694,17	0,109
694,36	0,041
694,56	-0,027
694,75	0,055
694,94	-0,012
695,14	0,136
695,33	0,008
695,53	-0,291
695,72	-0,017
695,91	0,131
696,11	-0,047
696,30	-0,048
696,49	0,089
696,69	0,014
696,88	0,366
697,07	0,174
697,27	0,203
697,46	-0,076
697,65	-0,145
697,85	0,032
698,04	0,146
698,23	-0,283
698,43	0,183
698,62	-0,065
698,81	0,344
699,01	0,038
699,20	-0,026
699,39	0,020
699,58	-0,096
699,78	0,213
699,97	-0,110
700,16	0,038
700,36	0,095
700,55	0,233
700,74	0,100
700,94	0,342
701,13	0,088
701,32	0,316
701,52	0,476
701,71	0,124
701,90	-0,059
702,09	0,287
702,29	0,219
702,48	0,171
702,67	0,514
702,87	-0,255
703,06	0,315
703,25	0,122
703,44	0,086
703,64	0,762
703,83	0,507
704,02	0,055
704,22	0,113
704,41	0,478
704,60	0,621
704,79	-0,167
704,99	0,310
705,18	0,272
705,37	0,243
705,56	-0,136
705,76	0,598
705,95	0,719
706,14	-0,018
706,33	0,630
706,53	0,473
706,72	0,723
706,91	0,392
707,11	-0,100
707,30	1,311
707,49	1,698
707,68	1,271
707,88	-0,865
708,07	-0,116
708,26	0,610
708,45	0,598
708,64	0,951
708,84	0,927
709,03	1,321
709,22	1,003
709,41	2,534
709,61	0,279
709,80	0,671
709,99	0,257
710,18	-0,416
710,38	1,864
710,57	1,494
710,76	1,675
710,95	0,191
711,14	1,426
711,34	-0,372
711,53	0,706
711,72	0,340
711,91	0,994
712,11	1,104
712,30	1,151
712,49	-0,148
712,68	0,386
712,87	0,586
713,07	1,494
713,26	0,040
713,45	0,824
713,64	1,147
713,83	0,748
714,03	1,289
714,22	-0,523
714,41	1,072
714,60	1,122
714,79	-0,628
714,99	2,325
715,18	1,082
715,37	0,920
715,56	1,048
715,75	0,804
715,94	0,509
716,14	-1,491
716,33	0,621
716,52	1,768
716,71	0,054
716,90	-0,791
717,10	1,637
717,29	2,410
717,48	2,948
717,67	-2,710
717,86	-0,744
718,05	1,325
718,24	0,463
718,44	3,054
718,63	2,673
718,82	0,879
719,01	1,844
719,20	0,300
719,39	2,451
719,59	0,823
719,78	-1,999
719,97	4,135
720,16	3,011
720,35	3,390
720,54	3,091
720,73	2,233
720,93	2,228
721,12	-1,513
721,31	2,187
721,50	1,918
721,69	2,243
721,88	1,023
722,07	0,758
722,27	1,324
722,46	-4,384
722,65	1,670
722,84	0,631
723,03	2,271
723,22	-0,488
723,41	3,710
723,60	-0,084
723,79	5,505
723,99	5,032
724,18	-0,088
724,37	1,064
724,56	2,267
724,75	-0,268
724,94	2,491
725,13	3,710
725,32	4,328
725,51	1,344
725,71	1,713
725,90	4,388
726,09	2,852
726,28	2,825
726,47	0,643
726,66	-1,753
726,85	-0,097
727,04	3,910
727,23	2,832
727,42	0,996
727,61	2,079
727,81	3,684
728,00	0,000
728,19	-0,423
728,38	-0,214
728,57	3,118
728,76	5,139
728,95	-0,437
729,14	-0,965
729,33	1,550
729,52	4,098
729,71	0,233
729,90	-1,048
730,09	2,367
730,28	4,846
730,48	1,574
730,67	2,588
730,86	4,729
731,05	-3,681
731,24	2,709
731,43	0,357
731,62	4,938
731,81	6,865
732,00	1,743
732,19	1,378
732,38	0,485
732,57	-1,382
732,76	-3,134
732,95	3,466
733,14	5,913
733,33	-4,722
733,52	1,626
733,71	9,840
733,90	-0,277
734,09	4,806
734,28	10,367
734,47	-4,265
734,66	1,403
734,85	2,398
735,04	3,300
735,23	4,986
735,42	0,709
735,61	-0,277
735,81	8,665
736,00	-4,662
736,19	4,948
736,38	3,759
736,57	3,165
736,76	7,364
736,95	5,742
737,14	9,509
737,33	5,140
737,52	1,672
737,71	6,707
737,90	-0,319
738,09	1,897
738,28	2,597
738,47	2,251
738,66	0,000
738,85	-3,937
739,04	3,543
739,22	-1,715
739,41	-1,571
739,60	4,129
739,79	4,440
739,98	11,299
740,17	6,757
740,36	4,545
740,55	8,015
740,74	-1,859
740,93	8,263
741,12	4,844
741,31	-13,497
741,50	5,575
741,69	3,697
741,88	10,158
742,07	10,424
742,26	0,382
742,45	6,884
742,64	2,653
742,83	-4,835
743,02	1,205
743,21	-2,032
743,40	4,215
743,59	8,251
743,78	0,211
743,97	10,816
744,16	-4,310
744,34	2,893
744,53	1,293
744,72	11,040
744,91	4,517
745,10	0,690
745,29	6,338
745,48	0,000
745,67	-0,222
745,86	5,809
746,05	8,277
746,24	1,724
746,43	2,494
746,62	10,454
746,81	4,976
747,00	15,000
747,18	7,955
747,37	3,636
747,56	5,950
747,75	3,836
747,94	6,566
748,13	10,047
748,32	9,756
748,51	7,494
748,70	7,674
748,89	5,914
749,08	15,025
749,26	6,133
749,45	9,836
749,64	4,393
749,83	6,880
750,02	4,290
750,21	9,115
750,40	-4,485
750,59	5,319
750,78	6,747
750,96	13,466
751,15	4,826
751,34	18,182
751,53	10,556
751,72	8,579
751,91	-1,837
752,10	13,803
752,29	0,290
752,47	10,057
752,66	-1,775
752,85	13,228
753,04	10,541
753,23	5,751
753,42	12,219
753,61	0,000
753,80	9,610
753,98	15,625
754,17	7,365
754,36	-1,961
754,55	10,098
754,74	18,649
754,93	0,323
755,12	14,154
755,30	-8,118
755,49	13,196
755,68	10,959
755,87	2,389
756,06	6,916
756,25	-4,620
756,43	10,432
756,62	4,693
756,81	-1,961
757,00	21,978
757,19	14,417
757,38	4,560
757,56	9,459
757,75	-9,160
757,94	9,052
758,13	18,153
758,32	0,000
758,51	6,129
758,69	7,372
758,88	8,852
759,07	17,082
759,26	-0,340
759,45	16,786
759,63	-12,253
759,82	5,109
760,01	-1,736
760,20	2,920
760,39	0,383
760,57	-17,597
760,76	5,344
760,95	5,364
761,14	-3,077
761,33	15,625
761,51	16,667
761,70	31,724
761,89	13,566
762,08	16,810
762,27	7,212
762,45	11,321
762,64	11,504
762,83	28,625
763,02	19,031
763,21	4,930
763,39	22,172
763,58	14,286
763,77	6,383
763,96	2,339
764,14	-13,278
764,33	20,301
764,52	-3,125
764,71	-9,360
764,89	16,892
765,08	12,734
765,27	7,426
765,46	-2,727
765,65	17,259
765,83	0,000
766,02	27,106
766,21	15,612
766,40	28,372
766,58	13,122
766,77	-5,650
766,96	1,538
767,15	21,256
767,33	3,365
767,52	-3,318
767,71	0,000
767,90	16,667
768,08	3,863
768,27	19,535
768,46	-3,333
768,64	8,252
768,83	17,297
769,02	21,429
769,21	14,062
769,39	-10,738
769,58	24,000
769,77	11,413
769,96	-1,325
770,14	17,939
770,33	-5,348
770,52	-3,205
770,70	-6,436
770,89	16,327
771,08	16,667
771,27	4,124
771,45	19,653
771,64	36,842
771,83	-5,376
772,01	3,817
772,20	22,727
772,39	-3,185
772,57	9,896
772,76	40,000
772,95	-18,274
773,14	17,442
773,32	3,297
773,51	19,070
773,70	-13,245
773,88	22,613
774,07	30,962
774,26	26,220
774,44	48,744
774,63	26,582
774,82	46,386
775,00	31,004
775,19	13,793
775,38	14,000
775,56	1,829
775,75	6,587
775,94	-23,881
776,12	16,667
776,31	26,347
776,50	18,788
776,68	11,728
776,87	-11,189
777,06	-10,274
777,24	-32,787
777,43	26,829
777,62	27,407
777,80	11,413
777,99	-0,637
778,18	8,280
778,36	-5,344
778,55	8,889
778,74	2,273
778,92	25,792
779,11	48,387
779,29	5,229
779,48	-24,793
779,67	14,388
779,85	25,600
780,04	37,324
780,23	-2,797
780,41	14,706
780,60	-6,433
780,79	30,556
780,97	27,143
781,16	-5,600
781,34	24,242
781,53	37,821
781,72	44,444
781,90	2,885
782,09	-16,393
782,28	21,951
782,46	4,065
782,65	35,664
782,83	13,740
783,02	39,200
783,21	10,853
783,39	16,026
783,58	39,333
783,76	-2,703
783,95	34,437
784,14	-5,263
784,32	-11,927
784,51	-35,955
784,69	-4,459
784,88	41,935
785,06	21,277
785,25	15,038
785,44	41,892
785,62	36,429
785,81	-8,209
785,99	-4,762
786,18	26,230
786,37	27,586
786,55	2,239
786,74	48,447
786,92	18,023
787,11	19,200
787,29	16,471
787,48	18,000
787,67	-33,673
787,85	-4,688
788,04	8,219
788,22	4,630
788,41	55,263
788,59	30,612
788,78	13,889
788,96	36,190
789,15	47,541
789,34	15,854
789,52	20,896
789,71	-28,571
789,89	44,737
790,08	15,686
790,26	50,794
790,45	32,847
790,63	-3,289
790,82	-25,000
791,00	6,349
791,19	31,429
791,38	18,493
791,56	-10,526
791,75	-18,919
791,93	0,000
792,12	25,000
792,30	20,395
792,49	42,991
792,67	27,857
792,86	0,000
793,04	12,698
793,23	50,000
793,41	19,355
793,60	30,380
793,78	53,691
793,97	37,069
794,15	29,412
794,34	35,714
794,52	20,930
794,71	35,185
794,89	0,000
795,08	23,718
795,26	9,000
795,45	34,043
795,63	11,321
795,82	37,815
796,00	-16,923
796,19	50,649
796,37	18,644
796,56	55,556
796,74	44,531
796,93	2,521
797,11	5,833
797,30	25,954
797,48	11,189
797,67	37,903
797,85	54,348
798,04	36,036
798,22	45,324
798,41	52,542
798,59	2,857
798,77	23,932
798,96	20,968
799,14	43,519
799,33	15,929
799,51	11,881
799,70	5,495
799,88	44,954
800,07	37,410
800,25	15,267
800,44	-13,861
800,62	25,180
800,80	6,818
800,99	51,282
801,17	40,000
801,36	44,792
801,54	33,333
801,73	15,152
801,91	35,955
802,10	14,118
802,28	28,346
802,46	17,742
802,65	38,411
802,83	0,826
803,02	60,714
803,20	51,695
803,39	35,780
803,57	21,127
803,75	41,429
803,94	25,676
804,12	29,193
804,31	69,231
804,49	23,871
804,67	10,811
804,86	37,888
805,04	37,984
805,23	33,577
805,41	57,843
805,59	15,060
805,78	26,429
805,96	38,554
806,15	26,400
806,33	12,409
806,51	54,487
806,70	-46,512
806,88	15,455
807,07	36,066
807,25	11,304
807,43	25,556
807,62	57,813
807,80	6,707
807,99	69,065
808,17	21,528
808,35	-5,660
808,54	41,341
808,72	28,205
808,90	32,520
809,09	17,518
809,27	30,097
809,46	26,168
809,64	43,353
809,82	17,931
810,01	43,011
810,19	1,818
810,37	54,545
810,56	31,126
810,74	72,327
810,92	4,225
811,11	15,337
811,29	18,012
811,48	22,609
811,66	28,934
811,84	50,847
812,03	19,595
812,21	40,606
812,39	12,097
812,58	24,561
812,76	50,365
812,94	40,940
813,13	42,073
813,31	36,508
813,49	29,333
813,68	43,443
813,86	33,333
814,04	54,955
814,23	55,385
814,41	47,260
814,59	21,569
814,78	54,362
814,96	40,223
815,14	47,236
815,33	20,661
815,51	37,795
815,69	61,069
815,87	15,484
816,06	49,751
816,24	35,294
816,42	11,905
816,61	19,136
816,79	27,168
816,97	57,051
817,16	8,333
817,34	21,176
817,52	40,187
817,70	31,606
817,89	19,139
818,07	20,000
818,25	41,772
818,44	6,417
818,62	22,772
818,80	30,220
818,98	24,103
819,17	27,119
819,35	24,161
819,53	29,744
819,72	31,351
819,90	41,778
820,08	40,594
820,26	16,895
820,45	3,226
820,63	42,690
820,81	23,394
820,99	28,821
821,18	20,482
821,36	10,625
821,54	10,448
821,73	42,623
821,91	14,085
822,09	36,095
822,27	24,125
822,46	22,660
822,64	1,579
822,82	6,599
823,00	9,424
823,19	25,714
823,37	29,915
823,55	27,004
823,73	11,798
823,91	13,369
824,10	-1,563
824,28	20,661
824,46	-39,474
824,64	27,675
824,83	18,009
825,01	9,412
825,19	17,467
825,37	11,765
825,56	40,076
825,74	36,797
825,92	24,514
826,10	13,656
826,28	22,878
826,47	42,802
826,65	25,180
826,83	23,684
827,01	10,236
827,19	31,008
827,38	22,097
827,56	41,500
827,74	13,744
827,92	25,366
828,10	9,722
828,29	-4,059
828,47	25,912
828,65	25,391
828,83	16,878
829,01	1,802
829,20	20,000
829,38	23,361
829,56	25,926
829,74	36,538
829,92	26,316
830,10	18,026
830,29	36,398
830,47	17,910
830,65	10,879
830,83	19,728
831,01	17,489
831,20	4,015
831,38	26,059
831,56	21,754
831,74	13,220
831,92	26,374
832,10	30,063
832,29	16,254
832,47	17,021
832,65	29,508
832,83	12,342
833,01	17,825
833,19	15,341
833,37	24,924
833,56	20,536
833,74	24,262
833,92	8,784
834,10	13,554
834,28	17,770
834,46	30,058
834,64	30,400
834,83	12,465
835,01	15,405
835,19	30,142
835,37	25,706
835,55	26,629
835,73	11,017
835,91	26,844
836,09	24,013
836,28	13,415
836,46	17,404
836,64	25,984
836,82	23,077
837,00	11,821
837,18	25,000
837,36	24,340
837,54	30,055
837,72	15,443
837,91	30,595
838,09	23,939
838,27	31,865
838,45	34,247
838,63	33,521
838,81	25,228
838,99	25,995
839,17	30,124
839,35	26,862
839,53	23,980
839,72	39,560
839,90	32,222
840,08	31,529
840,26	21,260
840,44	28,499
840,62	30,728
840,80	36,264
840,98	42,506
841,16	22,554
841,34	37,908
841,52	31,739
841,70	30,273
841,89	32,346
842,07	34,023
842,25	35,220
842,43	39,659
842,61	32,151
842,79	28,345
842,97	25,629
843,15	28,810
843,33	33,333
843,51	24,348
843,69	32,031
843,87	36,290
844,05	30,454
844,23	26,403
844,41	35,388
844,59	27,801
844,77	28,454
844,95	33,333
845,13	32,421
845,31	24,361
845,50	29,814
845,68	30,621
845,86	30,894
846,04	26,714
846,22	32,105
846,40	22,107
846,58	23,307
846,76	33,671
846,94	25,646
847,12	31,346
847,30	24,390
847,48	22,587
847,66	20,165
847,84	22,261
848,02	18,199
848,20	28,437
848,38	23,750
848,56	21,544
848,74	34,426
848,92	20,790
849,10	27,993
849,28	24,882
849,46	20,148
849,64	30,233
849,82	28,435
850,00	26,307
850,18	17,750
850,36	24,669
850,54	23,482
850,72	18,380
850,90	21,306
851,08	25,354
851,26	19,094
851,44	20,517
851,62	38,305
851,80	21,687
851,98	26,244
852,16	23,767
852,34	25,915
852,52	20,858
852,70	26,270
852,87	25,036
853,05	28,510
853,23	21,091
853,41	27,465
853,59	26,263
853,77	24,855
853,95	29,794
854,13	26,989
854,31	25,741
854,49	24,191
854,67	27,848
854,85	24,394
855,03	33,924
855,21	35,582
855,39	28,609
855,57	29,272
855,75	33,068
855,93	21,208
856,11	25,811
856,28	31,824
856,46	33,026
856,64	28,312
856,82	29,766
857,00	30,838
857,18	32,980
857,36	36,692
857,54	39,342
857,72	31,195
857,90	33,622
858,08	33,203
858,26	36,147
858,44	33,931
858,61	33,785
858,79	33,373
858,97	33,368
859,15	32,898
859,33	29,240
859,51	32,601
859,69	33,068
859,87	35,067
860,05	33,456
860,23	35,388
860,40	30,601
860,58	30,078
860,76	27,065
860,94	29,487
861,12	34,436
861,30	34,029
861,48	31,954
861,66	28,810
861,84	31,926
862,01	27,628
862,19	32,825
862,37	29,794
862,55	28,846
862,73	28,512
862,91	33,302
863,09	33,368
863,27	29,205
863,44	29,104
863,62	31,391
863,80	32,976
863,98	29,098
864,16	32,700
864,34	29,341
864,52	33,817
864,69	29,719
864,87	30,510
865,05	31,113
865,23	25,556
865,41	26,587
865,59	30,865
865,76	29,742
865,94	27,256
866,12	27,739
866,30	30,607
866,48	31,975
866,66	30,087
866,83	31,534
867,01	33,098
867,19	29,514
867,37	29,569
867,55	32,398
867,73	31,452
867,90	33,089
868,08	34,725
868,26	35,473
868,44	28,595
868,62	40,527
868,79	32,663
868,97	32,160
869,15	30,814
869,33	32,750
869,51	34,277
869,69	34,488
869,86	35,092
870,04	36,556
870,22	34,882
870,40	36,364
870,57	38,254
870,75	36,149
870,93	35,731
871,11	34,536
871,29	31,815
871,46	37,154
871,64	32,653
871,82	39,668
872,00	38,855
872,18	34,815
872,35	38,365
872,53	34,773
872,71	37,527
872,89	34,044
873,06	34,130
873,24	37,653
873,42	39,244
873,60	37,632
873,77	35,412
873,95	36,882
874,13	36,842
874,31	39,070
874,49	35,411
874,66	40,876
874,84	37,113
875,02	37,902
875,20	41,306
875,37	36,911
875,55	36,606
875,73	37,902
875,91	36,600
876,08	36,141
876,26	38,988
876,44	37,770
876,61	35,476
876,79	34,961
876,97	35,294
877,15	38,378
877,32	35,655
877,50	37,236
877,68	37,572
877,86	40,345
878,03	37,232
878,21	35,902
878,39	35,245
878,56	39,494
878,74	39,207
878,92	39,659
879,10	40,838
879,27	43,178
879,45	38,518
879,63	39,909
879,80	36,490
879,98	40,733
880,16	42,173
880,34	40,861
880,51	44,989
880,69	40,100
880,87	41,929
881,04	42,730
881,22	43,153
881,40	41,711
881,57	41,805
881,75	42,268
881,93	42,242
882,10	43,436
882,28	41,721
882,46	44,100
882,63	45,230
882,81	44,006
882,99	43,085
883,16	45,888
883,34	45,189
883,52	46,645
883,69	44,187
883,87	45,889
884,05	46,150
884,22	44,998
884,40	46,419
884,58	43,391
884,75	42,791
884,93	44,592
885,11	45,922
885,28	46,262
885,46	45,628
885,64	43,797
885,81	42,430
885,99	42,971
886,17	44,444
886,34	43,927
886,52	44,670
886,70	44,637
886,87	43,888
887,05	45,994
887,22	42,135
887,40	45,016
887,58	43,849
887,75	46,264
887,93	45,808
888,11	40,530
888,28	44,012
888,46	42,086
888,63	41,123
888,81	44,120
888,99	42,373
889,16	42,800
889,34	43,408
889,51	42,610
889,69	46,070
889,87	44,152
890,04	43,643
890,22	41,944
890,39	43,394
890,57	44,623
890,75	43,781
890,92	43,006
891,10	40,835
891,27	43,699
891,45	42,812
891,63	42,876
891,80	45,324
891,98	42,257
892,15	44,463
892,33	43,588
892,51	44,121
892,68	41,459
892,86	43,038
893,03	42,667
893,21	41,619
893,38	42,556
893,56	42,197
893,74	42,597
893,91	41,639
894,09	41,523
894,26	43,898
894,44	41,783
894,61	40,422
894,79	40,960
894,96	40,042
895,14	39,976
895,32	41,397
895,49	40,853
895,67	39,384
895,84	38,842
896,02	40,395
896,19	37,387
896,37	36,459
896,54	35,782
896,72	36,207
896,89	36,265
897,07	34,324
897,25	35,404
897,42	34,922
897,60	34,985
897,77	33,706
897,95	33,695
898,12	35,317
898,30	33,816
898,47	32,682
898,65	33,964
898,82	33,544
899,00	33,496
899,17	35,059
899,35	32,106
899,52	33,280
899,70	34,221
899,87	33,378
900,05	33,696
900,22	33,281
900,40	33,502
900,57	32,369
900,75	33,587
900,92	32,622
901,10	32,668
901,27	32,888
901,45	32,420
901,62	33,082
901,80	33,280
901,97	34,240
902,15	33,429
902,32	35,760
902,50	34,546
902,67	34,579
902,85	33,877
903,02	32,449
903,20	33,182
903,37	34,133
903,54	33,408
903,72	33,325
903,89	33,400
904,07	33,682
904,24	35,142
904,42	33,968
904,59	34,611
904,77	34,229
904,94	34,779
905,12	35,470
905,29	33,807
905,47	35,935
905,64	35,107
905,81	35,626
905,99	34,198
906,16	35,525
906,34	34,684
906,51	35,039
906,69	34,060
906,86	35,550
907,03	35,086
907,21	33,991
907,38	34,321
907,56	32,145
907,73	33,845
907,91	34,654
908,08	33,794
908,25	32,481
908,43	33,928
908,60	33,677
908,78	34,973
908,95	33,326
909,13	32,369
909,30	32,049
909,47	33,221
909,65	33,981
909,82	31,615
910,00	30,356
910,17	31,458
910,34	32,037
910,52	31,441
910,69	30,252
910,87	32,836
911,04	30,218
911,21	32,461
911,39	31,759
911,56	30,955
911,73	30,035
911,91	29,748
912,08	31,030
912,26	31,275
912,43	31,659
912,60	30,478
912,78	31,098
912,95	30,748
913,13	29,930
913,30	30,116
913,47	31,438
913,65	31,883
913,82	31,121
913,99	31,121
914,17	32,997
914,34	30,964
914,51	31,756
914,69	32,246
914,86	30,917
915,03	32,239
915,21	32,241
915,38	34,334
915,56	32,968
915,73	31,676
915,90	32,152
916,08	33,441
916,25	34,176
916,42	34,956
916,60	34,392
916,77	34,049
916,94	34,616
917,12	34,958
917,29	34,767
917,46	36,065
917,64	36,152
917,81	35,197
917,98	35,103
918,16	36,970
918,33	38,113
918,50	36,430
918,67	37,535
918,85	38,472
919,02	37,771
919,19	38,633
919,37	39,361
919,54	39,569
919,71	39,631
919,89	40,223
920,06	40,367
920,23	40,635
920,41	40,357
920,58	40,226
920,75	40,739
920,92	42,296
921,10	42,301
921,27	41,902
921,44	43,803
921,62	42,055
921,79	43,464
921,96	43,471
922,13	43,041
922,31	44,064
922,48	42,440
922,65	43,623
922,82	42,609
923,00	44,452
923,17	43,588
923,34	44,019
923,52	43,690
923,69	44,776
923,86	44,606
924,03	44,131
924,21	44,343
924,38	44,831
924,55	45,748
924,72	45,074
924,90	44,144
925,07	44,647
925,24	45,788
925,41	44,127
925,59	46,314
925,76	45,125
925,93	46,979
926,10	45,357
926,28	44,998
926,45	45,948
926,62	44,528
926,79	45,849
926,96	45,030
927,14	46,376
927,31	45,384
927,48	43,232
927,65	45,294
927,83	45,002
928,00	45,066
928,17	44,434
928,34	43,900
928,51	43,794
928,69	44,938
928,86	44,273
929,03	45,526
929,20	44,817
929,37	44,814
929,55	45,883
929,72	46,146
929,89	46,487
930,06	45,289
930,23	45,180
930,41	46,764
930,58	46,709
930,75	44,483
930,92	47,567
931,09	45,186
931,27	46,027
931,44	45,192
931,61	46,051
931,78	47,196
931,95	46,063
932,12	44,309
932,30	46,423
932,47	47,054
932,64	45,620
932,81	45,805
932,98	46,908
933,16	47,174
933,33	46,586
933,50	46,443
933,67	45,955
933,84	47,147
934,01	45,853
934,18	45,904
934,36	46,477
934,53	46,075
934,70	45,720
934,87	47,164
935,04	47,088
935,21	46,127
935,38	45,579
935,56	45,021
935,73	45,087
935,90	44,492
936,07	44,691
936,24	45,472
936,41	42,596
936,58	43,225
936,76	43,405
936,93	42,138
937,10	41,899
937,27	41,551
937,44	43,251
937,61	42,992
937,78	40,360
937,95	41,002
938,13	40,810
938,30	39,860
938,47	39,227
938,64	37,870
938,81	37,702
938,98	38,208
939,15	37,282
939,32	36,587
939,49	37,244
939,66	35,386
939,84	35,946
940,01	35,909
940,18	35,405
940,35	34,069
940,52	33,766
940,69	33,833
940,86	33,510
941,03	34,897
941,20	33,054
941,37	33,190
941,54	32,873
941,71	32,754
941,89	31,380
942,06	32,114
942,23	32,474
942,40	31,469
942,57	31,611
942,74	32,253
942,91	30,938
943,08	32,512
943,25	31,505
943,42	30,431
943,59	29,767
943,76	30,956
943,93	30,349
944,10	31,182
944,27	31,572
944,44	31,020
944,61	31,187
944,79	30,823
944,96	30,522
945,13	31,336
945,30	29,536
945,47	30,404
945,64	31,394
945,81	30,454
945,98	30,851
946,15	30,118
946,32	30,124
946,49	31,654
946,66	30,193
946,83	30,182
947,00	30,189
947,17	31,156
947,34	31,105
947,51	30,887
947,68	31,856
947,85	31,381
948,02	31,077
948,19	32,090
948,36	31,517
948,53	31,185
948,70	30,060
948,87	32,000
949,04	32,576
949,21	31,326
949,38	31,812
949,55	31,317
949,72	31,236
949,89	32,484
950,06	32,763
950,23	30,731
950,40	30,129
950,57	30,803
950,74	32,636
950,91	29,906
951,08	30,929
951,25	31,728
951,42	30,174
951,59	29,660
951,76	30,095
951,93	30,190
952,10	30,058
952,27	29,894
952,44	31,102
952,61	30,267
952,77	31,810
952,94	29,311
953,11	30,077
953,28	29,775
953,45	31,295
953,62	30,681
953,79	29,945
953,96	28,482
954,13	28,512
954,30	27,393
954,47	27,370
954,64	28,730
954,81	26,935
954,98	27,878
955,15	27,384
955,32	27,947
955,49	26,045
955,65	28,014
955,82	25,798
955,99	27,428
956,16	26,969
956,33	26,667
956,50	27,593
956,67	26,583
956,84	26,564
957,01	25,844
957,18	26,399
957,35	26,709
957,52	23,374
957,68	26,902
957,85	22,717
958,02	25,829
958,19	23,911
958,36	27,145
958,53	25,226
958,70	26,980
958,87	25,796
959,04	26,544
959,21	27,376
959,37	27,371
959,54	27,138
959,71	27,785
959,88	24,118
960,05	27,096
960,22	27,951
960,39	30,811
960,56	27,997
960,72	26,180
960,89	28,851
961,06	28,546
961,23	26,812
961,40	27,099
961,57	23,592
961,74	30,215
961,90	30,217
962,07	30,815
962,24	32,390
962,41	28,543
962,58	26,421
962,75	27,456
962,92	25,909
963,08	32,390
963,25	31,754
963,42	25,490
963,59	24,487
963,76	27,121
963,93	29,193
964,10	27,448
964,26	27,370
964,43	26,913
964,60	25,888
964,77	29,556
964,94	36,615
965,10	34,804
965,27	34,966
965,44	35,000
965,61	27,992
965,78	34,446
965,95	28,473
966,11	29,228
966,28	36,923
966,45	31,238
966,62	32,479
966,79	29,675
966,95	25,431
967,12	33,014
967,29	29,206
967,46	36,087
967,63	28,148
967,79	29,620
967,96	30,709
968,13	38,245
968,30	25,956
968,47	31,926
968,63	42,604
968,80	27,931
968,97	32,857
969,14	37,463
969,31	42,949
969,47	52,366
969,64	36,964
969,81	43,860
969,98	42,982
970,14	34,074
970,31	48,387
970,48	32,740
970,65	36,972
970,81	38,435
970,98	55,056
971,15	48,848
971,32	28,390
971,48	45,588
971,65	31,933
971,82	50,000
971,99	39,801
972,15	66,842
972,32	31,276
972,49	45,494
972,66	33,628
972,82	26,238
972,99	47,660
973,16	56,701
973,33	51,905
973,49	63,333
973,66	69,748
973,83	43,537
974,00	56,557
974,16	38,994
974,33	53,049
974,50	50,000
974,67	58,421
974,83	48,023
975,00	67,391
975,17	59,184
975,33	36,232
975,50	69,091
975,67	60,714
975,84	84,397
976,00	28,462
976,17	41,176
976,34	56,028
976,50	78,261
976,67	59,483
976,84	47,436
977,00	42,857
977,17	71,654
977,34	70,968
977,50	80,851
977,67	35,965
977,84	10,000
978,01	71,264
978,17	15,385
978,34	62,500
978,51	25,758
978,67	96,703
978,84	78,125
979,01	63,077
979,17	96,970
979,34	87,500
979,51	7,692
979,67	82,500
979,84	75,000
980,01	52,459
980,17	76,471
980,34	50,725
980,51	104,545
980,67	93,333
980,84	53,448
981,01	17,949
981,17	66,000
981,34	0,000
981,50	32,353
981,67	170,690
981,84	39,655
982,00	56,522
982,17	240,909
982,34	215,385
982,50	289,474
982,67	75,000
982,84	102,381
983,00	108,000
983,17	66,667
983,33	164,516
983,50	42,391
983,67	150,000
983,83	133,333
984,00	68,750
984,17	-10,000
984,33	117,568
984,50	62,500
984,66	121,429
984,83	95,349
985,00	191,803
985,16	-2,564
985,33	512,500
985,49	182,759
985,66	90,909
985,83	156,140
985,99	64,865
986,16	244,000
986,32	124,638
986,49	516,667
986,66	72,093
986,82	75,439
986,99	11,905
987,15	206,897
987,32	66,667
987,49	88,889
987,65	40,000
987,82	70,588
987,98	5,882
988,15	71,429
988,31	70,000
988,48	-104,167
988,65	188,889
988,81	173,913
988,98	575,000
989,14	126,531
989,31	326,667
989,47	12,195
989,64	24,286
989,80	186,667
989,97	107,353
990,14	56,522
990,30	97,500
990,47	-51,220
990,63	239,130
990,80	136,364
990,96	195,833
991,13	16,667
991,29	139,216
991,46	152,941
991,62	20,588
991,79	101,754
991,95	155,000
992,12	144,186
992,29	20,000
992,45	-69,231
992,62	-90,000
992,78	-37,037
992,95	144,444
993,11	210,000
993,28	19,753
993,44	313,043
993,61	1200,000
993,77	560,000
993,94	165,116
994,10	214,286
994,27	36,000
994,43	100,000
994,60	33,333
994,76	200,000
994,93	254,545
995,09	-43,243
995,26	81,481
995,42	84,746
995,59	135,714
995,75	218,750
995,92	218,182
996,08	275,000
996,25	-111,111
996,41	162,500
996,58	175,676
996,74	360,000
996,91	322,222
997,07	153,846
997,23	178,723
997,40	1400,000
997,56	186,667
997,73	0,000
997,89	203,704
998,06	-31,373
998,22	-1400,000
998,39	347,826
998,55	-120,833
998,72	250,000
998,88	1166,667
999,05	61,538
999,21	91,304
999,37	-2900,000
999,54	-1600,000
999,70	230,769
999,87	-68,750
1000,03	25,000
1000,20	50,000
1000,36	4600,000
1000,52	-38,889
1000,69	81,818
1000,85	112,069
1001,02	135,385
1001,18	147,727
1001,35	-95,556
1001,51	-250,000
1001,67	-4,000
1001,84	266,667
1002,00	165,000
1002,17	77,273
1002,33	-117,647
1002,50	233,333
1002,66	2200,000
1002,82	157,143
1002,99	19,231
1003,15	47,826
1003,32	41,935
1003,48	-280,000
1003,64	105,000
1003,81	-10,714
1003,97	227,273
1004,14	700,000
1004,30	-1042,857
1004,46	750,000
1004,63	205,263
1004,79	-293,333
1004,95	79,412
1005,12	85,714
1005,28	200,000
1005,45	76,923
1005,61	-1066,667
1005,77	184,211
1005,94	141,935
1006,10	-600,000
1006,26	42,857
1006,43	533,333
1006,59	-170,370
1006,76	24,000
1006,92	340,000
1007,08	400,000
1007,25	-61,111
1007,41	-316,667
1007,57	-206,250
1007,74	4,348
1007,90	-960,000
1008,06	122,857
1008,23	131,481
1008,39	1350,000
1008,55	-35,714
1008,72	325,000
1008,88	140,000
1009,04	96,000
1009,21	-117,647
1009,37	-312,500
1009,53	-152,632
1009,70	-315,385
1009,86	111,364
1010,02	0,000
1010,19	0,000
1010,35	337,500
1010,51	33,333
1010,68	487,500
1010,84	-566,667
1011,00	44,444
1011,17	-1180,000
1011,33	129,412
1011,49	128,125
1011,66	252,174
1011,82	-33,962
1011,98	93,182
1012,14	74,242
1012,31	-140,000
1012,47	1266,667
1012,63	611,111
1012,80	112,000
1012,96	-281,818
1013,12	160,465
1013,29	115,789
1013,45	11,111
1013,61	-88,889
1013,77	-33,333
1013,94	59,375
1014,10	69,697
1014,26	1500,000
1014,43	-60,606
1014,59	-787,500
1014,75	-150,000
1014,91	1233,333
1015,08	106,667
1015,24	-700,000
1015,40	-258,824
1015,56	266,667
1015,73	168,889
1015,89	4,762
1016,05	540,000
1016,21	-200,000
1016,38	1100,000
1016,54	-123,077
1016,70	-25,926
1016,86	51,515
1017,03	153,846
1017,19	400,000
1017,35	-400,000
1017,51	82,857
1017,68	281,818
1017,84	3300,000
1018,00	557,143
1018,16	12,500
1018,33	-85,714
1018,49	114,634
1018,65	70,588
1018,81	-100,000
1018,97	-700,000
1019,14	150,000
1019,30	90,625
1019,46	422,222
1019,62	246,667
1019,79	275,000
1019,95	100,000
1020,11	-571,429
1020,27	25,000
1020,43	-700,000
1020,60	-115,789
1020,76	-77,778
1020,92	414,286
1021,08	4100,000
1021,24	310,000
1021,41	-105,882
1021,57	-181,818
1021,73	-850,000
1021,89	28,571
1022,05	325,000
1022,21	143,590
1022,38	-210,000
1022,54	1800,000
1022,70	-63,636
1022,86	1700,000
1023,02	-41,176
1023,19	-200,000
1023,35	129,032
1023,51	89,286
1023,67	195,833
1023,83	666,667
1023,99	-16,667
1024,16	54,762
1024,32	44,000
1024,48	218,182
1024,64	544,444
1024,80	-88,889
1024,96	96,552
1025,12	-85,714
1025,29	7,143
1025,45	19,444
1025,61	-166,667
1025,77	-116,129
1025,93	500,000
1026,09	60,976
1026,26	310,526
1026,42	-2,083
1026,58	-47,826
1026,74	120,833
1026,90	311,111
1027,06	43,590
1027,22	-121,739
1027,38	173,913
1027,55	400,000
1027,71	40,000
1027,87	-300,000
1028,03	-100,000
1028,19	-229,412
1028,35	-371,429
1028,51	120,000
1028,67	23,529
1028,83	206,667
1029,00	562,500
1029,16	78,378
1029,32	114,286
1029,48	300,000
1029,64	-369,231
1029,80	277,273
1029,96	733,333
1030,12	226,316
1030,28	-1450,000
1030,44	1580,000
1030,61	159,091
1030,77	-316,667
1030,93	-256,250
1031,09	-50,000
1031,25	0,000
1031,41	390,000
1031,57	-1050,000
1031,73	-2150,000
1031,89	-63,636
1032,05	-6,977
1032,21	-51,515
1032,37	107,143
1032,53	24,138
1032,69	111,538
1032,86	66,667
1033,02	-588,889
1033,18	341,667
1033,34	-300,000
1033,50	112,500
1033,66	-100,000
1033,82	388,889
1033,98	2200,000
1034,14	-28,571
1034,30	113,333
1034,46	132,353
1034,62	141,026
1034,78	-21,739
1034,94	125,806
1035,10	-230,769
1035,26	322,222
1035,42	-50,000
1035,58	241,667
1035,74	127,027
1035,90	137,500
1036,06	111,765
1036,22	139,394
1036,38	-356,250
1036,54	50,000
1036,70	100,000
1036,86	220,000
1037,02	-35,714
1037,18	-52,941
1037,34	11,111
1037,50	-540,000
1037,66	-200,000
1037,82	219,048
1037,98	512,500
1038,14	-750,000
1038,30	279,310
1038,46	-214,286
1038,62	366,667
1038,78	-271,429
1038,94	100,000
1039,10	168,000
1039,26	-87,500
1039,42	117,391
1039,58	-500,000
1039,74	650,000
1039,90	-8,333
1040,06	44,615
>>>>>End Processed Spectral Data<<<<<
