SpectraSuite Data File
++++++++++++++++++++++++++++++++++++
Date: Tue Jan 31 18:57:55 EET 2017
User: optolab
Dark Spectrum Present: Yes
Reference Spectrum Present: Yes
Number of Sampled Component Spectra: 1
Spectrometers: USB4C02475
Integration Time (usec): 100000 (USB4C02475)
Spectra Averaged: 1 (USB4C02475)
Boxcar Smoothing: 0 (USB4C02475)
Correct for Electrical Dark: No (USB4C02475)
Strobe/Lamp Enabled: No (USB4C02475)
Correct for Detector Non-linearity: No (USB4C02475)
Correct for Stray Light: No (USB4C02475)
Number of Pixels in Processed Spectrum: 3648
>>>>>Begin Processed Spectral Data<<<<<
344,91	130,769
345,13	130,769
345,35	130,769
345,57	0,000
345,79	-150,000
346,00	40,000
346,22	-83,333
346,44	230,769
346,66	1500,000
346,87	566,667
347,09	-55,556
347,31	-533,333
347,53	-716,667
347,74	-200,000
347,96	304,762
348,18	2133,333
348,40	-92,857
348,61	220,000
348,83	109,756
349,05	210,714
349,27	284,211
349,48	144,231
349,70	382,353
349,92	141,463
350,14	677,778
350,35	87,805
350,57	168,571
350,79	152,941
351,01	253,846
351,22	-150,000
351,44	-316,667
351,66	307,692
351,87	92,308
352,09	118,182
352,31	381,250
352,53	128,889
352,74	95,238
352,96	130,233
353,18	66,667
353,40	139,130
353,61	185,000
353,83	716,667
354,05	15,152
354,26	75,000
354,48	-250,000
354,70	24,390
354,92	48,485
355,13	117,647
355,35	0,000
355,57	77,778
355,78	29,412
356,00	76,471
356,22	266,667
356,44	-146,154
356,65	118,182
356,87	114,286
357,09	120,000
357,30	68,254
357,52	146,429
357,74	-3250,000
357,95	480,000
358,17	383,333
358,39	205,882
358,60	500,000
358,82	123,529
359,04	-112,500
359,26	107,812
359,47	117,391
359,69	-59,459
359,91	207,692
360,12	200,000
360,34	102,913
360,56	206,897
360,77	542,857
360,99	67,308
361,21	175,000
361,42	153,125
361,64	-84,615
361,86	129,167
362,07	111,538
362,29	45,588
362,51	169,231
362,72	37,838
362,94	109,524
363,16	355,000
363,37	22,581
363,59	117,241
363,81	-83,333
364,02	48,235
364,24	239,130
364,46	45,946
364,67	151,111
364,89	215,000
365,11	1650,000
365,32	89,157
365,54	342,857
365,76	75,862
365,97	107,143
366,19	650,000
366,41	238,462
366,62	110,526
366,84	178,947
367,05	96,923
367,27	-144,444
367,49	134,146
367,70	925,000
367,92	54,839
368,14	200,000
368,35	119,718
368,57	197,436
368,79	144,118
369,00	0,000
369,22	225,000
369,43	195,455
369,65	76,119
369,87	54,930
370,08	914,286
370,30	76,471
370,51	24,074
370,73	50,000
370,95	261,905
371,16	333,333
371,38	81,818
371,60	38,462
371,81	164,865
372,03	384,211
372,24	918,182
372,46	28,049
372,68	87,500
372,89	100,000
373,11	142,857
373,32	366,667
373,54	176,000
373,76	-2,128
373,97	74,194
374,19	120,270
374,40	166,667
374,62	100,000
374,84	144,000
375,05	32,432
375,27	77,358
375,48	88,372
375,70	34,091
375,92	116,667
376,13	64,444
376,35	1566,667
376,56	74,667
376,78	29,167
376,99	64,935
377,21	-3600,000
377,43	95,833
377,64	110,526
377,86	165,217
378,07	43,333
378,29	-83,871
378,51	87,179
378,72	113,333
378,94	70,588
379,15	188,571
379,37	176,786
379,58	146,429
379,80	65,385
380,01	812,500
380,23	136,842
380,45	117,308
380,66	138,889
380,88	200,000
381,09	102,857
381,31	131,884
381,52	41,667
381,74	53,731
381,95	207,317
382,17	71,667
382,39	254,545
382,60	500,000
382,82	114,286
383,03	80,769
383,25	17,949
383,46	95,122
383,68	67,857
383,89	690,000
384,11	6,818
384,32	-287,500
384,54	173,333
384,76	-200,000
384,97	71,605
385,19	129,167
385,40	108,333
385,62	244,444
385,83	183,784
386,05	83,721
386,26	75,676
386,48	124,000
386,69	88,679
386,91	126,471
387,12	158,333
387,34	117,647
387,55	34,091
387,77	95,238
387,98	-928,571
388,20	80,645
388,41	112,821
388,63	153,488
388,84	138,462
389,06	56,410
389,27	146,429
389,49	128,125
389,70	54,762
389,92	93,750
390,13	-104,348
390,35	0,000
390,56	77,273
390,78	132,258
390,99	1566,667
391,21	112,500
391,42	116,393
391,64	25,926
391,85	40,000
392,07	16,000
392,28	25,000
392,50	64,912
392,71	118,519
392,93	194,595
393,14	-242,105
393,36	278,125
393,57	133,333
393,79	142,424
394,00	60,000
394,22	34,091
394,43	152,500
394,65	800,000
394,86	154,545
395,08	17,808
395,29	134,884
395,50	218,750
395,72	88,889
395,93	114,583
396,15	67,606
396,36	111,321
396,58	207,407
396,79	45,455
397,01	113,253
397,22	38,889
397,44	-580,000
397,65	73,684
397,87	25,641
398,08	76,000
398,29	-175,000
398,51	229,167
398,72	107,000
398,94	56,757
399,15	87,755
399,37	46,154
399,58	116,129
399,80	18,750
400,01	31,884
400,22	-6,122
400,44	40,000
400,65	160,000
400,87	49,180
401,08	52,632
401,30	68,000
401,51	31,818
401,72	53,488
401,94	74,194
402,15	89,831
402,37	112,121
402,58	84,444
402,80	33,929
403,01	17,021
403,22	131,667
403,44	81,250
403,65	-309,091
403,87	46,154
404,08	52,308
404,30	51,724
404,51	14,286
404,72	80,488
404,94	112,857
405,15	72,464
405,37	111,111
405,58	140,909
405,79	64,557
406,01	80,374
406,22	0,000
406,44	71,429
406,65	87,671
406,86	101,010
407,08	194,444
407,29	85,393
407,51	58,163
407,72	68,519
407,93	86,577
408,15	67,568
408,36	77,778
408,58	72,358
408,79	52,688
409,00	68,182
409,22	40,659
409,43	69,663
409,64	37,719
409,86	34,752
410,07	40,741
410,29	101,124
410,50	67,123
410,71	68,605
410,93	70,588
411,14	75,000
411,35	68,966
411,57	52,427
411,78	45,024
412,00	52,542
412,21	51,445
412,42	50,980
412,64	67,130
412,85	49,741
413,06	56,098
413,28	57,143
413,49	48,295
413,70	70,758
413,92	48,689
414,13	61,776
414,34	47,489
414,56	44,194
414,77	43,561
414,98	45,970
415,20	50,386
415,41	49,530
415,63	35,976
415,84	44,479
416,05	44,660
416,27	40,580
416,48	40,750
416,69	37,923
416,91	52,033
417,12	42,334
417,33	48,219
417,55	39,648
417,76	46,761
417,97	49,702
418,19	50,871
418,40	43,739
418,61	48,370
418,83	55,018
419,04	42,927
419,25	50,980
419,46	54,874
419,68	55,920
419,89	50,890
420,10	42,965
420,32	42,586
420,53	54,329
420,74	50,943
420,96	49,943
421,17	49,594
421,38	50,384
421,60	52,772
421,81	53,548
422,02	49,192
422,23	51,777
422,45	46,632
422,66	44,831
422,87	46,570
423,09	46,184
423,30	48,780
423,51	46,120
423,73	48,213
423,94	45,231
424,15	43,590
424,36	49,831
424,58	49,450
424,79	46,439
425,00	47,900
425,22	50,339
425,43	55,691
425,64	52,663
425,85	59,014
426,07	52,275
426,28	58,659
426,49	59,595
426,71	56,124
426,92	64,551
427,13	62,505
427,34	65,010
427,56	64,560
427,77	64,280
427,98	65,832
428,19	63,842
428,41	71,097
428,62	70,142
428,83	70,889
429,04	72,324
429,26	73,044
429,47	71,730
429,68	69,528
429,89	71,777
430,11	73,903
430,32	68,794
430,53	68,251
430,74	69,106
430,96	67,622
431,17	67,412
431,38	63,930
431,59	62,638
431,81	61,868
432,02	63,253
432,23	60,237
432,44	61,489
432,66	60,316
432,87	60,211
433,08	62,728
433,29	59,911
433,51	60,865
433,72	62,594
433,93	61,970
434,14	64,064
434,35	61,483
434,57	62,967
434,78	63,018
434,99	63,789
435,20	64,173
435,42	64,689
435,63	63,490
435,84	63,536
436,05	63,612
436,26	62,694
436,48	63,035
436,69	61,711
436,90	61,121
437,11	61,991
437,32	60,304
437,54	60,233
437,75	62,168
437,96	62,589
438,17	62,655
438,38	63,320
438,60	63,965
438,81	64,267
439,02	64,155
439,23	66,592
439,44	67,141
439,66	66,121
439,87	65,854
440,08	65,310
440,29	64,783
440,50	62,393
440,72	61,120
440,93	58,288
441,14	57,133
441,35	54,406
441,56	52,456
441,77	50,710
441,99	49,246
442,20	47,567
442,41	47,667
442,62	47,709
442,83	47,639
443,04	49,426
443,26	49,954
443,47	52,077
443,68	53,210
443,89	56,213
444,10	56,300
444,31	58,878
444,53	60,265
444,74	61,940
444,95	62,004
445,16	63,023
445,37	62,573
445,58	62,525
445,80	61,477
446,01	60,229
446,22	60,304
446,43	59,442
446,64	57,509
446,85	56,925
447,06	56,046
447,28	55,804
447,49	54,157
447,70	52,934
447,91	52,451
448,12	50,653
448,33	49,084
448,54	47,465
448,76	46,862
448,97	44,453
449,18	41,861
449,39	40,076
449,60	37,471
449,81	34,405
450,02	30,836
450,23	28,896
450,45	26,505
450,66	23,763
450,87	21,133
451,08	18,750
451,29	17,451
451,50	15,770
451,71	13,140
451,92	11,285
452,13	10,137
452,35	8,830
452,56	7,221
452,77	6,413
452,98	5,739
453,19	4,965
453,40	4,364
453,61	3,885
453,82	3,260
454,03	2,853
454,25	2,307
454,46	1,955
454,67	2,124
454,88	1,829
455,09	1,375
455,30	1,133
455,51	1,234
455,72	1,219
455,93	0,765
456,14	1,024
456,35	0,543
456,56	0,875
456,78	0,718
456,99	0,407
457,20	0,609
457,41	0,501
457,62	0,206
457,83	0,564
458,04	0,352
458,25	0,355
458,46	0,340
458,67	0,420
458,88	0,306
459,09	0,141
459,30	0,480
459,51	0,149
459,73	0,286
459,94	0,456
460,15	0,015
460,36	0,469
460,57	0,336
460,78	0,349
460,99	0,033
461,20	0,106
461,41	0,019
461,62	0,248
461,83	0,218
462,04	0,330
462,25	-0,009
462,46	0,061
462,67	0,055
462,88	0,467
463,09	0,191
463,30	0,142
463,51	0,233
463,72	0,159
463,93	0,208
464,15	0,160
464,36	0,240
464,57	0,214
464,78	0,230
464,99	0,406
465,20	0,076
465,41	0,122
465,62	0,088
465,83	0,168
466,04	0,198
466,25	0,233
466,46	0,321
466,67	0,229
466,88	0,137
467,09	0,290
467,30	0,220
467,51	0,145
467,72	0,179
467,93	0,176
468,14	0,202
468,35	0,163
468,56	0,228
468,77	0,173
468,98	0,221
469,19	0,199
469,40	0,164
469,61	0,170
469,82	0,192
470,03	0,190
470,24	0,171
470,45	0,163
470,66	0,340
470,87	0,356
471,08	0,328
471,29	0,177
471,50	0,190
471,71	0,098
471,92	0,176
472,13	0,352
472,34	0,188
472,55	0,225
472,76	0,135
472,97	0,090
473,18	0,233
473,39	0,331
473,60	0,266
473,81	0,428
474,01	0,059
474,22	0,316
474,43	0,358
474,64	0,221
474,85	0,332
475,06	0,274
475,27	0,224
475,48	0,412
475,69	0,425
475,90	0,447
476,11	0,436
476,32	0,183
476,53	0,440
476,74	0,377
476,95	0,331
477,16	0,295
477,37	0,459
477,58	0,488
477,79	0,260
478,00	0,251
478,21	0,338
478,41	0,309
478,62	0,191
478,83	0,158
479,04	0,140
479,25	0,357
479,46	0,168
479,67	0,245
479,88	0,295
480,09	0,276
480,30	0,304
480,51	0,469
480,72	0,519
480,93	0,308
481,14	0,341
481,34	0,537
481,55	0,629
481,76	0,426
481,97	0,393
482,18	0,411
482,39	0,229
482,60	0,420
482,81	0,361
483,02	0,505
483,23	0,349
483,44	0,197
483,65	0,449
483,85	0,332
484,06	0,261
484,27	0,260
484,48	0,331
484,69	0,554
484,90	0,133
485,11	0,349
485,32	0,365
485,53	0,515
485,73	0,556
485,94	0,459
486,15	0,731
486,36	0,759
486,57	0,905
486,78	1,090
486,99	1,051
487,20	1,520
487,41	1,754
487,61	1,836
487,82	1,827
488,03	2,188
488,24	2,316
488,45	2,623
488,66	2,978
488,87	3,064
489,08	3,328
489,28	3,884
489,49	4,352
489,70	4,409
489,91	4,880
490,12	5,366
490,33	6,050
490,54	6,726
490,74	7,288
490,95	7,741
491,16	8,429
491,37	9,039
491,58	10,040
491,79	10,799
492,00	11,543
492,20	12,265
492,41	13,429
492,62	14,212
492,83	15,266
493,04	16,025
493,25	17,309
493,45	18,056
493,66	18,811
493,87	20,352
494,08	20,778
494,29	22,249
494,50	23,407
494,70	24,746
494,91	25,915
495,12	26,741
495,33	28,293
495,54	29,238
495,75	30,465
495,95	31,848
496,16	32,684
496,37	34,135
496,58	34,254
496,79	35,625
496,99	36,696
497,20	37,102
497,41	38,024
497,62	38,674
497,83	39,266
498,04	40,101
498,24	40,524
498,45	41,518
498,66	42,445
498,87	43,281
499,08	43,386
499,28	44,192
499,49	44,248
499,70	45,030
499,91	45,245
500,12	45,870
500,32	46,292
500,53	47,051
500,74	47,266
500,95	47,302
501,15	47,521
501,36	48,096
501,57	48,406
501,78	48,437
501,99	48,726
502,19	49,130
502,40	47,939
502,61	48,569
502,82	48,535
503,02	48,719
503,23	49,035
503,44	49,310
503,65	49,023
503,86	49,379
504,06	48,756
504,27	48,962
504,48	49,026
504,69	48,822
504,89	49,485
505,10	49,003
505,31	49,150
505,52	48,719
505,72	49,368
505,93	49,556
506,14	48,773
506,35	49,417
506,55	48,833
506,76	48,983
506,97	49,285
507,18	49,224
507,38	48,736
507,59	48,855
507,80	49,166
508,01	49,043
508,21	48,896
508,42	49,135
508,63	49,288
508,84	49,435
509,04	49,299
509,25	49,469
509,46	49,673
509,67	49,665
509,87	48,885
510,08	49,205
510,29	49,806
510,49	49,857
510,70	50,344
510,91	50,232
511,12	52,233
511,32	51,367
511,53	52,797
511,74	54,193
511,94	56,187
512,15	56,641
512,36	57,711
512,57	59,829
512,77	61,854
512,98	64,278
513,19	65,569
513,39	67,519
513,60	68,895
513,81	71,304
514,01	73,419
514,22	75,572
514,43	76,091
514,64	77,727
514,84	78,145
515,05	79,278
515,26	80,315
515,46	80,770
515,67	80,576
515,88	80,212
516,08	80,992
516,29	82,400
516,50	81,772
516,70	82,810
516,91	81,689
517,12	81,499
517,32	82,574
517,53	83,333
517,74	82,575
517,95	82,122
518,15	81,612
518,36	81,988
518,57	81,096
518,77	81,526
518,98	81,187
519,19	81,335
519,39	80,377
519,60	80,059
519,80	81,087
520,01	80,428
520,22	81,098
520,42	80,925
520,63	80,517
520,84	81,481
521,04	81,255
521,25	82,594
521,46	82,281
521,66	83,375
521,87	84,019
522,08	83,691
522,28	86,032
522,49	85,373
522,70	86,429
522,90	86,976
523,11	88,618
523,31	88,095
523,52	89,832
523,73	90,172
523,93	90,015
524,14	91,426
524,35	90,260
524,55	90,782
524,76	90,876
524,97	92,210
525,17	91,940
525,38	91,948
525,58	91,621
525,79	93,620
526,00	93,045
526,20	92,995
526,41	93,981
526,61	94,411
526,82	94,384
527,03	94,360
527,23	94,546
527,44	95,419
527,64	95,736
527,85	95,005
528,06	95,303
528,26	96,044
528,47	95,910
528,68	96,747
528,88	95,809
529,09	95,420
529,29	95,352
529,50	94,472
529,70	94,216
529,91	93,376
530,12	94,253
530,32	93,259
530,53	91,524
530,73	92,915
530,94	93,218
531,15	91,240
531,35	92,045
531,56	91,371
531,76	90,950
531,97	91,944
532,17	91,278
532,38	91,775
532,59	90,039
532,79	90,231
533,00	91,936
533,20	91,993
533,41	91,938
533,61	92,103
533,82	91,037
534,03	91,048
534,23	91,484
534,44	91,176
534,64	91,650
534,85	90,799
535,05	92,448
535,26	90,433
535,46	90,448
535,67	89,637
535,88	90,696
536,08	90,112
536,29	90,197
536,49	89,886
536,70	89,455
536,90	88,882
537,11	89,374
537,31	88,872
537,52	89,336
537,72	88,876
537,93	88,631
538,13	87,898
538,34	87,595
538,55	86,890
538,75	88,098
538,96	87,259
539,16	86,365
539,37	87,490
539,57	86,987
539,78	86,408
539,98	86,167
540,19	86,825
540,39	86,648
540,60	85,228
540,80	85,220
541,01	83,789
541,21	82,986
541,42	81,987
541,62	81,877
541,83	79,664
542,03	79,130
542,24	77,812
542,44	74,817
542,65	73,833
542,85	72,335
543,06	69,871
543,26	68,951
543,47	66,384
543,67	64,436
543,88	62,271
544,08	60,207
544,29	58,046
544,49	55,699
544,70	52,308
544,90	49,869
545,11	46,594
545,31	43,491
545,52	41,111
545,72	37,713
545,93	34,827
546,13	32,347
546,34	29,677
546,54	26,446
546,75	24,051
546,95	22,191
547,15	19,332
547,36	17,719
547,56	16,286
547,77	14,195
547,97	12,694
548,18	11,613
548,38	10,385
548,59	9,245
548,79	8,061
549,00	7,284
549,20	6,559
549,41	5,796
549,61	5,199
549,81	4,411
550,02	4,108
550,22	3,704
550,43	3,101
550,63	2,627
550,84	2,087
551,04	1,989
551,25	1,816
551,45	1,645
551,65	1,126
551,86	1,378
552,06	1,227
552,27	1,316
552,47	1,176
552,68	0,893
552,88	0,766
553,08	0,967
553,29	0,707
553,49	0,715
553,70	0,514
553,90	0,437
554,11	0,630
554,31	0,536
554,51	0,295
554,72	0,308
554,92	0,419
555,13	0,469
555,33	0,177
555,53	0,457
555,74	0,385
555,94	0,197
556,15	0,445
556,35	0,203
556,56	0,383
556,76	0,161
556,96	0,239
557,17	0,317
557,37	0,240
557,58	0,323
557,78	0,258
557,98	0,239
558,19	0,302
558,39	0,341
558,59	0,318
558,80	0,279
559,00	0,391
559,21	0,235
559,41	0,214
559,61	0,369
559,82	0,348
560,02	0,375
560,23	0,291
560,43	0,314
560,63	0,234
560,84	0,219
561,04	0,338
561,24	0,467
561,45	0,311
561,65	0,379
561,85	0,282
562,06	0,319
562,26	0,255
562,47	0,106
562,67	0,176
562,87	0,162
563,08	0,278
563,28	0,231
563,48	0,377
563,69	0,333
563,89	0,149
564,09	0,244
564,30	0,255
564,50	0,150
564,70	0,286
564,91	0,138
565,11	0,022
565,31	0,195
565,52	0,163
565,72	0,336
565,92	0,176
566,13	0,251
566,33	0,255
566,53	0,282
566,74	0,338
566,94	0,235
567,14	0,234
567,35	0,033
567,55	0,322
567,75	0,114
567,96	0,292
568,16	0,278
568,36	0,291
568,57	0,187
568,77	0,252
568,97	0,330
569,18	0,245
569,38	0,286
569,58	0,233
569,79	0,442
569,99	0,463
570,19	0,387
570,39	0,314
570,60	0,502
570,80	0,314
571,00	0,357
571,21	0,593
571,41	0,674
571,61	0,769
571,82	0,822
572,02	1,068
572,22	1,125
572,42	1,208
572,63	1,446
572,83	1,744
573,03	1,744
573,24	2,156
573,44	2,541
573,64	2,796
573,84	3,229
574,05	3,783
574,25	4,112
574,45	4,583
574,66	5,046
574,86	5,649
575,06	6,671
575,26	7,303
575,47	8,096
575,67	8,496
575,87	9,376
576,07	10,204
576,28	11,100
576,48	11,908
576,68	12,738
576,88	13,161
577,09	14,183
577,29	15,070
577,49	15,650
577,69	16,612
577,90	17,656
578,10	17,855
578,30	19,024
578,50	19,252
578,71	20,162
578,91	20,832
579,11	21,998
579,31	22,180
579,52	22,712
579,72	23,501
579,92	24,261
580,12	24,960
580,33	26,048
580,53	26,204
580,73	26,725
580,93	26,772
581,13	27,520
581,34	28,710
581,54	28,526
581,74	29,779
581,94	29,934
582,15	30,454
582,35	31,314
582,55	31,899
582,75	32,814
582,95	32,988
583,16	33,223
583,36	34,447
583,56	35,191
583,76	35,555
583,96	36,254
584,17	36,704
584,37	36,605
584,57	36,884
584,77	38,165
584,97	38,781
585,18	38,678
585,38	39,293
585,58	39,289
585,78	39,290
585,98	39,285
586,19	39,626
586,39	39,678
586,59	39,851
586,79	40,537
586,99	41,146
587,20	40,534
587,40	40,470
587,60	40,388
587,80	40,524
588,00	41,643
588,20	41,586
588,41	41,383
588,61	41,344
588,81	41,834
589,01	42,194
589,21	42,187
589,41	42,196
589,62	42,290
589,82	42,338
590,02	42,541
590,22	42,730
590,42	42,169
590,62	42,503
590,83	43,079
591,03	42,755
591,23	43,188
591,43	42,812
591,63	43,325
591,83	42,809
592,03	43,091
592,24	43,360
592,44	43,460
592,64	44,491
592,84	44,980
593,04	44,096
593,24	44,843
593,44	44,043
593,65	45,009
593,85	45,339
594,05	45,192
594,25	45,858
594,45	45,739
594,65	46,304
594,85	45,812
595,06	46,376
595,26	46,839
595,46	46,482
595,66	46,375
595,86	47,165
596,06	46,869
596,26	47,121
596,46	46,952
596,66	47,298
596,87	47,511
597,07	47,262
597,27	47,345
597,47	47,337
597,67	47,695
597,87	48,092
598,07	47,637
598,27	47,510
598,47	49,176
598,67	48,750
598,88	49,530
599,08	49,927
599,28	50,995
599,48	51,212
599,68	52,283
599,88	52,594
600,08	53,413
600,28	55,288
600,48	56,026
600,68	57,200
600,88	58,466
601,09	60,146
601,29	61,275
601,49	62,380
601,69	64,376
601,89	64,632
602,09	65,767
602,29	66,071
602,49	67,524
602,69	69,215
602,89	69,399
603,09	70,377
603,29	70,553
603,49	70,884
603,69	71,140
603,90	71,080
604,10	71,741
604,30	71,921
604,50	71,077
604,70	71,761
604,90	71,702
605,10	71,620
605,30	71,682
605,50	72,049
605,70	72,941
605,90	72,808
606,10	72,535
606,30	74,008
606,50	72,810
606,70	72,224
606,90	73,352
607,10	72,973
607,30	73,479
607,50	74,710
607,70	75,198
607,90	74,911
608,10	74,985
608,30	74,902
608,50	74,512
608,70	75,227
608,90	74,942
609,11	75,907
609,31	75,696
609,51	75,161
609,71	74,852
609,91	74,542
610,11	74,550
610,31	73,893
610,51	74,799
610,71	74,818
610,91	74,414
611,11	73,910
611,31	74,363
611,51	75,154
611,71	75,147
611,91	74,773
612,11	74,279
612,31	75,140
612,51	75,296
612,71	75,335
612,91	75,438
613,11	76,076
613,31	75,916
613,51	76,304
613,71	75,986
613,91	77,409
614,11	77,636
614,31	77,273
614,50	77,909
614,70	77,540
614,90	78,661
615,10	78,063
615,30	78,189
615,50	78,472
615,70	79,471
615,90	78,621
616,10	78,569
616,30	79,915
616,50	80,436
616,70	80,732
616,90	81,340
617,10	81,212
617,30	81,911
617,50	81,611
617,70	82,218
617,90	82,005
618,10	82,401
618,30	83,479
618,50	82,498
618,70	83,892
618,90	83,348
619,10	83,738
619,30	83,989
619,49	84,511
619,69	84,553
619,89	85,484
620,09	85,221
620,29	85,208
620,49	84,716
620,69	85,037
620,89	85,061
621,09	86,668
621,29	85,243
621,49	86,233
621,69	85,735
621,89	86,378
622,09	85,310
622,29	85,297
622,48	84,811
622,68	84,528
622,88	83,565
623,08	82,713
623,28	81,855
623,48	81,555
623,68	80,527
623,88	78,630
624,08	77,499
624,28	76,937
624,48	75,143
624,67	73,903
624,87	72,655
625,07	70,538
625,27	69,757
625,47	68,741
625,67	66,977
625,87	65,427
626,07	64,346
626,27	62,433
626,47	61,417
626,66	60,131
626,86	58,743
627,06	57,324
627,26	56,103
627,46	54,543
627,66	53,759
627,86	52,789
628,06	51,100
628,25	50,517
628,45	48,903
628,65	48,364
628,85	47,243
629,05	46,274
629,25	44,985
629,45	43,345
629,65	42,558
629,84	41,465
630,04	39,999
630,24	38,562
630,44	37,649
630,64	35,771
630,84	34,530
631,04	33,395
631,23	32,020
631,43	29,477
631,63	28,218
631,83	27,018
632,03	24,909
632,23	23,127
632,42	21,914
632,62	19,979
632,82	18,120
633,02	15,940
633,22	14,861
633,42	13,209
633,62	11,891
633,81	10,617
634,01	9,352
634,21	8,339
634,41	7,751
634,61	6,501
634,80	5,823
635,00	4,709
635,20	4,139
635,40	3,843
635,60	3,290
635,80	2,804
635,99	2,604
636,19	2,161
636,39	1,694
636,59	1,550
636,79	1,121
636,98	1,129
637,18	1,226
637,38	1,005
637,58	0,840
637,78	0,485
637,97	0,631
638,17	0,654
638,37	0,373
638,57	0,743
638,77	0,505
638,96	0,478
639,16	0,289
639,36	0,312
639,56	0,562
639,76	0,186
639,95	0,406
640,15	0,327
640,35	0,399
640,55	0,259
640,75	0,407
640,94	0,398
641,14	0,357
641,34	-0,049
641,54	0,260
641,73	0,607
641,93	0,410
642,13	0,252
642,33	0,192
642,53	0,090
642,72	0,237
642,92	0,455
643,12	0,260
643,32	0,301
643,51	0,171
643,71	0,124
643,91	0,259
644,11	0,584
644,30	-0,014
644,50	0,409
644,70	0,342
644,90	0,035
645,09	0,235
645,29	0,111
645,49	0,415
645,69	0,275
645,88	-0,143
646,08	0,285
646,28	0,007
646,48	0,401
646,67	0,116
646,87	0,124
647,07	0,550
647,26	0,045
647,46	0,312
647,66	-0,157
647,86	0,037
648,05	0,348
648,25	0,482
648,45	-0,022
648,65	0,168
648,84	0,038
649,04	-0,212
649,24	-0,008
649,43	-0,023
649,63	0,255
649,83	0,055
650,03	0,158
650,22	0,414
650,42	0,118
650,62	0,195
650,81	0,506
651,01	-0,151
651,21	0,243
651,40	0,095
651,60	-0,233
651,80	0,177
652,00	-0,081
652,19	0,056
652,39	0,138
652,59	0,488
652,78	0,614
652,98	0,105
653,18	0,303
653,37	0,163
653,57	0,303
653,77	0,479
653,96	0,000
654,16	0,446
654,36	0,190
654,55	0,341
654,75	0,343
654,95	0,384
655,14	-0,167
655,34	0,085
655,54	0,227
655,73	-0,085
655,93	0,608
656,13	0,093
656,32	0,231
656,52	0,112
656,72	-0,156
656,91	-0,299
657,11	0,076
657,31	-0,136
657,50	0,043
657,70	0,289
657,90	0,068
658,09	0,042
658,29	0,389
658,49	0,119
658,68	0,235
658,88	0,145
659,07	0,311
659,27	0,051
659,47	0,051
659,66	0,051
659,86	0,255
660,06	-0,042
660,25	-0,144
660,45	0,200
660,64	0,353
660,84	0,320
661,04	0,494
661,23	0,209
661,43	0,134
661,63	0,486
661,82	0,143
662,02	-0,109
662,21	0,100
662,41	-0,067
662,61	0,298
662,80	0,210
663,00	-0,480
663,19	0,118
663,39	0,184
663,59	0,361
663,78	0,033
663,98	0,008
664,17	-0,041
664,37	0,223
664,57	0,400
664,76	0,481
664,96	0,219
665,15	0,344
665,35	-0,065
665,55	0,193
665,74	-0,268
665,94	0,024
666,13	0,113
666,33	0,136
666,53	-0,159
666,72	-0,166
666,92	0,183
667,11	0,246
667,31	0,312
667,50	0,139
667,70	-0,365
667,90	0,116
668,09	0,194
668,29	0,116
668,48	0,167
668,68	-0,054
668,87	0,113
669,07	-0,114
669,26	-0,082
669,46	0,127
669,66	-0,120
669,85	0,143
670,05	0,022
670,24	0,357
670,44	0,197
670,63	0,203
670,83	0,145
671,02	0,022
671,22	0,500
671,42	0,149
671,61	-0,173
671,81	-0,094
672,00	-0,112
672,20	-0,014
672,39	0,373
672,59	0,021
672,78	-0,035
672,98	-0,138
673,17	0,027
673,37	0,164
673,56	0,175
673,76	0,318
673,95	0,154
674,15	-0,153
674,34	0,013
674,54	0,150
674,73	-0,168
674,93	0,136
675,13	0,141
675,32	0,064
675,52	0,108
675,71	-0,038
675,91	0,125
676,10	0,199
676,30	-0,012
676,49	0,123
676,69	-0,018
676,88	0,098
677,08	-0,222
677,27	-0,132
677,47	0,237
677,66	0,182
677,86	0,105
678,05	0,052
678,24	-0,203
678,44	-0,224
678,63	-0,011
678,83	-0,144
679,02	0,277
679,22	0,157
679,41	0,226
679,61	0,379
679,80	0,148
680,00	-0,043
680,19	-0,108
680,39	-0,016
680,58	-0,111
680,78	-0,127
680,97	-0,032
681,17	-0,268
681,36	0,233
681,56	-0,010
681,75	0,146
681,94	-0,025
682,14	0,025
682,33	0,336
682,53	0,088
682,72	0,180
682,92	0,014
683,11	0,024
683,31	0,009
683,50	0,128
683,69	-0,144
683,89	0,079
684,08	-0,102
684,28	0,082
684,47	-0,150
684,67	-0,221
684,86	-0,049
685,06	0,018
685,25	-0,031
685,44	0,127
685,64	0,151
685,83	-0,190
686,03	0,000
686,22	0,093
686,42	-0,109
686,61	0,184
686,80	0,200
687,00	-0,082
687,19	0,253
687,39	-0,029
687,58	-0,036
687,77	0,117
687,97	0,060
688,16	-0,060
688,36	0,146
688,55	0,032
688,74	-0,039
688,94	0,058
689,13	0,046
689,33	-0,027
689,52	-0,262
689,71	0,041
689,91	-0,208
690,10	0,264
690,30	-0,026
690,49	0,029
690,68	0,011
690,88	0,029
691,07	-0,154
691,27	0,162
691,46	0,144
691,65	0,097
691,85	-0,039
692,04	-0,051
692,23	-0,183
692,43	0,018
692,62	0,155
692,82	0,022
693,01	0,032
693,20	-0,113
693,40	0,040
693,59	-0,062
693,78	-0,048
693,98	-0,111
694,17	-0,041
694,36	0,011
694,56	-0,169
694,75	0,090
694,94	0,106
695,14	0,008
695,33	-0,052
695,53	-0,279
695,72	-0,029
695,91	-0,025
696,11	0,009
696,30	-0,009
696,49	-0,013
696,69	0,180
696,88	0,113
697,07	0,213
697,27	0,074
697,46	0,137
697,65	-0,135
697,85	-0,101
698,04	0,060
698,23	-0,425
698,43	0,394
698,62	-0,018
698,81	0,332
699,01	-0,262
699,20	0,285
699,39	-0,080
699,58	0,124
699,78	0,327
699,97	-0,007
700,16	-0,204
700,36	-0,175
700,55	0,321
700,74	-0,109
700,94	0,111
701,13	-0,150
701,32	0,271
701,52	0,247
701,71	0,410
701,90	-0,088
702,09	-0,123
702,29	0,637
702,48	-0,439
702,67	0,681
702,87	0,116
703,06	-0,490
703,25	0,000
703,44	0,333
703,64	-0,039
703,83	0,858
704,02	-0,369
704,22	0,269
704,41	0,759
704,60	0,289
704,79	0,455
704,99	0,822
705,18	0,192
705,37	1,104
705,56	0,594
705,76	1,247
705,95	-0,036
706,14	0,602
706,33	0,723
706,53	0,491
706,72	0,937
706,91	0,557
707,11	-0,281
707,30	0,592
707,49	0,946
707,68	1,556
707,88	-0,638
708,07	0,139
708,26	0,915
708,45	0,956
708,64	0,902
708,84	0,751
709,03	-0,078
709,22	1,241
709,41	1,159
709,61	0,362
709,80	0,531
709,99	0,685
710,18	0,981
710,38	1,022
710,57	0,867
710,76	1,086
710,95	1,276
711,14	1,194
711,34	0,542
711,53	-1,245
711,72	1,769
711,91	0,994
712,11	1,730
712,30	2,447
712,49	0,999
712,68	1,120
712,87	0,352
713,07	2,359
713,26	0,363
713,45	0,866
713,64	0,205
713,83	1,579
714,03	0,816
714,22	-0,741
714,41	0,268
714,60	0,234
714,79	0,483
714,99	1,878
715,18	-1,740
715,37	1,308
715,56	-1,429
715,75	-0,520
715,94	0,916
716,14	-0,433
716,33	-0,518
716,52	1,352
716,71	1,030
716,90	-1,688
717,10	2,762
717,29	3,139
717,48	1,531
717,67	0,791
717,86	0,973
718,05	2,650
718,24	0,983
718,44	3,849
718,63	0,608
718,82	1,759
719,01	1,659
719,20	-0,541
719,39	3,520
719,59	0,887
719,78	-0,138
719,97	3,690
720,16	0,140
720,35	1,565
720,54	2,755
720,73	-0,271
720,93	1,114
721,12	-2,017
721,31	3,280
721,50	2,486
721,69	1,856
721,88	2,339
722,07	4,701
722,27	-2,570
722,46	-0,993
722,65	0,076
722,84	1,342
723,03	2,114
723,22	3,171
723,41	1,935
723,60	-0,505
723,79	0,917
723,99	2,597
724,18	0,439
724,37	0,975
724,56	1,831
724,75	-0,446
724,94	2,313
725,13	2,562
725,32	3,156
725,51	1,613
725,71	2,976
725,90	0,093
726,09	5,608
726,28	5,085
726,47	2,390
726,66	2,142
726,85	0,779
727,04	6,354
727,23	2,832
727,42	0,797
727,61	3,534
727,81	4,442
728,00	3,811
728,19	1,905
728,38	1,389
728,57	1,613
728,76	5,036
728,95	-0,546
729,14	-0,322
729,33	0,554
729,52	2,049
729,71	1,397
729,90	0,233
730,09	5,325
730,28	2,364
730,48	4,722
730,67	2,588
730,86	0,923
731,05	-3,067
731,24	4,240
731,43	6,421
731,62	3,704
731,81	1,487
732,00	4,234
732,19	6,266
732,38	1,697
732,57	1,382
732,76	-10,896
732,95	6,290
733,14	7,841
733,33	4,167
733,52	2,710
733,71	3,457
733,90	0,830
734,09	3,204
734,28	2,493
734,47	3,529
734,66	3,086
734,85	3,526
735,04	4,304
735,23	3,324
735,42	-1,986
735,61	4,155
735,81	3,125
736,00	1,203
736,19	5,247
736,38	-4,962
736,57	5,696
736,76	-1,620
736,95	4,466
737,14	5,982
737,33	-2,336
737,52	-3,647
737,71	5,793
737,90	7,508
738,09	0,690
738,28	3,571
738,47	0,482
738,66	6,780
738,85	-1,575
739,04	9,340
739,22	-3,431
739,41	-5,934
739,60	5,027
739,79	4,440
739,98	8,286
740,17	9,459
740,36	4,167
740,55	11,293
740,74	-4,089
740,93	8,769
741,12	6,228
741,31	-2,045
741,50	6,446
741,69	3,142
741,88	7,356
742,07	2,120
742,26	-4,207
742,45	7,428
742,64	6,122
742,83	-1,758
743,02	2,008
743,21	1,354
743,40	9,770
743,59	5,108
743,78	5,063
743,97	9,488
744,16	-1,293
744,34	-1,033
744,53	6,250
744,72	3,185
744,91	11,088
745,10	4,368
745,29	3,052
745,48	-0,437
745,67	0,889
745,86	11,826
746,05	6,935
746,24	10,129
746,43	13,152
746,62	4,734
746,81	4,265
747,00	7,292
747,18	4,091
747,37	4,773
747,56	17,620
747,75	3,836
747,94	5,808
748,13	13,785
748,32	9,756
748,51	5,621
748,70	8,873
748,89	6,452
749,08	5,419
749,26	-7,733
749,45	10,539
749,64	3,101
749,83	7,371
750,02	9,115
750,21	9,375
750,40	7,916
750,59	3,989
750,78	15,422
750,96	18,953
751,15	13,673
751,34	22,113
751,53	6,944
751,72	24,129
751,91	9,449
752,10	11,831
752,29	8,696
752,47	10,345
752,66	13,018
752,85	20,635
753,04	7,297
753,23	22,684
753,42	10,973
753,61	9,726
753,80	19,820
753,98	21,250
754,17	18,130
754,36	21,242
754,55	18,567
754,74	23,784
754,93	18,710
755,12	24,615
755,30	5,535
755,49	19,062
755,68	22,192
755,87	20,478
756,06	28,818
756,25	12,211
756,43	16,906
756,62	32,852
756,81	6,667
757,00	38,187
757,19	41,411
757,38	9,121
757,56	21,622
757,75	25,573
757,94	30,172
758,13	38,854
758,32	23,485
758,51	28,710
758,69	22,436
758,88	34,098
759,07	50,534
759,26	19,388
759,45	42,143
759,63	25,692
759,82	33,942
760,01	25,694
760,20	18,248
760,39	31,801
760,57	33,476
760,76	21,756
760,95	30,268
761,14	38,077
761,33	33,984
761,51	43,333
761,70	46,207
761,89	65,116
762,08	39,655
762,27	39,904
762,45	27,830
762,64	21,681
762,83	46,840
763,02	29,066
763,21	41,901
763,39	45,249
763,58	52,245
763,77	58,511
763,96	46,199
764,14	20,747
764,33	45,113
764,52	46,429
764,71	31,034
764,89	30,743
765,08	43,820
765,27	31,683
765,46	37,273
765,65	53,299
765,83	33,810
766,02	30,037
766,21	35,021
766,40	37,209
766,58	33,032
766,77	35,028
766,96	42,564
767,15	59,420
767,33	38,942
767,52	36,493
767,71	40,000
767,90	42,083
768,08	35,622
768,27	46,977
768,46	32,381
768,64	38,835
768,83	49,730
769,02	26,667
769,21	19,792
769,39	42,953
769,58	39,500
769,77	22,283
769,96	41,722
770,14	41,221
770,33	48,663
770,52	51,282
770,70	44,059
770,89	37,245
771,08	31,771
771,27	18,041
771,45	49,711
771,64	58,553
771,83	61,290
772,01	29,008
772,20	45,960
772,39	24,841
772,57	60,938
772,76	52,414
772,95	32,487
773,14	41,860
773,32	30,769
773,51	32,558
773,70	36,424
773,88	28,141
774,07	43,096
774,26	40,854
774,44	50,754
774,63	50,633
774,82	40,964
775,00	27,074
775,19	36,207
775,38	-2,000
775,56	29,268
775,75	16,168
775,94	26,866
776,12	40,833
776,31	34,731
776,50	56,364
776,68	44,444
776,87	27,273
777,06	8,219
777,24	-10,656
777,43	17,073
777,62	45,926
777,80	40,761
777,99	45,223
778,18	49,045
778,36	16,794
778,55	54,074
778,74	1,515
778,92	56,109
779,11	55,484
779,29	26,797
779,48	34,711
779,67	41,727
779,85	44,000
780,04	30,282
780,23	32,867
780,41	5,882
780,60	22,222
780,79	47,917
780,97	48,571
781,16	63,200
781,34	33,333
781,53	30,128
781,72	66,667
781,90	79,808
782,09	35,246
782,28	11,382
782,46	30,894
782,65	45,455
782,83	1,527
783,02	46,400
783,21	53,488
783,39	37,179
783,58	26,667
783,76	43,243
783,95	47,020
784,14	57,895
784,32	11,927
784,51	46,067
784,69	38,217
784,88	30,323
785,06	48,227
785,25	12,030
785,44	46,622
785,62	52,143
785,81	16,418
785,99	24,490
786,18	35,246
786,37	76,552
786,55	17,164
786,74	50,932
786,92	18,605
787,11	28,000
787,29	4,706
787,48	32,000
787,67	2,041
787,85	45,313
788,04	45,205
788,22	18,519
788,41	57,237
788,59	63,265
788,78	40,972
788,96	79,048
789,15	23,770
789,34	64,634
789,52	34,328
789,71	-11,111
789,89	59,649
790,08	27,451
790,26	34,921
790,45	66,423
790,63	8,553
790,82	31,452
791,00	49,206
791,19	42,143
791,38	23,973
791,56	31,579
791,75	68,919
791,93	41,176
792,12	14,394
792,30	36,842
792,49	-10,280
792,67	50,714
792,86	-36,486
793,04	28,571
793,23	55,263
793,41	40,645
793,60	50,633
793,78	39,597
793,97	43,103
794,15	33,987
794,34	51,020
794,52	31,783
794,71	65,432
794,89	30,000
795,08	33,333
795,26	47,000
795,45	35,106
795,63	25,786
795,82	66,387
796,00	7,692
796,19	48,052
796,37	65,254
796,56	59,259
796,74	53,125
796,93	26,050
797,11	30,833
797,30	84,733
797,48	34,266
797,67	55,645
797,85	55,072
798,04	40,541
798,22	52,518
798,41	94,915
798,59	55,000
798,77	80,342
798,96	23,387
799,14	58,333
799,33	46,018
799,51	35,644
799,70	52,747
799,88	49,541
800,07	20,863
800,25	37,405
800,44	63,366
800,62	53,237
800,80	59,091
800,99	43,590
801,17	73,793
801,36	28,125
801,54	72,093
801,73	56,818
801,91	55,056
802,10	58,824
802,28	36,220
802,46	44,355
802,65	52,980
802,83	39,669
803,02	71,429
803,20	99,153
803,39	53,211
803,57	48,592
803,75	62,857
803,94	71,622
804,12	42,236
804,31	66,346
804,49	58,710
804,67	8,108
804,86	72,050
805,04	63,566
805,23	66,423
805,41	42,157
805,59	44,578
805,78	60,714
805,96	68,675
806,15	64,800
806,33	32,847
806,51	66,667
806,70	51,163
806,88	85,455
807,07	79,508
807,25	37,391
807,43	11,111
807,62	59,375
807,80	52,439
807,99	61,871
808,17	52,778
808,35	62,264
808,54	55,307
808,72	41,667
808,90	67,480
809,09	66,423
809,27	70,874
809,46	46,729
809,64	63,584
809,82	47,586
810,01	58,602
810,19	46,364
810,37	84,091
810,56	51,656
810,74	84,906
810,92	58,451
811,11	46,012
811,29	58,385
811,48	75,652
811,66	39,086
811,84	60,169
812,03	47,973
812,21	76,364
812,39	67,742
812,58	71,345
812,76	79,562
812,94	61,745
813,13	48,780
813,31	58,730
813,49	60,000
813,68	57,377
813,86	44,872
814,04	81,081
814,23	10,000
814,41	53,425
814,59	56,863
814,78	25,503
814,96	30,726
815,14	68,844
815,33	67,769
815,51	59,055
815,69	23,664
815,87	40,645
816,06	69,652
816,24	37,255
816,42	30,952
816,61	55,556
816,79	50,867
816,97	47,436
817,16	27,976
817,34	54,706
817,52	48,131
817,70	31,606
817,89	38,756
818,07	46,667
818,25	40,506
818,44	31,016
818,62	53,960
818,80	31,868
818,98	12,821
819,17	47,458
819,35	40,940
819,53	36,923
819,72	23,784
819,90	55,556
820,08	41,584
820,26	38,356
820,45	16,129
820,63	38,012
820,81	38,073
820,99	54,585
821,18	42,771
821,36	38,750
821,54	41,294
821,73	55,738
821,91	39,437
822,09	21,302
822,27	27,237
822,46	34,483
822,64	34,737
822,82	34,518
823,00	54,974
823,19	49,048
823,37	44,872
823,55	43,460
823,73	34,270
823,91	11,230
824,10	36,979
824,28	36,364
824,46	-19,079
824,64	38,376
824,83	36,493
825,01	34,706
825,19	33,188
825,37	26,471
825,56	32,061
825,74	43,290
825,92	45,136
826,10	37,004
826,28	39,483
826,47	55,642
826,65	43,525
826,83	36,404
827,01	48,425
827,19	34,496
827,38	41,199
827,56	52,500
827,74	17,536
827,92	37,561
828,10	32,986
828,29	23,985
828,47	32,482
828,65	50,000
828,83	52,743
829,01	35,135
829,20	40,385
829,38	38,115
829,56	45,118
829,74	48,462
829,92	32,794
830,10	52,361
830,29	45,594
830,47	40,672
830,65	27,197
830,83	37,075
831,01	28,251
831,20	27,737
831,38	32,899
831,56	34,035
831,74	41,356
831,92	38,095
832,10	43,038
832,29	43,816
832,47	37,589
832,65	37,705
832,83	39,873
833,01	16,918
833,19	38,068
833,37	33,739
833,56	48,512
833,74	34,426
833,92	39,865
834,10	31,627
834,28	39,373
834,46	37,572
834,64	54,400
834,83	29,745
835,01	36,554
835,19	39,362
835,37	50,847
835,55	47,592
835,73	32,768
835,91	33,038
836,09	39,803
836,28	36,280
836,46	33,333
836,64	37,533
836,82	43,132
837,00	36,102
837,18	48,333
837,36	34,897
837,54	30,328
837,72	38,987
837,91	42,776
838,09	44,848
838,27	33,938
838,45	51,507
838,63	34,648
838,81	29,179
838,99	32,626
839,17	40,683
839,35	45,372
839,53	44,133
839,72	53,297
839,90	34,444
840,08	29,412
840,26	33,071
840,44	29,008
840,62	27,763
840,80	46,374
840,98	36,242
841,16	42,391
841,34	33,769
841,52	26,739
841,70	36,725
841,89	37,813
842,07	43,448
842,25	37,736
842,43	43,552
842,61	51,064
842,79	46,259
842,97	31,808
843,15	35,491
843,33	38,683
843,51	40,435
843,69	35,352
843,87	47,379
844,05	36,501
844,23	35,551
844,41	45,726
844,59	46,058
844,77	36,082
844,95	52,165
845,13	44,000
845,31	41,454
845,50	50,518
845,68	55,675
845,86	38,821
846,04	42,004
846,22	40,000
846,40	49,793
846,58	49,004
846,76	62,069
846,94	44,135
847,12	49,231
847,30	37,336
847,48	51,548
847,66	49,177
847,84	44,876
848,02	39,522
848,20	57,250
848,38	45,536
848,56	46,679
848,74	48,998
848,92	49,828
849,10	54,930
849,28	44,409
849,46	47,320
849,64	48,062
849,82	56,869
850,00	53,963
850,18	37,242
850,36	42,715
850,54	53,035
850,72	44,081
850,90	50,544
851,08	46,299
851,26	42,395
851,44	54,120
851,62	59,027
851,80	46,084
851,98	43,137
852,16	49,178
852,34	51,408
852,52	50,296
852,70	50,653
852,87	39,447
853,05	45,272
853,23	45,870
853,41	55,775
853,59	49,928
853,77	49,273
853,95	46,608
854,13	45,881
854,31	40,431
854,49	48,383
854,67	43,460
854,85	43,261
855,03	49,114
855,21	42,857
855,39	45,124
855,57	44,818
855,75	46,614
855,93	38,764
856,11	46,563
856,28	43,808
856,46	45,000
856,64	44,156
856,82	48,708
857,00	49,112
857,18	48,344
857,36	41,791
857,54	44,945
857,72	46,792
857,90	41,533
858,08	41,927
858,26	37,812
858,44	38,590
858,61	44,520
858,79	46,246
858,97	42,252
859,15	40,414
859,33	45,497
859,51	42,775
859,69	45,227
859,87	41,717
860,05	36,285
860,23	36,498
860,40	36,831
860,58	37,847
860,76	42,391
860,94	33,974
861,12	39,814
861,30	39,875
861,48	39,504
861,66	39,770
861,84	38,203
862,01	43,343
862,19	36,992
862,37	39,545
862,55	39,676
862,73	38,946
862,91	40,913
863,09	35,524
863,27	40,041
863,44	37,764
863,62	39,366
863,80	40,585
863,98	36,464
864,16	36,882
864,34	39,721
864,52	42,158
864,69	42,871
864,87	39,694
865,05	36,679
865,23	43,030
865,41	36,706
865,59	34,612
865,76	36,687
865,94	36,832
866,12	36,435
866,30	41,073
866,48	39,327
866,66	37,739
866,83	38,132
867,01	41,924
867,19	37,510
867,37	41,810
867,55	37,670
867,73	35,768
867,90	38,293
868,08	41,903
868,26	40,069
868,44	39,130
868,62	43,245
868,79	37,437
868,97	36,620
869,15	33,249
869,33	35,056
869,51	38,286
869,69	34,730
869,86	36,600
870,04	39,724
870,22	34,587
870,40	39,214
870,57	34,683
870,75	35,616
870,93	35,042
871,11	32,617
871,29	28,305
871,46	29,538
871,64	36,659
871,82	31,222
872,00	32,681
872,18	31,407
872,35	30,707
872,53	32,325
872,71	27,234
872,89	27,500
873,06	31,232
873,24	29,536
873,42	28,660
873,60	31,924
873,77	28,967
873,95	27,766
874,13	29,015
874,31	29,967
874,49	25,995
874,66	31,586
874,84	28,543
875,02	30,051
875,20	29,504
875,37	28,599
875,55	27,178
875,73	28,378
875,91	27,357
876,08	28,033
876,26	27,946
876,44	30,216
876,61	30,018
876,79	28,946
876,97	25,976
877,15	32,072
877,32	25,536
877,50	29,134
877,68	31,876
877,86	28,164
878,03	28,446
878,21	28,710
878,39	30,345
878,56	31,011
878,74	32,379
878,92	29,318
879,10	33,907
879,27	34,868
879,45	34,051
879,63	31,462
879,80	30,983
879,98	29,310
880,16	33,780
880,34	35,654
880,51	36,301
880,69	35,489
880,87	37,526
881,04	33,958
881,22	36,307
881,40	32,917
881,57	34,486
881,75	37,703
881,93	34,646
882,10	39,334
882,28	35,033
882,46	35,261
882,63	40,674
882,81	38,646
882,99	35,490
883,16	38,982
883,34	38,851
883,52	40,028
883,69	40,401
883,87	39,948
884,05	37,631
884,22	39,305
884,40	40,331
884,58	35,040
884,75	39,783
884,93	39,142
885,11	39,105
885,28	41,862
885,46	38,308
885,64	38,093
885,81	37,848
885,99	37,700
886,17	38,185
886,34	41,298
886,52	40,570
886,70	39,843
886,87	40,590
887,05	40,216
887,22	37,234
887,40	41,472
887,58	38,951
887,75	38,943
887,93	38,500
888,11	38,840
888,28	38,249
888,46	38,450
888,63	38,152
888,81	36,852
888,99	38,778
889,16	37,244
889,34	37,478
889,51	37,983
889,69	36,376
889,87	37,057
890,04	35,423
890,22	37,050
890,39	35,507
890,57	38,733
890,75	36,205
890,92	36,547
891,10	33,741
891,27	37,089
891,45	35,120
891,63	35,994
891,80	34,669
891,98	36,114
892,15	35,780
892,33	35,881
892,51	33,723
892,68	35,519
892,86	37,902
893,03	35,101
893,21	36,812
893,38	35,601
893,56	36,488
893,74	37,955
893,91	34,428
894,09	36,488
894,26	35,616
894,44	37,005
894,61	37,567
894,79	36,621
894,96	35,253
895,14	35,355
895,32	35,504
895,49	36,885
895,67	36,569
895,84	36,443
896,02	36,329
896,19	36,029
896,37	35,467
896,54	36,502
896,72	33,776
896,89	35,430
897,07	34,016
897,25	35,575
897,42	34,977
897,60	36,424
897,77	33,817
897,95	33,528
898,12	34,612
898,30	35,591
898,47	32,655
898,65	34,159
898,82	34,371
899,00	34,826
899,17	33,306
899,35	32,424
899,52	33,707
899,70	34,276
899,87	32,841
900,05	34,358
900,22	34,173
900,40	31,084
900,57	29,580
900,75	31,175
900,92	31,596
901,10	34,264
901,27	31,912
901,45	32,394
901,62	31,003
901,80	32,435
901,97	32,893
902,15	32,829
902,32	32,879
902,50	32,895
902,67	32,382
902,85	33,541
903,02	33,400
903,20	33,030
903,37	31,760
903,54	32,041
903,72	31,712
903,89	31,867
904,07	32,662
904,24	34,935
904,42	33,016
904,59	33,548
904,77	34,080
904,94	34,480
905,12	34,629
905,29	32,925
905,47	35,688
905,64	33,662
905,81	35,917
905,99	35,314
906,16	35,404
906,34	36,141
906,51	35,867
906,69	35,433
906,86	37,446
907,03	35,835
907,21	35,013
907,38	34,392
907,56	31,753
907,73	36,299
907,91	34,630
908,08	34,024
908,25	34,806
908,43	35,642
908,60	34,636
908,78	34,667
908,95	35,378
909,13	34,742
909,30	35,530
909,47	34,974
909,65	35,471
909,82	34,920
910,00	33,776
910,17	34,547
910,34	34,586
910,52	32,265
910,69	32,579
910,87	34,261
911,04	32,418
911,21	33,319
911,39	34,271
911,56	33,130
911,73	31,666
911,91	31,725
912,08	31,137
912,26	33,298
912,43	33,291
912,60	32,276
912,78	32,670
912,95	31,880
913,13	31,450
913,30	29,225
913,47	31,111
913,65	31,371
913,82	30,919
913,99	29,777
914,17	30,960
914,34	29,766
914,51	30,016
914,69	30,191
914,86	27,645
915,03	28,917
915,21	29,962
915,38	29,497
915,56	30,106
915,73	30,912
915,90	29,163
916,08	30,124
916,25	29,980
916,42	30,545
916,60	29,826
916,77	31,174
916,94	30,104
917,12	29,967
917,29	30,233
917,46	31,160
917,64	29,266
917,81	30,067
917,98	28,561
918,16	29,735
918,33	30,157
918,50	29,463
918,67	29,821
918,85	29,842
919,02	30,217
919,19	30,108
919,37	29,402
919,54	29,064
919,71	30,065
919,89	30,675
920,06	31,083
920,23	31,326
920,41	31,120
920,58	29,770
920,75	31,435
920,92	30,585
921,10	30,386
921,27	31,256
921,44	30,415
921,62	31,434
921,79	31,633
921,96	32,489
922,13	30,608
922,31	32,122
922,48	31,153
922,65	31,866
922,82	30,181
923,00	31,155
923,17	32,086
923,34	31,432
923,52	31,463
923,69	31,905
923,86	32,417
924,03	31,564
924,21	31,890
924,38	33,152
924,55	34,484
924,72	33,668
924,90	32,583
925,07	34,389
925,24	32,967
925,41	32,979
925,59	33,814
925,76	33,732
925,93	34,346
926,10	33,526
926,28	33,952
926,45	34,072
926,62	34,834
926,79	34,122
926,96	34,176
927,14	34,334
927,31	34,109
927,48	35,159
927,65	35,479
927,83	34,735
928,00	34,041
928,17	33,535
928,34	34,746
928,51	35,078
928,69	34,213
928,86	35,676
929,03	36,347
929,20	35,249
929,37	35,333
929,55	35,673
929,72	35,077
929,89	37,224
930,06	36,884
930,23	36,440
930,41	36,955
930,58	37,492
930,75	35,547
930,92	37,895
931,09	36,976
931,27	36,491
931,44	37,630
931,61	37,142
931,78	37,149
931,95	38,679
932,12	35,362
932,30	37,837
932,47	36,907
932,64	37,065
932,81	38,343
932,98	38,315
933,16	38,496
933,33	38,110
933,50	38,745
933,67	38,364
933,84	39,179
934,01	39,330
934,18	39,439
934,36	38,318
934,53	38,866
934,70	40,153
934,87	38,663
935,04	40,236
935,21	38,920
935,38	40,235
935,56	39,133
935,73	40,262
935,90	39,423
936,07	39,726
936,24	39,291
936,41	39,281
936,58	39,064
936,76	39,643
936,93	39,830
937,10	38,886
937,27	39,757
937,44	41,645
937,61	41,340
937,78	39,052
937,95	40,415
938,13	41,805
938,30	39,465
938,47	40,325
938,64	40,187
938,81	41,352
938,98	41,487
939,15	40,430
939,32	42,629
939,49	42,319
939,66	40,555
939,84	41,231
940,01	42,095
940,18	41,529
940,35	40,310
940,52	41,296
940,69	41,220
940,86	41,241
941,03	42,452
941,20	41,795
941,37	40,896
941,54	40,898
941,71	40,095
941,89	40,635
942,06	40,249
942,23	41,510
942,40	39,779
942,57	41,687
942,74	41,258
942,91	40,704
943,08	41,552
943,25	40,278
943,42	40,454
943,59	39,359
943,76	40,904
943,93	39,718
944,10	40,898
944,27	41,352
944,44	39,888
944,61	40,237
944,79	39,757
944,96	38,852
945,13	40,351
945,30	38,922
945,47	38,430
945,64	38,826
945,81	38,845
945,98	39,732
946,15	39,293
946,32	38,564
946,49	39,371
946,66	39,202
946,83	39,073
947,00	38,812
947,17	39,223
947,34	38,989
947,51	37,852
947,68	38,596
947,85	39,984
948,02	39,262
948,19	40,578
948,36	41,214
948,53	38,173
948,70	37,575
948,87	39,634
949,04	38,223
949,21	39,413
949,38	38,669
949,55	38,998
949,72	40,329
949,89	38,523
950,06	40,271
950,23	41,204
950,40	38,594
950,57	37,955
950,74	39,404
950,91	40,674
951,08	40,760
951,25	40,460
951,42	40,617
951,59	38,070
951,76	39,673
951,93	39,955
952,10	41,358
952,27	40,011
952,44	42,546
952,61	40,386
952,77	39,068
952,94	41,378
953,11	42,063
953,28	42,507
953,45	42,928
953,62	41,088
953,79	43,827
953,96	42,827
954,13	44,046
954,30	42,775
954,47	43,301
954,64	43,650
954,81	43,013
954,98	43,204
955,15	43,105
955,32	43,023
955,49	44,706
955,65	45,731
955,82	43,682
955,99	44,619
956,16	43,687
956,33	43,447
956,50	41,806
956,67	45,908
956,84	45,978
957,01	47,920
957,18	44,557
957,35	47,319
957,52	43,945
957,68	46,902
957,85	43,124
958,02	45,657
958,19	45,153
958,36	48,103
958,53	47,435
958,70	45,297
958,87	47,283
959,04	50,197
959,21	46,451
959,37	47,545
959,54	48,215
959,71	44,633
959,88	47,084
960,05	49,701
960,22	43,488
960,39	51,482
960,56	48,833
960,72	50,129
960,89	51,202
961,06	50,925
961,23	48,734
961,40	49,453
961,57	41,901
961,74	48,644
961,90	49,481
962,07	50,994
962,24	53,249
962,41	48,583
962,58	46,823
962,75	51,953
962,92	46,364
963,08	47,905
963,25	46,919
963,42	43,627
963,59	44,270
963,76	46,272
963,93	45,839
964,10	45,103
964,26	47,530
964,43	45,219
964,60	47,929
964,77	50,383
964,94	54,462
965,10	53,758
965,27	54,561
965,44	56,667
965,61	39,575
965,78	50,615
965,95	44,940
966,11	49,269
966,28	55,385
966,45	50,095
966,62	46,154
966,79	50,407
966,95	43,103
967,12	50,478
967,29	58,645
967,46	47,826
967,63	50,864
967,79	50,543
967,96	50,919
968,13	48,276
968,30	48,634
968,47	52,507
968,63	45,562
968,80	57,241
968,97	50,857
969,14	47,788
969,31	59,936
969,47	50,789
969,64	49,835
969,81	49,474
969,98	45,322
970,14	47,407
970,31	56,989
970,48	56,584
970,65	62,324
970,81	28,571
970,98	71,161
971,15	62,212
971,32	30,508
971,48	50,000
971,65	57,143
971,82	57,143
971,99	53,234
972,15	57,368
972,32	46,914
972,49	48,069
972,66	43,363
972,82	51,980
972,99	51,915
973,16	51,546
973,33	43,333
973,49	66,111
973,66	41,176
973,83	42,857
974,00	54,098
974,16	55,975
974,33	70,732
974,50	45,833
974,67	69,474
974,83	67,232
975,00	36,957
975,17	80,272
975,33	39,130
975,50	64,242
975,67	83,929
975,84	59,574
976,00	62,308
976,17	33,824
976,34	43,262
976,50	40,870
976,67	103,448
976,84	80,769
977,00	45,865
977,17	92,913
977,34	95,699
977,50	40,426
977,67	75,439
977,84	32,727
978,01	55,172
978,17	71,795
978,34	39,583
978,51	42,424
978,67	35,165
978,84	53,125
979,01	26,154
979,17	93,939
979,34	162,500
979,51	26,923
979,67	60,000
979,84	59,524
980,01	47,541
980,17	48,235
980,34	85,507
980,51	111,364
980,67	78,667
980,84	91,379
981,01	5,128
981,17	84,000
981,34	300,000
981,50	126,471
981,67	162,069
981,84	70,690
982,00	104,348
982,17	354,545
982,34	120,513
982,50	384,211
982,67	111,111
982,84	73,810
983,00	128,000
983,17	191,667
983,33	111,290
983,50	40,217
983,67	56,522
983,83	183,333
984,00	187,500
984,17	275,000
984,33	83,784
984,50	50,000
984,66	89,286
984,83	37,209
985,00	201,639
985,16	10,256
985,33	231,250
985,49	220,690
985,66	-45,455
985,83	71,930
985,99	93,694
986,16	244,000
986,32	113,043
986,49	308,333
986,66	11,628
986,82	63,158
986,99	133,333
987,15	65,517
987,32	81,481
987,49	197,222
987,65	450,000
987,82	-64,706
987,98	170,588
988,15	96,429
988,31	48,000
988,48	83,333
988,65	170,370
988,81	119,565
988,98	258,333
989,14	142,857
989,31	73,333
989,47	82,927
989,64	52,857
989,80	320,000
989,97	108,824
990,14	60,870
990,30	140,000
990,47	192,683
990,63	360,870
990,80	203,030
990,96	241,667
991,13	61,111
991,29	162,745
991,46	127,451
991,62	150,000
991,79	77,193
991,95	270,000
992,12	132,558
992,29	216,000
992,45	-107,692
992,62	-570,000
992,78	-40,741
992,95	194,444
993,11	100,000
993,28	74,074
993,44	313,043
993,61	566,667
993,77	620,000
993,94	197,674
994,10	238,095
994,27	232,000
994,43	197,059
994,60	-106,061
994,76	89,474
994,93	181,818
995,09	-59,459
995,26	83,951
995,42	50,847
995,59	264,286
995,75	212,500
995,92	227,273
996,08	79,167
996,25	311,111
996,41	68,750
996,58	86,486
996,74	350,000
996,91	88,889
997,07	188,462
997,23	212,766
997,40	1666,667
997,56	200,000
997,73	0,000
997,89	218,519
998,06	-39,216
998,22	2100,000
998,39	326,087
998,55	-137,500
998,72	345,000
998,88	1666,667
999,05	300,000
999,21	247,826
999,37	-4600,000
999,54	-1900,000
999,70	61,538
999,87	-56,250
1000,03	43,750
1000,20	-266,667
1000,36	2100,000
1000,52	277,778
1000,69	104,545
1000,85	172,414
1001,02	89,231
1001,18	115,909
1001,35	-142,222
1001,51	-407,143
1001,67	-0,000
1001,84	516,667
1002,00	112,500
1002,17	-18,182
1002,33	29,412
1002,50	155,556
1002,66	-800,000
1002,82	145,714
1002,99	-69,231
1003,15	139,130
1003,32	80,645
1003,48	220,000
1003,64	7,500
1003,81	42,857
1003,97	250,000
1004,14	1666,667
1004,30	-542,857
1004,46	1125,000
1004,63	78,947
1004,79	-146,667
1004,95	58,824
1005,12	-457,143
1005,28	279,310
1005,45	75,000
1005,61	-1900,000
1005,77	194,737
1005,94	229,032
1006,10	-2000,000
1006,26	41,071
1006,43	344,444
1006,59	-133,333
1006,76	-128,000
1006,92	500,000
1007,08	-190,000
1007,25	-55,556
1007,41	-400,000
1007,57	-43,750
1007,74	-56,522
1007,90	-1740,000
1008,06	154,286
1008,23	175,926
1008,39	1600,000
1008,55	-42,857
1008,72	356,250
1008,88	158,000
1009,04	200,000
1009,21	-88,235
1009,37	-125,000
1009,53	-157,895
1009,70	-269,231
1009,86	129,545
1010,02	530,769
1010,19	0,000
1010,35	200,000
1010,51	333,333
1010,68	675,000
1010,84	33,333
1011,00	160,000
1011,17	-720,000
1011,33	223,529
1011,49	93,750
1011,66	260,870
1011,82	15,094
1011,98	-63,636
1012,14	106,061
1012,31	-200,000
1012,47	900,000
1012,63	877,778
1012,80	128,000
1012,96	9,091
1013,12	116,279
1013,29	100,000
1013,45	82,222
1013,61	44,444
1013,77	33,333
1013,94	78,125
1014,10	-39,394
1014,26	50,000
1014,43	-87,879
1014,59	-500,000
1014,75	750,000
1014,91	433,333
1015,08	53,333
1015,24	-633,333
1015,40	-258,824
1015,56	216,667
1015,73	188,889
1015,89	57,143
1016,05	760,000
1016,21	-522,222
1016,38	860,000
1016,54	-338,462
1016,70	-118,519
1016,86	72,727
1017,03	125,641
1017,19	21,739
1017,35	-207,692
1017,51	154,286
1017,68	318,182
1017,84	4900,000
1018,00	342,857
1018,16	35,417
1018,33	85,714
1018,49	151,220
1018,65	-29,412
1018,81	-70,000
1018,97	-1000,000
1019,14	156,667
1019,30	193,750
1019,46	222,222
1019,62	200,000
1019,79	533,333
1019,95	54,167
1020,11	-914,286
1020,27	425,000
1020,43	-314,286
1020,60	-94,737
1020,76	33,333
1020,92	535,714
1021,08	7100,000
1021,24	300,000
1021,41	-11,765
1021,57	390,909
1021,73	-1550,000
1021,89	-285,714
1022,05	700,000
1022,21	138,462
1022,38	40,000
1022,54	1700,000
1022,70	-154,545
1022,86	1450,000
1023,02	-194,118
1023,19	22,222
1023,35	154,839
1023,51	42,857
1023,67	75,000
1023,83	1833,333
1023,99	200,000
1024,16	97,619
1024,32	52,000
1024,48	259,091
1024,64	111,111
1024,80	38,889
1024,96	155,172
1025,12	-185,714
1025,29	60,714
1025,45	155,556
1025,61	-1033,333
1025,77	-135,484
1025,93	-100,000
1026,09	104,878
1026,26	300,000
1026,42	-4,167
1026,58	-69,565
1026,74	275,000
1026,90	33,333
1027,06	25,641
1027,22	-65,217
1027,38	141,304
1027,55	966,667
1027,71	213,333
1027,87	-137,500
1028,03	-93,750
1028,19	-282,353
1028,35	-657,143
1028,51	116,000
1028,67	17,647
1028,83	162,222
1029,00	400,000
1029,16	151,351
1029,32	153,571
1029,48	-257,143
1029,64	-330,769
1029,80	59,091
1029,96	1033,333
1030,12	278,947
1030,28	1150,000
1030,44	840,000
1030,61	245,455
1030,77	-466,667
1030,93	-18,750
1031,09	875,000
1031,25	0,000
1031,41	160,000
1031,57	-950,000
1031,73	-2725,000
1031,89	-86,364
1032,05	-62,791
1032,21	-24,242
1032,37	94,643
1032,53	-175,862
1032,69	119,231
1032,86	-400,000
1033,02	-544,444
1033,18	183,333
1033,34	-900,000
1033,50	212,500
1033,66	-144,000
1033,82	377,778
1033,98	2000,000
1034,14	-92,857
1034,30	-320,000
1034,46	141,176
1034,62	115,385
1034,78	-182,609
1034,94	216,129
1035,10	-246,154
1035,26	722,222
1035,42	13,333
1035,58	200,000
1035,74	105,405
1035,90	381,250
1036,06	98,039
1036,22	166,667
1036,38	-0,000
1036,54	-12,500
1036,70	48,387
1036,86	65,000
1037,02	235,714
1037,18	-182,353
1037,34	722,222
1037,50	-720,000
1037,66	-2400,000
1037,82	71,429
1037,98	237,500
1038,14	-1100,000
1038,30	151,724
1038,46	-371,429
1038,62	544,444
1038,78	-528,571
1038,94	570,000
1039,10	168,000
1039,26	-37,500
1039,42	200,000
1039,58	-975,000
1039,74	1650,000
1039,90	50,000
1040,06	44,615
>>>>>End Processed Spectral Data<<<<<
