SpectraSuite Data File
++++++++++++++++++++++++++++++++++++
Date: Wed Feb 01 16:11:34 EET 2017
User: optolab
Dark Spectrum Present: Yes
Reference Spectrum Present: Yes
Number of Sampled Component Spectra: 1
Spectrometers: USB4C02475
Integration Time (usec): 100000 (USB4C02475)
Spectra Averaged: 1 (USB4C02475)
Boxcar Smoothing: 0 (USB4C02475)
Correct for Electrical Dark: No (USB4C02475)
Strobe/Lamp Enabled: No (USB4C02475)
Correct for Detector Non-linearity: No (USB4C02475)
Correct for Stray Light: No (USB4C02475)
Number of Pixels in Processed Spectrum: 3648
>>>>>Begin Processed Spectral Data<<<<<
344,91	4050,000
345,13	4050,000
345,35	4050,000
345,57	0,000
345,79	384,211
346,00	-1433,333
346,22	-2142,857
346,44	294,118
346,66	-537,500
346,87	-10600,000
347,09	318,182
347,31	-527,273
347,53	-310,256
347,74	224,615
347,96	566,667
348,18	778,947
348,40	345,161
348,61	1176,471
348,83	404,762
349,05	303,922
349,27	-4450,000
349,48	530,769
349,70	-365,517
349,92	445,161
350,14	290,566
350,35	278,000
350,57	3150,000
350,79	700,000
351,01	-1047,619
351,22	222,222
351,44	576,923
351,66	-296,000
351,87	-619,048
352,09	338,462
352,31	270,492
352,53	179,688
352,74	369,444
352,96	248,052
353,18	605,263
353,40	392,000
353,61	291,111
353,83	352,941
354,05	1118,182
354,26	2366,667
354,48	276,000
354,70	357,576
354,92	-237,931
355,13	211,111
355,35	325,000
355,57	645,833
355,78	196,386
356,00	-3125,000
356,22	511,538
356,44	7350,000
356,65	343,182
356,87	469,231
357,09	520,833
357,30	295,556
357,52	258,621
357,74	720,000
357,95	269,231
358,17	288,525
358,39	241,935
358,60	424,324
358,82	412,500
359,04	570,370
359,26	451,429
359,47	11000,000
359,69	227,500
359,91	366,667
360,12	590,476
360,34	579,167
360,56	-111,111
360,77	2900,000
360,99	766,667
361,21	236,000
361,42	5350,000
361,64	228,571
361,86	320,000
362,07	-538,710
362,29	190,667
362,51	-758,824
362,72	648,000
362,94	400,000
363,16	262,791
363,37	-1000,000
363,59	326,923
363,81	413,636
364,02	605,556
364,24	529,167
364,46	3866,667
364,67	936,364
364,89	2542,857
365,11	190,000
365,32	582,759
365,54	352,778
365,76	297,959
365,97	447,059
366,19	224,138
366,41	590,909
366,62	451,852
366,84	300,000
367,05	320,408
367,27	1983,333
367,49	-553,846
367,70	600,000
367,92	267,213
368,14	239,583
368,35	-10400,000
368,57	620,000
368,79	424,138
369,00	345,652
369,22	-1400,000
369,43	174,118
369,65	341,935
369,87	343,243
370,08	196,386
370,30	303,571
370,51	281,967
370,73	204,444
370,95	211,290
371,16	297,619
371,38	373,333
371,60	1712,500
371,81	215,625
372,03	1013,333
372,24	333,333
372,46	267,925
372,68	215,714
372,89	393,939
373,11	488,462
373,32	465,909
373,54	-1100,000
373,76	1007,692
373,97	1086,667
374,19	627,273
374,40	325,000
374,62	-3566,667
374,84	3625,000
375,05	367,857
375,27	338,000
375,48	-8000,000
375,70	178,667
375,92	210,714
376,13	325,000
376,35	272,603
376,56	1000,000
376,78	211,111
376,99	357,143
377,21	252,083
377,43	280,303
377,64	188,406
377,86	375,862
378,07	407,692
378,29	-1275,000
378,51	554,839
378,72	327,083
378,94	-1077,778
379,15	327,273
379,37	958,824
379,58	233,846
379,80	653,333
380,01	593,750
380,23	307,843
380,45	1960,000
380,66	4866,667
380,88	234,091
381,09	252,857
381,31	165,556
381,52	323,529
381,74	933,333
381,95	818,182
382,17	492,308
382,39	514,286
382,60	263,265
382,82	420,513
383,03	267,308
383,25	532,258
383,46	329,545
383,68	425,926
383,89	780,000
384,11	364,516
384,32	-4966,667
384,54	500,000
384,76	-2466,667
384,97	321,212
385,19	462,069
385,40	290,196
385,62	233,333
385,83	302,381
386,05	272,549
386,26	274,000
386,48	201,149
386,69	364,583
386,91	495,000
387,12	284,746
387,34	267,241
387,55	269,355
387,77	481,250
387,98	538,462
388,20	150,000
388,41	382,353
388,63	13800,000
388,84	234,426
389,06	357,143
389,27	678,947
389,49	350,000
389,70	255,102
389,92	420,000
390,13	275,510
390,35	282,353
390,56	216,667
390,78	570,370
390,99	1160,000
391,21	657,895
391,42	253,333
391,64	312,195
391,85	227,586
392,07	295,455
392,28	178,667
392,50	318,182
392,71	-1875,000
392,93	223,077
393,14	394,444
393,36	289,796
393,57	106,767
393,79	1311,111
394,00	282,979
394,22	205,479
394,43	239,759
394,65	281,395
394,86	1100,000
395,08	600,000
395,29	232,075
395,50	576,923
395,72	616,667
395,93	785,714
396,15	169,014
396,36	150,000
396,58	323,333
396,79	287,500
397,01	298,000
397,22	266,667
397,44	184,848
397,65	205,263
397,87	300,000
398,08	248,980
398,29	293,750
398,51	292,857
398,72	200,000
398,94	173,846
399,15	368,571
399,37	298,246
399,58	140,659
399,80	554,545
400,01	288,889
400,22	385,714
400,44	233,333
400,65	453,571
400,87	244,118
401,08	152,857
401,30	313,043
401,51	245,614
401,72	273,077
401,94	222,785
402,15	495,000
402,37	142,857
402,58	644,444
402,80	188,571
403,01	197,183
403,22	990,909
403,44	205,797
403,65	212,500
403,87	202,857
404,08	351,282
404,30	152,941
404,51	-4233,333
404,72	162,857
404,94	128,431
405,15	206,000
405,37	198,734
405,58	191,765
405,79	137,805
406,01	343,902
406,22	181,034
406,44	253,191
406,65	247,368
406,86	210,417
407,08	132,911
407,29	128,155
407,51	151,220
407,72	138,889
407,93	156,522
408,15	93,162
408,36	297,674
408,58	141,237
408,79	115,833
409,00	179,167
409,22	157,143
409,43	151,899
409,64	79,503
409,86	86,792
410,07	80,000
410,29	84,328
410,50	109,929
410,71	111,607
410,93	88,535
411,14	99,225
411,35	76,786
411,57	96,053
411,78	53,906
412,00	89,809
412,21	97,419
412,42	87,302
412,64	74,249
412,85	56,701
413,06	96,341
413,28	40,991
413,49	54,028
413,70	65,217
413,92	60,474
414,13	32,365
414,34	43,678
414,56	38,811
414,77	64,135
414,98	41,611
415,20	38,062
415,41	40,227
415,63	38,060
415,84	39,444
416,05	33,242
416,27	29,716
416,48	31,461
416,69	31,858
416,91	22,703
417,12	24,866
417,33	27,789
417,55	20,523
417,76	45,380
417,97	22,822
418,19	16,700
418,40	21,915
418,61	18,704
418,83	18,727
419,04	21,451
419,25	19,159
419,46	24,662
419,68	19,206
419,89	16,095
420,10	13,741
420,32	14,944
420,53	18,378
420,74	19,822
420,96	17,000
421,17	12,240
421,38	10,555
421,60	7,395
421,81	5,923
422,02	12,435
422,23	12,864
422,45	11,224
422,66	11,558
422,87	13,165
423,09	10,485
423,30	13,355
423,51	10,394
423,73	11,178
423,94	10,714
424,15	8,299
424,36	9,001
424,58	7,313
424,79	9,244
425,00	7,245
425,22	7,892
425,43	7,016
425,64	7,957
425,85	9,412
426,07	7,776
426,28	4,992
426,49	5,328
426,71	6,505
426,92	5,133
427,13	4,703
427,34	3,976
427,56	6,269
427,77	4,294
427,98	4,440
428,19	5,335
428,41	5,625
428,62	3,954
428,83	5,797
429,04	5,228
429,26	4,586
429,47	5,482
429,68	3,959
429,89	2,367
430,11	3,411
430,32	3,709
430,53	4,237
430,74	2,740
430,96	3,390
431,17	3,769
431,38	2,974
431,59	3,845
431,81	3,926
432,02	3,480
432,23	3,008
432,44	3,915
432,66	2,891
432,87	2,226
433,08	3,030
433,29	3,083
433,51	2,131
433,72	2,426
433,93	1,824
434,14	3,283
434,35	2,108
434,57	2,491
434,78	1,837
434,99	2,297
435,20	2,078
435,42	2,080
435,63	2,168
435,84	2,779
436,05	2,511
436,26	1,689
436,48	2,240
436,69	1,817
436,90	2,150
437,11	1,630
437,32	1,777
437,54	1,653
437,75	1,581
437,96	2,199
438,17	1,426
438,38	2,362
438,60	1,649
438,81	1,574
439,02	1,986
439,23	1,126
439,44	1,540
439,66	1,403
439,87	1,357
440,08	1,531
440,29	1,162
440,50	1,684
440,72	1,357
440,93	1,410
441,14	1,548
441,35	1,723
441,56	1,227
441,77	1,623
441,99	1,422
442,20	1,464
442,41	1,408
442,62	1,133
442,83	1,725
443,04	1,628
443,26	1,304
443,47	1,748
443,68	1,453
443,89	1,694
444,10	1,727
444,31	1,516
444,53	1,515
444,74	1,475
444,95	1,664
445,16	1,699
445,37	2,060
445,58	2,198
445,80	3,022
446,01	4,026
446,22	5,619
446,43	7,747
446,64	10,828
446,85	15,456
447,06	20,543
447,28	26,102
447,49	32,657
447,70	38,851
447,91	46,002
448,12	51,885
448,33	59,465
448,54	68,155
448,76	73,542
448,97	78,767
449,18	82,227
449,39	85,315
449,60	87,815
449,81	89,072
450,02	90,273
450,23	91,168
450,45	92,837
450,66	93,106
450,87	94,773
451,08	95,054
451,29	95,740
451,50	96,969
451,71	97,126
451,92	98,029
452,13	97,398
452,35	98,061
452,56	97,388
452,77	97,245
452,98	96,324
453,19	96,134
453,40	95,346
453,61	96,049
453,82	96,267
454,03	95,741
454,25	96,955
454,46	96,458
454,67	95,796
454,88	97,675
455,09	98,325
455,30	97,548
455,51	98,485
455,72	98,932
455,93	97,609
456,14	96,489
456,35	99,268
456,56	98,460
456,78	98,137
456,99	98,890
457,20	99,027
457,41	97,293
457,62	97,298
457,83	97,015
458,04	97,647
458,25	96,957
458,46	96,548
458,67	94,993
458,88	96,372
459,09	95,496
459,30	95,233
459,51	95,025
459,73	95,938
459,94	96,147
460,15	95,083
460,36	95,592
460,57	95,912
460,78	95,817
460,99	96,075
461,20	95,943
461,41	96,055
461,62	95,078
461,83	95,542
462,04	94,533
462,25	94,920
462,46	93,153
462,67	93,215
462,88	91,857
463,09	91,467
463,30	91,893
463,51	92,160
463,72	90,342
463,93	90,570
464,15	90,904
464,36	91,312
464,57	92,701
464,78	93,185
464,99	92,642
465,20	93,691
465,41	94,065
465,62	93,788
465,83	94,401
466,04	94,995
466,25	94,548
466,46	96,049
466,67	95,927
466,88	95,944
467,09	95,369
467,30	95,398
467,51	94,938
467,72	95,314
467,93	93,634
468,14	93,889
468,35	92,177
468,56	92,433
468,77	92,057
468,98	93,052
469,19	93,459
469,40	94,750
469,61	94,738
469,82	94,457
470,03	95,836
470,24	96,147
470,45	95,712
470,66	95,143
470,87	96,429
471,08	95,759
471,29	96,353
471,50	95,374
471,71	93,481
471,92	93,601
472,13	95,389
472,34	94,241
472,55	95,531
472,76	95,235
472,97	95,652
473,18	96,219
473,39	96,036
473,60	96,640
473,81	97,809
474,01	97,130
474,22	97,940
474,43	96,993
474,64	96,256
474,85	93,540
475,06	93,013
475,27	93,598
475,48	92,091
475,69	91,463
475,90	90,462
476,11	89,101
476,32	87,415
476,53	83,361
476,74	77,342
476,95	71,157
477,16	61,662
477,37	51,319
477,58	41,749
477,79	31,960
478,00	23,543
478,21	16,783
478,41	11,509
478,62	7,597
478,83	5,522
479,04	3,979
479,25	2,575
479,46	1,992
479,67	2,035
479,88	1,682
480,09	1,058
480,30	1,240
480,51	1,161
480,72	1,088
480,93	1,096
481,14	0,833
481,34	1,038
481,55	0,740
481,76	0,911
481,97	0,979
482,18	0,678
482,39	1,029
482,60	1,086
482,81	1,096
483,02	0,794
483,23	1,022
483,44	0,929
483,65	0,840
483,85	0,965
484,06	0,855
484,27	0,638
484,48	0,710
484,69	1,003
484,90	0,963
485,11	0,727
485,32	0,873
485,53	0,947
485,73	0,981
485,94	0,819
486,15	0,835
486,36	0,595
486,57	0,850
486,78	0,982
486,99	1,008
487,20	0,731
487,41	0,757
487,61	0,804
487,82	0,855
488,03	0,684
488,24	0,825
488,45	0,705
488,66	0,870
488,87	0,919
489,08	0,881
489,28	0,816
489,49	0,891
489,70	0,832
489,91	0,759
490,12	0,770
490,33	0,762
490,54	0,558
490,74	0,894
490,95	0,676
491,16	0,777
491,37	0,814
491,58	0,772
491,79	0,739
492,00	0,824
492,20	0,748
492,41	0,694
492,62	0,573
492,83	0,774
493,04	0,669
493,25	0,719
493,45	0,604
493,66	0,739
493,87	0,698
494,08	0,525
494,29	0,406
494,50	0,711
494,70	0,931
494,91	0,714
495,12	0,715
495,33	0,661
495,54	0,675
495,75	0,766
495,95	0,617
496,16	0,634
496,37	0,508
496,58	0,848
496,79	0,735
496,99	0,483
497,20	0,557
497,41	0,578
497,62	0,536
497,83	0,700
498,04	0,758
498,24	0,784
498,45	0,821
498,66	0,808
498,87	0,844
499,08	0,564
499,28	0,673
499,49	0,707
499,70	0,746
499,91	0,745
500,12	0,558
500,32	0,576
500,53	0,605
500,74	0,694
500,95	0,716
501,15	0,719
501,36	0,828
501,57	0,695
501,78	0,680
501,99	0,729
502,19	0,404
502,40	0,688
502,61	0,561
502,82	0,791
503,02	0,659
503,23	0,630
503,44	0,764
503,65	0,795
503,86	0,624
504,06	0,725
504,27	0,853
504,48	0,807
504,69	0,829
504,89	0,712
505,10	0,833
505,31	0,813
505,52	0,793
505,72	0,647
505,93	0,644
506,14	0,735
506,35	0,666
506,55	0,673
506,76	0,714
506,97	0,721
507,18	0,588
507,38	0,740
507,59	0,770
507,80	0,644
508,01	0,768
508,21	0,914
508,42	0,914
508,63	0,735
508,84	0,751
509,04	0,697
509,25	0,667
509,46	0,768
509,67	0,727
509,87	0,912
510,08	0,894
510,29	0,938
510,49	0,866
510,70	0,799
510,91	0,733
511,12	0,855
511,32	0,729
511,53	0,837
511,74	0,630
511,94	0,902
512,15	0,604
512,36	0,770
512,57	0,739
512,77	0,709
512,98	0,715
513,19	0,649
513,39	0,752
513,60	0,633
513,81	0,784
514,01	0,890
514,22	1,013
514,43	1,068
514,64	0,847
514,84	0,903
515,05	0,908
515,26	0,986
515,46	1,006
515,67	0,766
515,88	0,873
516,08	0,875
516,29	0,956
516,50	0,855
516,70	0,810
516,91	1,086
517,12	1,009
517,32	1,087
517,53	0,992
517,74	1,253
517,95	0,960
518,15	1,193
518,36	1,351
518,57	1,248
518,77	1,133
518,98	1,221
519,19	1,138
519,39	1,087
519,60	1,343
519,80	1,300
520,01	1,358
520,22	1,494
520,42	1,807
520,63	2,266
520,84	3,516
521,04	5,485
521,25	8,473
521,46	12,753
521,66	18,798
521,87	26,554
522,08	36,621
522,28	46,657
522,49	55,552
522,70	64,117
522,90	71,397
523,11	77,412
523,31	83,554
523,52	86,533
523,73	90,410
523,93	91,256
524,14	92,625
524,35	92,501
524,55	91,373
524,76	91,234
524,97	91,506
525,17	92,973
525,38	91,939
525,58	93,237
525,79	94,202
526,00	96,122
526,20	94,888
526,41	97,417
526,61	98,056
526,82	98,419
527,03	99,142
527,23	99,004
527,44	99,089
527,64	101,196
527,85	100,073
528,06	99,491
528,26	98,950
528,47	99,540
528,68	99,487
528,88	98,493
529,09	98,753
529,29	99,336
529,50	97,585
529,70	98,113
529,91	97,680
530,12	97,326
530,32	97,332
530,53	97,619
530,73	96,572
530,94	98,243
531,15	97,677
531,35	96,893
531,56	98,393
531,76	97,702
531,97	99,278
532,17	98,882
532,38	97,804
532,59	99,062
532,79	99,250
533,00	99,768
533,20	99,261
533,41	100,349
533,61	99,601
533,82	99,562
534,03	100,041
534,23	100,771
534,44	101,712
534,64	100,322
534,85	100,077
535,05	100,324
535,26	101,419
535,46	101,322
535,67	100,638
535,88	100,423
536,08	100,707
536,29	101,360
536,49	100,710
536,70	100,812
536,90	100,656
537,11	101,462
537,31	100,520
537,52	101,088
537,72	100,620
537,93	100,815
538,13	99,652
538,34	100,794
538,55	100,808
538,75	101,006
538,96	100,464
539,16	100,609
539,37	100,490
539,57	100,873
539,78	100,482
539,98	100,990
540,19	100,812
540,39	100,839
540,60	99,980
540,80	101,954
541,01	100,690
541,21	100,900
541,42	99,065
541,62	99,443
541,83	99,607
542,03	99,160
542,24	99,561
542,44	98,604
542,65	97,696
542,85	96,968
543,06	96,951
543,26	96,443
543,47	96,865
543,67	96,506
543,88	96,927
544,08	97,358
544,29	96,263
544,49	96,831
544,70	96,944
544,90	97,400
545,11	97,698
545,31	97,119
545,52	97,434
545,72	97,437
545,93	98,066
546,13	98,451
546,34	98,105
546,54	98,398
546,75	97,569
546,95	99,598
547,15	98,768
547,36	100,619
547,56	98,467
547,77	98,923
547,97	99,964
548,18	98,926
548,38	98,597
548,59	98,052
548,79	98,401
549,00	98,226
549,20	99,255
549,41	99,530
549,61	99,395
549,81	99,230
550,02	99,057
550,22	98,375
550,43	98,827
550,63	99,542
550,84	97,954
551,04	98,135
551,25	99,217
551,45	98,051
551,65	99,048
551,86	99,628
552,06	98,474
552,27	97,216
552,47	97,336
552,68	97,349
552,88	94,041
553,08	95,398
553,29	95,263
553,49	92,800
553,70	93,608
553,90	93,886
554,11	93,619
554,31	92,987
554,51	93,851
554,72	94,076
554,92	93,388
555,13	92,152
555,33	90,365
555,53	87,911
555,74	81,602
555,94	75,038
556,15	67,448
556,35	59,420
556,56	50,131
556,76	41,653
556,96	32,823
557,17	25,237
557,37	18,867
557,58	13,807
557,78	9,557
557,98	6,765
558,19	4,746
558,39	3,540
558,59	2,585
558,80	2,044
559,00	1,484
559,21	1,251
559,41	0,948
559,61	0,935
559,82	0,900
560,02	0,795
560,23	0,905
560,43	0,801
560,63	0,840
560,84	0,648
561,04	0,718
561,24	0,881
561,45	0,765
561,65	0,754
561,85	0,972
562,06	0,829
562,26	0,556
562,47	0,771
562,67	0,670
562,87	0,891
563,08	0,700
563,28	0,725
563,48	0,759
563,69	0,661
563,89	0,824
564,09	0,762
564,30	0,808
564,50	0,686
564,70	0,751
564,91	0,799
565,11	0,673
565,31	0,726
565,52	0,725
565,72	0,654
565,92	0,867
566,13	0,690
566,33	0,535
566,53	0,533
566,74	0,806
566,94	0,566
567,14	0,466
567,35	0,536
567,55	0,625
567,75	0,679
567,96	0,586
568,16	0,662
568,36	0,536
568,57	0,700
568,77	0,547
568,97	0,713
569,18	0,475
569,38	0,697
569,58	0,573
569,79	0,704
569,99	0,663
570,19	0,631
570,39	0,733
570,60	0,619
570,80	0,522
571,00	0,668
571,21	0,557
571,41	0,615
571,61	0,710
571,82	0,562
572,02	0,533
572,22	0,573
572,42	0,512
572,63	0,769
572,83	0,646
573,03	0,530
573,24	0,818
573,44	0,468
573,64	0,745
573,84	0,744
574,05	0,572
574,25	0,694
574,45	0,423
574,66	0,449
574,86	0,658
575,06	0,649
575,26	0,469
575,47	0,617
575,67	0,643
575,87	0,629
576,07	0,547
576,28	0,680
576,48	0,586
576,68	0,680
576,88	0,519
577,09	0,637
577,29	0,394
577,49	0,480
577,69	0,517
577,90	0,657
578,10	0,552
578,30	0,381
578,50	0,408
578,71	0,626
578,91	0,519
579,11	0,727
579,31	0,561
579,52	0,517
579,72	0,614
579,92	0,557
580,12	0,528
580,33	0,522
580,53	0,537
580,73	0,646
580,93	0,632
581,13	0,471
581,34	0,620
581,54	0,774
581,74	0,455
581,94	0,815
582,15	0,495
582,35	0,410
582,55	0,583
582,75	0,684
582,95	0,501
583,16	0,460
583,36	0,777
583,56	0,590
583,76	0,498
583,96	0,674
584,17	0,387
584,37	0,750
584,57	0,658
584,77	0,563
584,97	0,643
585,18	0,655
585,38	0,729
585,58	0,571
585,78	0,471
585,98	0,573
586,19	0,690
586,39	0,588
586,59	0,613
586,79	0,523
586,99	0,481
587,20	0,506
587,40	0,546
587,60	0,463
587,80	0,631
588,00	0,664
588,20	0,553
588,41	0,602
588,61	0,633
588,81	0,521
589,01	0,557
589,21	0,574
589,41	0,701
589,62	0,667
589,82	0,412
590,02	0,241
590,22	0,684
590,42	0,435
590,62	0,520
590,83	0,479
591,03	0,642
591,23	0,495
591,43	0,732
591,63	0,543
591,83	0,548
592,03	0,602
592,24	0,603
592,44	0,678
592,64	0,446
592,84	0,651
593,04	0,708
593,24	0,586
593,44	0,514
593,65	0,626
593,85	0,513
594,05	0,363
594,25	0,749
594,45	0,513
594,65	0,683
594,85	0,590
595,06	0,616
595,26	0,686
595,46	0,485
595,66	0,578
595,86	0,732
596,06	0,418
596,26	0,631
596,46	0,656
596,66	0,658
596,87	0,585
597,07	0,487
597,27	0,578
597,47	0,746
597,67	0,662
597,87	0,565
598,07	0,494
598,27	0,646
598,47	0,683
598,67	0,601
598,88	0,675
599,08	0,621
599,28	0,497
599,48	0,698
599,68	0,734
599,88	0,640
600,08	0,755
600,28	0,681
600,48	0,595
600,68	0,693
600,88	0,689
601,09	0,598
601,29	0,675
601,49	0,749
601,69	0,717
601,89	0,636
602,09	0,683
602,29	0,608
602,49	0,612
602,69	0,667
602,89	0,694
603,09	0,689
603,29	0,496
603,49	0,675
603,69	0,656
603,90	0,643
604,10	0,726
604,30	0,732
604,50	0,671
604,70	0,719
604,90	0,530
605,10	0,701
605,30	0,638
605,50	0,642
605,70	0,661
605,90	0,840
606,10	0,738
606,30	0,802
606,50	0,799
606,70	0,817
606,90	0,740
607,10	0,934
607,30	0,914
607,50	1,012
607,70	1,195
607,90	1,175
608,10	1,106
608,30	1,346
608,50	1,697
608,70	2,077
608,90	2,659
609,11	3,782
609,31	4,464
609,51	6,230
609,71	8,450
609,91	11,248
610,11	15,108
610,31	19,746
610,51	24,939
610,71	31,821
610,91	38,382
611,11	45,860
611,31	52,805
611,51	59,128
611,71	64,628
611,91	70,168
612,11	76,046
612,31	78,899
612,51	82,713
612,71	85,739
612,91	87,242
613,11	88,100
613,31	89,657
613,51	90,346
613,71	90,908
613,91	91,838
614,11	93,756
614,31	93,654
614,50	94,353
614,70	94,656
614,90	95,828
615,10	97,164
615,30	96,864
615,50	97,833
615,70	97,947
615,90	98,259
616,10	97,990
616,30	97,240
616,50	97,438
616,70	96,358
616,90	97,586
617,10	97,099
617,30	97,418
617,50	97,185
617,70	97,732
617,90	97,673
618,10	96,819
618,30	97,828
618,50	97,632
618,70	98,431
618,90	98,869
619,10	98,638
619,30	98,003
619,49	98,341
619,69	97,888
619,89	98,321
620,09	99,623
620,29	98,743
620,49	97,292
620,69	97,835
620,89	97,666
621,09	97,167
621,29	96,550
621,49	95,665
621,69	95,823
621,89	96,592
622,09	95,333
622,29	95,877
622,48	96,321
622,68	95,777
622,88	96,403
623,08	96,773
623,28	96,625
623,48	96,568
623,68	98,110
623,88	98,108
624,08	98,125
624,28	97,966
624,48	98,274
624,67	97,880
624,87	98,306
625,07	97,573
625,27	97,598
625,47	98,646
625,67	98,025
625,87	96,981
626,07	97,095
626,27	96,106
626,47	96,801
626,66	96,414
626,86	97,050
627,06	97,365
627,26	96,929
627,46	96,090
627,66	97,156
627,86	96,670
628,06	97,450
628,25	95,794
628,45	97,890
628,65	97,774
628,85	96,326
629,05	97,106
629,25	96,404
629,45	96,513
629,65	97,565
629,84	96,734
630,04	97,217
630,24	97,666
630,44	96,297
630,64	98,128
630,84	98,224
631,04	98,006
631,23	98,515
631,43	98,769
631,63	99,162
631,83	99,333
632,03	100,043
632,23	99,176
632,42	99,737
632,62	100,053
632,82	100,154
633,02	100,708
633,22	101,162
633,42	100,413
633,62	102,364
633,81	102,673
634,01	101,654
634,21	101,664
634,41	102,324
634,61	101,657
634,80	102,023
635,00	102,379
635,20	102,625
635,40	102,360
635,60	102,390
635,80	101,925
635,99	101,879
636,19	102,389
636,39	102,571
636,59	100,565
636,79	101,895
636,98	101,483
637,18	102,108
637,38	102,370
637,58	102,207
637,78	101,767
637,97	101,919
638,17	101,112
638,37	101,968
638,57	101,958
638,77	101,254
638,96	101,666
639,16	101,164
639,36	100,430
639,56	101,542
639,76	101,346
639,95	101,477
640,15	100,973
640,35	101,953
640,55	100,460
640,75	100,668
640,94	101,108
641,14	100,332
641,34	100,621
641,54	100,652
641,73	99,581
641,93	99,706
642,13	100,798
642,33	101,328
642,53	99,441
642,72	100,013
642,92	99,769
643,12	99,019
643,32	99,612
643,51	100,061
643,71	100,694
643,91	99,726
644,11	99,744
644,30	97,479
644,50	99,756
644,70	98,678
644,90	98,891
645,09	100,569
645,29	97,411
645,49	98,637
645,69	98,478
645,88	98,576
646,08	99,739
646,28	101,504
646,48	99,693
646,67	99,934
646,87	99,444
647,07	101,515
647,26	101,429
647,46	99,723
647,66	101,675
647,86	99,788
648,05	99,665
648,25	100,835
648,45	100,672
648,65	99,175
648,84	100,652
649,04	100,677
649,24	100,186
649,43	99,064
649,63	100,370
649,83	98,742
650,03	100,578
650,22	99,428
650,42	99,013
650,62	98,720
650,81	99,564
651,01	98,742
651,21	98,276
651,40	98,756
651,60	99,121
651,80	98,833
652,00	97,551
652,19	98,026
652,39	100,156
652,59	97,616
652,78	98,926
652,98	98,172
653,18	98,276
653,37	98,853
653,57	96,591
653,77	97,316
653,96	98,201
654,16	96,656
654,36	98,682
654,55	97,529
654,75	95,471
654,95	96,989
655,14	95,832
655,34	96,863
655,54	94,891
655,73	93,906
655,93	95,252
656,13	93,638
656,32	93,286
656,52	94,086
656,72	93,622
656,91	93,045
657,11	91,514
657,31	91,151
657,50	92,527
657,70	89,824
657,90	90,401
658,09	89,575
658,29	89,435
658,49	87,591
658,68	87,086
658,88	86,439
659,07	84,112
659,27	83,604
659,47	81,152
659,66	78,371
659,86	77,271
660,06	74,429
660,25	69,401
660,45	67,110
660,64	61,364
660,84	56,124
661,04	53,992
661,23	48,736
661,43	43,407
661,63	38,850
661,82	33,659
662,02	30,087
662,21	25,355
662,41	21,725
662,61	18,278
662,80	15,637
663,00	13,148
663,19	11,463
663,39	10,008
663,59	8,448
663,78	6,783
663,98	5,650
664,17	5,215
664,37	4,559
664,57	4,197
664,76	3,902
664,96	3,265
665,15	2,664
665,35	2,694
665,55	1,950
665,74	2,333
665,94	1,880
666,13	2,263
666,33	1,413
666,53	1,800
666,72	1,610
666,92	1,863
667,11	1,769
667,31	1,432
667,50	1,557
667,70	1,663
667,90	1,280
668,09	0,920
668,29	1,243
668,48	1,237
668,68	1,247
668,87	1,223
669,07	1,236
669,26	1,088
669,46	0,844
669,66	1,055
669,85	1,067
670,05	0,831
670,24	1,400
670,44	1,282
670,63	0,665
670,83	0,955
671,02	1,286
671,22	1,568
671,42	0,765
671,61	0,877
671,81	1,141
672,00	1,013
672,20	0,952
672,39	0,736
672,59	0,613
672,78	0,871
672,98	0,830
673,17	0,808
673,37	0,868
673,56	0,956
673,76	1,158
673,95	1,079
674,15	0,527
674,34	1,018
674,54	0,863
674,73	0,945
674,93	1,014
675,13	0,622
675,32	0,931
675,52	1,226
675,71	0,791
675,91	1,006
676,10	0,893
676,30	0,573
676,49	0,665
676,69	0,861
676,88	0,899
677,08	0,844
677,27	0,669
677,47	0,953
677,66	0,741
677,86	0,846
678,05	1,164
678,24	0,604
678,44	0,842
678,63	0,700
678,83	0,725
679,02	0,852
679,22	0,511
679,41	0,711
679,61	0,633
679,80	0,598
680,00	0,661
680,19	0,537
680,39	0,730
680,58	0,580
680,78	0,745
680,97	0,441
681,17	0,628
681,36	0,491
681,56	0,762
681,75	0,511
681,94	0,657
682,14	0,938
682,33	0,647
682,53	0,942
682,72	0,616
682,92	1,002
683,11	0,655
683,31	0,373
683,50	0,572
683,69	0,585
683,89	0,385
684,08	0,590
684,28	0,621
684,47	0,528
684,67	0,524
684,86	0,337
685,06	0,455
685,25	0,489
685,44	0,615
685,64	0,374
685,83	0,419
686,03	0,364
686,22	0,427
686,42	0,358
686,61	0,476
686,80	0,559
687,00	0,481
687,19	0,723
687,39	0,437
687,58	0,346
687,77	0,350
687,97	0,622
688,16	0,234
688,36	0,366
688,55	0,525
688,74	0,631
688,94	0,321
689,13	0,692
689,33	0,512
689,52	0,510
689,71	0,456
689,91	0,390
690,10	0,610
690,30	0,596
690,49	0,345
690,68	0,562
690,88	0,592
691,07	0,403
691,27	0,346
691,46	0,194
691,65	0,589
691,85	0,463
692,04	0,408
692,23	0,388
692,43	0,339
692,62	0,574
692,82	0,486
693,01	0,490
693,20	0,656
693,40	0,381
693,59	0,567
693,78	0,460
693,98	0,499
694,17	0,342
694,36	0,604
694,56	0,470
694,75	0,362
694,94	0,666
695,14	0,404
695,33	0,441
695,53	0,541
695,72	0,432
695,91	0,562
696,11	0,580
696,30	0,445
696,49	0,524
696,69	0,565
696,88	0,250
697,07	0,449
697,27	0,541
697,46	0,386
697,65	0,188
697,85	0,526
698,04	0,678
698,23	0,667
698,43	0,605
698,62	0,589
698,81	0,496
699,01	1,283
699,20	0,778
699,39	0,840
699,58	1,012
699,78	0,805
699,97	0,684
700,16	0,915
700,36	0,786
700,55	1,162
700,74	0,898
700,94	1,311
701,13	1,146
701,32	1,654
701,52	1,216
701,71	0,708
701,90	1,385
702,09	0,990
702,29	1,464
702,48	1,328
702,67	1,300
702,87	1,077
703,06	1,452
703,25	1,486
703,44	1,557
703,64	2,706
703,83	1,800
704,02	1,335
704,22	1,581
704,41	1,468
704,60	1,952
704,79	1,545
704,99	1,961
705,18	2,243
705,37	1,800
705,56	1,801
705,76	2,390
705,95	1,532
706,14	1,478
706,33	3,095
706,53	2,184
706,72	2,125
706,91	2,473
707,11	1,997
707,30	3,389
707,49	3,082
707,68	1,938
707,88	2,584
708,07	1,048
708,26	3,272
708,45	2,392
708,64	2,998
708,84	3,707
709,03	3,486
709,22	2,708
709,41	3,018
709,61	3,271
709,80	2,894
709,99	3,227
710,18	3,568
710,38	3,087
710,57	3,226
710,76	2,998
710,95	3,477
711,14	5,308
711,34	3,297
711,53	5,490
711,72	4,946
711,91	3,069
712,11	5,723
712,30	5,188
712,49	4,998
712,68	5,678
712,87	6,819
713,07	6,829
713,26	3,906
713,45	5,923
713,64	5,212
713,83	4,604
714,03	5,685
714,22	4,576
714,41	5,113
714,60	4,771
714,79	4,523
714,99	5,561
715,18	3,746
715,37	5,570
715,56	5,579
715,75	3,138
715,94	6,994
716,14	5,208
716,33	6,088
716,52	5,718
716,71	4,637
716,90	7,195
717,10	6,765
717,29	4,229
717,48	6,674
717,67	5,064
717,86	6,119
718,05	3,657
718,24	6,531
718,44	7,513
718,63	6,116
718,82	8,753
719,01	9,046
719,20	4,465
719,39	5,910
719,59	2,836
719,78	4,804
719,97	8,508
720,16	7,745
720,35	7,303
720,54	9,097
720,73	6,505
720,93	7,885
721,12	3,690
721,31	10,345
721,50	7,789
721,69	7,386
721,88	8,296
722,07	8,639
722,27	5,854
722,46	6,860
722,65	8,013
722,84	5,495
723,03	5,479
723,22	9,252
723,41	5,981
723,60	10,192
723,79	11,760
723,99	9,966
724,18	11,012
724,37	9,375
724,56	9,188
724,75	9,447
724,94	8,893
725,13	14,100
725,32	10,076
725,51	11,160
725,71	8,144
725,90	10,423
726,09	11,950
726,28	11,650
726,47	7,031
726,66	10,884
726,85	6,557
727,04	10,177
727,23	9,344
727,42	12,976
727,61	4,444
727,81	10,010
728,00	9,442
728,19	14,645
728,38	7,019
728,57	10,587
728,76	13,466
728,95	10,268
729,14	5,323
729,33	18,771
729,52	14,736
729,71	11,825
729,90	9,529
730,09	10,631
730,28	15,358
730,48	13,689
730,67	12,817
730,86	7,463
731,05	14,136
731,24	12,362
731,43	9,560
731,62	13,033
731,81	12,706
732,00	15,756
732,19	12,388
732,38	11,518
732,57	14,714
732,76	16,786
732,95	7,867
733,14	7,282
733,33	10,302
733,52	16,828
733,71	9,195
733,90	21,979
734,09	14,981
734,28	14,897
734,47	11,316
734,66	16,961
734,85	14,468
735,04	17,166
735,23	12,698
735,42	18,588
735,61	19,067
735,81	17,241
736,00	17,620
736,19	15,976
736,38	12,889
736,57	13,370
736,76	4,961
736,95	16,061
737,14	20,213
737,33	17,817
737,52	17,496
737,71	14,583
737,90	15,280
738,09	17,791
738,28	15,630
738,47	20,425
738,66	13,750
738,85	19,416
739,04	21,222
739,22	15,878
739,41	17,903
739,60	10,201
739,79	10,788
739,98	13,975
740,17	19,048
740,36	22,143
740,55	23,633
740,74	19,652
740,93	23,171
741,12	17,279
741,31	15,257
741,50	16,196
741,69	19,630
741,88	10,200
742,07	14,982
742,26	15,918
742,45	16,996
742,64	28,417
742,83	13,191
743,02	17,477
743,21	25,553
743,40	14,395
743,59	23,361
743,78	17,031
743,97	28,195
744,16	17,960
744,34	23,425
744,53	16,189
744,72	34,927
744,91	13,684
745,10	24,524
745,29	18,440
745,48	20,352
745,67	22,403
745,86	12,207
746,05	27,626
746,24	24,619
746,43	22,222
746,62	12,442
746,81	22,831
747,00	17,537
747,18	33,626
747,37	20,682
747,56	21,798
747,75	24,508
747,94	25,821
748,13	22,146
748,32	32,051
748,51	27,765
748,70	28,297
748,89	24,879
749,08	16,857
749,26	26,730
749,45	31,059
749,64	17,122
749,83	20,611
750,02	31,768
750,21	19,355
750,40	21,615
750,59	31,132
750,78	25,740
750,96	22,067
751,15	27,049
751,34	34,555
751,53	32,266
751,72	23,989
751,91	26,301
752,10	22,840
752,29	28,531
752,47	20,506
752,66	20,563
752,85	31,579
753,04	24,290
753,23	16,225
753,42	32,219
753,61	24,510
753,80	33,062
753,98	26,667
754,17	19,325
754,36	32,486
754,55	13,166
754,74	36,416
754,93	40,922
755,12	33,867
755,30	36,288
755,49	33,639
755,68	37,752
755,87	30,631
756,06	27,095
756,25	14,286
756,43	25,172
756,62	35,905
756,81	28,053
757,00	36,522
757,19	43,836
757,38	38,801
757,56	42,258
757,75	40,850
757,94	35,331
758,13	32,792
758,32	30,303
758,51	31,250
758,69	32,800
758,88	33,634
759,07	37,993
759,26	30,698
759,45	38,865
759,63	53,160
759,82	40,741
760,01	25,084
760,20	29,961
760,39	33,209
760,57	45,868
760,76	23,423
760,95	35,185
761,14	44,082
761,33	39,375
761,51	35,484
761,70	53,448
761,89	31,148
762,08	53,488
762,27	38,462
762,45	49,416
762,64	32,234
762,83	45,133
763,02	43,721
763,21	32,328
763,39	45,714
763,58	38,868
763,77	48,649
763,96	58,635
764,14	43,750
764,33	45,788
764,52	46,352
764,71	35,426
764,89	22,549
765,08	28,017
765,27	51,673
765,46	48,370
765,65	20,087
765,83	41,991
766,02	34,894
766,21	56,354
766,40	36,190
766,58	35,366
766,77	44,776
766,96	53,636
767,15	67,150
767,33	40,936
767,52	53,049
767,71	49,565
767,90	44,382
768,08	50,584
768,27	51,500
768,46	67,578
768,64	58,031
768,83	44,792
769,02	47,000
769,21	40,611
769,39	52,907
769,58	49,133
769,77	65,134
769,96	76,440
770,14	15,646
770,33	56,075
770,52	53,439
770,70	62,000
770,89	73,154
771,08	46,186
771,27	72,165
771,45	60,088
771,64	77,604
771,83	58,879
772,01	39,759
772,20	71,859
772,39	36,667
772,57	61,240
772,76	42,963
772,95	51,773
773,14	57,527
773,32	47,742
773,51	63,184
773,70	55,000
773,88	70,492
774,07	53,403
774,26	36,879
774,44	56,098
774,63	61,929
774,82	43,293
775,00	81,333
775,19	30,400
775,38	66,474
775,56	57,292
775,75	80,120
775,94	56,962
776,12	39,779
776,31	57,059
776,50	52,841
776,68	58,947
776,87	68,182
777,06	69,655
777,24	71,111
777,43	52,564
777,62	84,559
777,80	52,703
777,99	79,429
778,18	64,356
778,36	62,400
778,55	80,992
778,74	74,306
778,92	81,657
779,11	90,833
779,29	72,327
779,48	57,823
779,67	64,341
779,85	84,553
780,04	71,892
780,23	68,345
780,41	62,500
780,60	44,737
780,79	76,271
780,97	84,211
781,16	66,667
781,34	88,660
781,53	78,632
781,72	78,102
781,90	64,063
782,09	87,742
782,28	65,693
782,46	62,222
782,65	85,714
782,83	146,067
783,02	118,750
783,21	98,000
783,39	113,913
783,58	83,432
783,76	73,184
783,95	77,576
784,14	76,159
784,32	85,235
784,51	76,724
784,69	80,508
784,88	79,279
785,06	84,874
785,25	71,338
785,44	76,259
785,62	103,571
785,81	166,197
785,99	102,158
786,18	106,757
786,37	73,333
786,55	90,826
786,74	56,579
786,92	83,594
787,11	87,500
787,29	64,925
787,48	82,000
787,67	87,952
787,85	99,138
788,04	78,713
788,22	87,705
788,41	80,000
788,59	126,606
788,78	88,485
788,96	98,113
789,15	105,263
789,34	102,727
789,52	75,221
789,71	79,070
789,89	165,957
790,08	95,205
790,26	122,857
790,45	87,879
790,63	80,556
790,82	90,909
791,00	85,417
791,19	88,172
791,38	93,056
791,56	87,719
791,75	76,147
791,93	110,345
792,12	71,598
792,30	97,600
792,49	68,908
792,67	100,000
792,86	106,202
793,04	81,308
793,23	65,833
793,41	81,013
793,60	108,081
793,78	115,789
793,97	91,026
794,15	103,636
794,34	86,813
794,52	100,000
794,71	107,407
794,89	93,333
795,08	118,447
795,26	86,111
795,45	126,866
795,63	115,152
795,82	80,374
796,00	110,092
796,19	88,333
796,37	122,628
796,56	113,978
796,74	99,115
796,93	113,483
797,11	120,253
797,30	92,500
797,48	91,034
797,67	103,333
797,85	119,388
798,04	100,000
798,22	94,444
798,41	143,137
798,59	162,105
798,77	113,846
798,96	100,000
799,14	84,483
799,33	121,374
799,51	70,769
799,70	93,960
799,88	124,242
800,07	78,289
800,25	64,828
800,44	87,879
800,62	111,765
800,80	104,348
800,99	138,095
801,17	92,241
801,36	73,103
801,54	100,000
801,73	85,859
801,91	73,770
802,10	103,571
802,28	103,738
802,46	134,568
802,65	128,736
802,83	175,281
803,02	100,000
803,20	111,719
803,39	106,897
803,57	125,301
803,75	89,189
803,94	102,521
804,12	64,167
804,31	95,575
804,49	94,231
804,67	108,800
804,86	97,321
805,04	73,649
805,23	109,655
805,41	109,836
805,59	86,885
805,78	92,424
805,96	78,846
806,15	110,156
806,33	122,689
806,51	98,230
806,70	153,333
806,88	78,862
807,07	74,603
807,25	63,522
807,43	101,325
807,62	95,935
807,80	124,731
807,99	81,746
808,17	92,199
808,35	148,246
808,54	140,860
808,72	92,800
808,90	80,263
809,09	108,333
809,27	120,721
809,46	146,429
809,64	149,020
809,82	68,966
810,01	97,727
810,19	101,000
810,37	66,923
810,56	134,146
810,74	68,874
810,92	87,879
811,11	198,039
811,29	101,418
811,48	76,768
811,66	116,279
811,84	121,101
812,03	73,636
812,21	96,154
812,39	121,186
812,58	90,196
812,76	116,822
812,94	98,667
813,13	94,444
813,31	75,000
813,49	126,087
813,68	75,652
813,86	80,612
814,04	134,951
814,23	102,020
814,41	71,324
814,59	76,836
814,78	70,588
814,96	106,306
815,14	110,000
815,33	93,478
815,51	80,741
815,69	67,901
815,87	103,478
816,06	70,000
816,24	98,013
816,42	54,487
816,61	109,322
816,79	173,494
816,97	94,595
817,16	65,161
817,34	135,172
817,52	97,241
817,70	132,540
817,89	109,091
818,07	93,103
818,25	109,009
818,44	87,209
818,62	106,897
818,80	83,217
818,98	61,905
819,17	85,385
819,35	88,824
819,53	105,941
819,72	61,047
819,90	81,437
820,08	51,948
820,26	91,228
820,45	84,940
820,63	86,979
820,81	67,785
820,99	69,173
821,18	42,222
821,36	66,190
821,54	77,326
821,73	74,595
821,91	52,660
822,09	57,059
822,27	58,883
822,46	95,625
822,64	79,470
822,82	54,146
823,00	63,964
823,19	59,848
823,37	91,429
823,55	64,118
823,73	87,333
823,91	51,934
824,10	73,184
824,28	70,370
824,46	78,488
824,64	76,961
824,83	56,098
825,01	89,855
825,19	45,143
825,37	59,375
825,56	80,000
825,74	61,905
825,92	96,067
826,10	81,988
826,28	60,403
826,47	51,220
826,65	70,946
826,83	52,688
827,01	65,909
827,19	75,949
827,38	67,358
827,56	70,192
827,74	67,073
827,92	79,512
828,10	59,783
828,29	49,524
828,47	59,211
828,65	81,081
828,83	56,061
829,01	53,333
829,20	53,797
829,38	60,996
829,56	46,154
829,74	112,121
829,92	47,423
830,10	63,964
830,29	74,595
830,47	50,000
830,65	51,339
830,83	46,286
831,01	51,250
831,20	46,040
831,38	57,073
831,56	53,846
831,74	84,571
831,92	61,932
832,10	70,455
832,29	61,137
832,47	54,867
832,65	68,085
832,83	62,791
833,01	49,407
833,19	61,086
833,37	54,815
833,56	60,563
833,74	60,324
833,92	52,655
834,10	49,746
834,28	43,462
834,46	54,325
834,64	56,641
834,83	41,297
835,01	56,809
835,19	57,346
835,37	52,590
835,55	38,267
835,73	42,279
835,91	40,154
836,09	39,004
836,28	55,344
836,46	57,895
836,64	41,393
836,82	35,448
837,00	42,177
837,18	56,126
837,36	70,588
837,54	29,545
837,72	52,988
837,91	33,735
838,09	39,600
838,27	46,886
838,45	50,485
838,63	28,475
838,81	52,303
838,99	58,537
839,17	50,485
839,35	32,222
839,53	41,275
839,72	29,661
839,90	32,219
840,08	39,103
840,26	39,432
840,44	29,630
840,62	24,916
840,80	49,383
840,98	38,369
841,16	32,028
841,34	21,449
841,52	38,978
841,70	37,374
841,89	44,516
842,07	33,784
842,25	25,974
842,43	28,710
842,61	42,895
842,79	26,524
842,97	20,122
843,15	42,120
843,33	34,917
843,51	41,527
843,69	34,444
843,87	31,806
844,05	29,650
844,23	30,270
844,41	30,653
844,59	29,261
844,77	21,326
844,95	34,223
845,13	42,623
845,31	23,743
845,50	29,639
845,68	25,907
845,86	35,142
846,04	25,432
846,22	35,084
846,40	17,323
846,58	20,912
846,76	18,953
846,94	22,596
847,12	18,957
847,30	29,032
847,48	32,854
847,66	36,585
847,84	24,619
848,02	28,274
848,20	33,996
848,38	22,269
848,56	35,914
848,74	25,620
848,92	21,921
849,10	30,357
849,28	27,669
849,46	20,794
849,64	23,095
849,82	19,471
850,00	15,811
850,18	18,014
850,36	22,149
850,54	18,161
850,72	32,017
850,90	32,360
851,08	19,136
851,26	32,389
851,44	32,932
851,62	19,205
851,80	20,875
851,98	32,922
852,16	31,687
852,34	33,397
852,52	18,887
852,70	19,679
852,87	26,286
853,05	27,054
853,23	24,314
853,41	14,519
853,59	23,774
853,77	29,167
853,95	24,788
854,13	16,117
854,31	28,098
854,49	18,637
854,67	31,955
854,85	24,348
855,03	20,498
855,21	20,135
855,39	16,107
855,57	27,717
855,75	24,283
855,93	22,792
856,11	29,984
856,28	22,569
856,46	15,686
856,64	20,874
856,82	23,386
857,00	16,090
857,18	28,013
857,36	23,025
857,54	19,257
857,72	17,863
857,90	16,969
858,08	22,377
858,26	11,774
858,44	16,770
858,61	10,399
858,79	18,605
858,97	14,756
859,15	24,962
859,33	11,350
859,51	13,738
859,69	19,048
859,87	18,887
860,05	18,968
860,23	13,939
860,40	13,978
860,58	13,075
860,76	16,102
860,94	15,420
861,12	16,431
861,30	16,826
861,48	15,864
861,66	20,059
861,84	17,598
862,01	23,930
862,19	20,325
862,37	17,493
862,55	18,384
862,73	14,266
862,91	16,891
863,09	17,945
863,27	7,103
863,44	12,980
863,62	13,043
863,80	12,485
863,98	10,473
864,16	12,207
864,34	11,169
864,52	17,882
864,69	16,506
864,87	16,806
865,05	14,028
865,23	14,493
865,41	15,018
865,59	19,159
865,76	15,891
865,94	15,935
866,12	12,571
866,30	12,515
866,48	11,222
866,66	19,523
866,83	14,442
867,01	18,683
867,19	13,438
867,37	13,926
867,55	12,843
867,73	17,654
867,90	13,406
868,08	10,675
868,26	10,946
868,44	12,446
868,62	14,838
868,79	10,498
868,97	14,392
869,15	13,800
869,33	8,490
869,51	12,739
869,69	9,385
869,86	11,385
870,04	12,487
870,22	7,908
870,40	11,313
870,57	11,700
870,75	11,207
870,93	11,863
871,11	9,664
871,29	9,756
871,46	11,984
871,64	11,573
871,82	14,244
872,00	11,474
872,18	16,560
872,35	12,567
872,53	9,263
872,71	9,336
872,89	9,731
873,06	14,852
873,24	11,765
873,42	10,573
873,60	10,193
873,77	9,698
873,95	8,175
874,13	11,717
874,31	12,299
874,49	11,160
874,66	9,107
874,84	6,572
875,02	10,171
875,20	10,744
875,37	10,903
875,55	7,113
875,73	9,664
875,91	8,984
876,08	8,041
876,26	6,328
876,44	5,192
876,61	6,870
876,79	9,424
876,97	8,562
877,15	11,603
877,32	7,480
877,50	10,008
877,68	7,535
877,86	6,995
878,03	8,212
878,21	9,440
878,39	5,630
878,56	9,661
878,74	7,231
878,92	8,234
879,10	9,911
879,27	9,362
879,45	9,913
879,63	5,890
879,80	8,294
879,98	4,911
880,16	7,954
880,34	4,862
880,51	8,505
880,69	7,942
880,87	4,055
881,04	4,836
881,22	9,289
881,40	4,951
881,57	5,639
881,75	5,548
881,93	5,968
882,10	6,470
882,28	7,156
882,46	7,222
882,63	9,548
882,81	7,299
882,99	5,358
883,16	6,473
883,34	6,859
883,52	5,479
883,69	7,092
883,87	7,339
884,05	5,201
884,22	3,500
884,40	7,277
884,58	7,151
884,75	5,528
884,93	8,325
885,11	6,420
885,28	5,583
885,46	5,745
885,64	5,707
885,81	7,486
885,99	6,710
886,17	5,022
886,34	6,030
886,52	5,800
886,70	5,564
886,87	4,920
887,05	6,199
887,22	3,742
887,40	4,612
887,58	5,224
887,75	3,988
887,93	7,371
888,11	2,472
888,28	5,121
888,46	3,114
888,63	6,751
888,81	5,566
888,99	4,408
889,16	5,136
889,34	7,083
889,51	4,526
889,69	5,078
889,87	3,195
890,04	2,646
890,22	4,588
890,39	2,831
890,57	5,592
890,75	6,670
890,92	5,751
891,10	6,149
891,27	5,156
891,45	4,875
891,63	4,553
891,80	4,919
891,98	6,725
892,15	4,738
892,33	5,157
892,51	4,742
892,68	3,380
892,86	4,448
893,03	5,064
893,21	4,972
893,38	4,435
893,56	4,380
893,74	5,456
893,91	5,834
894,09	4,210
894,26	5,486
894,44	4,565
894,61	5,908
894,79	4,200
894,96	4,071
895,14	5,022
895,32	4,300
895,49	3,566
895,67	4,087
895,84	6,800
896,02	5,427
896,19	3,407
896,37	4,377
896,54	3,756
896,72	4,127
896,89	5,902
897,07	2,707
897,25	5,405
897,42	2,912
897,60	4,973
897,77	5,458
897,95	5,127
898,12	2,194
898,30	3,761
898,47	3,629
898,65	3,091
898,82	4,701
899,00	4,047
899,17	4,569
899,35	4,729
899,52	3,950
899,70	4,046
899,87	2,721
900,05	5,384
900,22	2,955
900,40	3,337
900,57	3,336
900,75	2,389
900,92	3,426
901,10	4,082
901,27	4,153
901,45	6,442
901,62	3,261
901,80	4,280
901,97	4,304
902,15	5,456
902,32	4,907
902,50	3,573
902,67	3,652
902,85	3,981
903,02	4,554
903,20	2,610
903,37	4,407
903,54	3,165
903,72	3,323
903,89	3,362
904,07	3,619
904,24	3,834
904,42	3,201
904,59	2,783
904,77	3,570
904,94	2,954
905,12	2,572
905,29	3,065
905,47	4,010
905,64	4,120
905,81	3,699
905,99	3,359
906,16	3,193
906,34	4,413
906,51	3,314
906,69	2,235
906,86	2,606
907,03	2,933
907,21	2,963
907,38	3,163
907,56	2,260
907,73	3,855
907,91	4,461
908,08	3,998
908,25	2,347
908,43	2,982
908,60	2,973
908,78	3,930
908,95	4,105
909,13	3,252
909,30	2,067
909,47	4,113
909,65	3,878
909,82	4,322
910,00	2,770
910,17	3,307
910,34	4,012
910,52	2,865
910,69	3,540
910,87	3,490
911,04	3,756
911,21	3,854
911,39	3,429
911,56	3,305
911,73	2,791
911,91	3,747
912,08	4,262
912,26	1,088
912,43	3,584
912,60	2,662
912,78	2,569
912,95	3,868
913,13	3,747
913,30	4,602
913,47	3,766
913,65	2,505
913,82	2,788
913,99	2,101
914,17	3,726
914,34	3,967
914,51	4,010
914,69	3,517
914,86	3,314
915,03	3,554
915,21	2,785
915,38	2,520
915,56	2,573
915,73	2,442
915,90	4,226
916,08	2,629
916,25	2,261
916,42	2,097
916,60	2,236
916,77	2,604
916,94	1,831
917,12	3,920
917,29	3,352
917,46	1,958
917,64	2,525
917,81	2,785
917,98	2,213
918,16	3,365
918,33	2,135
918,50	2,336
918,67	2,644
918,85	2,913
919,02	1,282
919,19	3,699
919,37	3,163
919,54	2,652
919,71	3,634
919,89	3,159
920,06	1,523
920,23	2,132
920,41	3,109
920,58	2,625
920,75	2,924
920,92	2,749
921,10	2,195
921,27	1,371
921,44	3,683
921,62	1,757
921,79	3,389
921,96	2,035
922,13	1,901
922,31	1,891
922,48	2,582
922,65	2,073
922,82	2,401
923,00	2,683
923,17	1,539
923,34	2,144
923,52	1,697
923,69	2,139
923,86	2,275
924,03	2,765
924,21	1,671
924,38	3,689
924,55	3,505
924,72	2,873
924,90	2,442
925,07	2,276
925,24	2,335
925,41	2,244
925,59	1,986
925,76	1,554
925,93	2,035
926,10	2,264
926,28	2,327
926,45	3,124
926,62	2,314
926,79	2,743
926,96	3,110
927,14	2,568
927,31	2,038
927,48	1,565
927,65	2,288
927,83	1,872
928,00	1,564
928,17	2,366
928,34	2,462
928,51	2,608
928,69	2,166
928,86	2,333
929,03	3,098
929,20	1,687
929,37	2,850
929,55	2,267
929,72	2,477
929,89	1,840
930,06	1,833
930,23	1,535
930,41	2,182
930,58	2,463
930,75	2,582
930,92	2,131
931,09	2,560
931,27	2,173
931,44	2,189
931,61	2,932
931,78	2,132
931,95	1,398
932,12	2,333
932,30	2,806
932,47	2,565
932,64	2,329
932,81	1,979
932,98	1,407
933,16	1,829
933,33	1,808
933,50	2,600
933,67	3,099
933,84	2,725
934,01	1,761
934,18	2,550
934,36	1,355
934,53	1,110
934,70	2,862
934,87	2,279
935,04	2,204
935,21	2,326
935,38	2,223
935,56	1,513
935,73	1,763
935,90	1,455
936,07	3,137
936,24	3,077
936,41	2,509
936,58	1,838
936,76	2,414
936,93	0,442
937,10	2,082
937,27	2,235
937,44	1,716
937,61	2,219
937,78	1,708
937,95	1,305
938,13	1,608
938,30	1,027
938,47	2,777
938,64	2,893
938,81	1,631
938,98	1,972
939,15	2,017
939,32	2,356
939,49	2,332
939,66	1,788
939,84	1,820
940,01	2,283
940,18	1,721
940,35	1,973
940,52	0,635
940,69	2,978
940,86	2,110
941,03	1,086
941,20	2,823
941,37	1,965
941,54	1,166
941,71	1,425
941,89	1,511
942,06	1,330
942,23	2,781
942,40	1,718
942,57	1,850
942,74	2,233
942,91	1,426
943,08	3,015
943,25	2,241
943,42	2,312
943,59	2,048
943,76	3,653
943,93	2,352
944,10	1,970
944,27	1,444
944,44	1,956
944,61	1,661
944,79	1,790
944,96	3,316
945,13	2,176
945,30	0,548
945,47	1,980
945,64	1,822
945,81	3,186
945,98	2,745
946,15	2,688
946,32	2,091
946,49	2,737
946,66	2,808
946,83	3,299
947,00	2,473
947,17	3,017
947,34	3,164
947,51	1,799
947,68	3,241
947,85	3,409
948,02	3,457
948,19	4,715
948,36	3,385
948,53	3,061
948,70	3,725
948,87	4,424
949,04	2,887
949,21	2,182
949,38	3,295
949,55	2,302
949,72	4,151
949,89	3,235
950,06	1,899
950,23	3,274
950,40	4,312
950,57	2,778
950,74	5,699
950,91	4,194
951,08	3,640
951,25	4,581
951,42	4,989
951,59	3,097
951,76	3,904
951,93	4,314
952,10	4,051
952,27	3,667
952,44	4,007
952,61	3,537
952,77	4,559
952,94	3,949
953,11	6,123
953,28	4,607
953,45	4,986
953,62	6,313
953,79	4,256
953,96	6,532
954,13	3,725
954,30	5,499
954,47	6,213
954,64	4,311
954,81	4,045
954,98	7,031
955,15	5,981
955,32	5,301
955,49	4,648
955,65	7,246
955,82	7,223
955,99	6,484
956,16	9,724
956,33	4,881
956,50	7,405
956,67	8,964
956,84	7,926
957,01	6,084
957,18	9,138
957,35	6,134
957,52	6,292
957,68	7,750
957,85	6,553
958,02	11,714
958,19	8,007
958,36	12,500
958,53	8,664
958,70	7,421
958,87	8,415
959,04	10,858
959,21	13,636
959,37	11,688
959,54	13,782
959,71	11,444
959,88	13,721
960,05	12,804
960,22	11,124
960,39	15,200
960,56	13,165
960,72	10,163
960,89	22,560
961,06	16,433
961,23	19,505
961,40	18,038
961,57	16,976
961,74	8,861
961,90	11,406
962,07	15,221
962,24	20,650
962,41	8,878
962,58	21,687
962,75	17,522
962,92	21,682
963,08	14,182
963,25	17,117
963,42	17,874
963,59	20,661
963,76	22,247
963,93	22,654
964,10	25,054
964,26	22,807
964,43	33,333
964,60	24,352
964,77	24,578
964,94	20,455
965,10	36,012
965,27	31,593
965,44	26,494
965,61	25,895
965,78	40,895
965,95	28,443
966,11	37,461
966,28	41,264
966,45	39,252
966,62	37,231
966,79	33,469
966,95	34,627
967,12	38,170
967,29	36,806
967,46	26,515
967,63	25,283
967,79	58,108
967,96	42,857
968,13	44,500
968,30	47,984
968,47	48,454
968,63	54,054
968,80	50,459
968,97	69,712
969,14	51,744
969,31	51,667
969,47	44,118
969,64	75,253
969,81	48,187
969,98	57,143
970,14	61,963
970,31	71,698
970,48	33,333
970,65	69,822
970,81	79,452
970,98	91,971
971,15	107,143
971,32	59,375
971,48	85,714
971,65	56,154
971,82	110,784
971,99	85,057
972,15	80,986
972,32	127,928
972,49	72,028
972,66	137,273
972,82	126,744
972,99	86,992
973,16	116,092
973,33	97,321
973,49	140,000
973,66	106,452
973,83	104,854
974,00	115,116
974,16	145,098
974,33	126,316
974,50	85,263
974,67	166,316
974,83	76,190
975,00	150,526
975,17	135,165
975,33	168,539
975,50	122,388
975,67	204,082
975,84	159,701
976,00	122,472
976,17	214,754
976,34	89,000
976,50	100,000
976,67	131,068
976,84	3233,333
977,00	195,918
977,17	246,667
977,34	190,110
977,50	143,284
977,67	191,071
977,84	185,484
978,01	134,043
978,17	633,333
978,34	266,667
978,51	255,882
978,67	115,789
978,84	138,281
979,01	324,324
979,17	89,744
979,34	110,959
979,51	189,796
979,67	149,383
979,84	283,673
980,01	248,889
980,17	214,085
980,34	433,333
980,51	171,014
980,67	149,412
980,84	436,667
981,01	770,000
981,17	560,000
981,34	1166,667
981,50	197,059
981,67	196,610
981,84	7250,000
982,00	390,000
982,17	233,333
982,34	162,222
982,50	533,333
982,67	160,417
982,84	2900,000
983,00	1066,667
983,17	208,955
983,33	162,069
983,50	1500,000
983,67	-382,759
983,83	206,061
984,00	-1828,571
984,17	694,444
984,33	-5100,000
984,50	471,429
984,66	278,261
984,83	218,182
985,00	-454,167
985,16	531,034
985,33	811,765
985,49	650,000
985,66	379,412
985,83	239,130
985,99	338,462
986,16	-2800,000
986,32	757,143
986,49	7900,000
986,66	406,061
986,82	675,000
986,99	301,887
987,15	-610,526
987,32	-278,571
987,49	198,000
987,65	7200,000
987,82	429,167
987,98	336,735
988,15	460,000
988,31	1120,000
988,48	-1683,333
988,65	295,238
988,81	433,333
988,98	348,780
989,14	314,286
989,31	538,095
989,47	364,706
989,64	-900,000
989,80	543,750
989,97	359,459
990,14	-215,217
990,30	-500,000
990,47	318,367
990,63	325,000
990,80	264,000
990,96	-380,000
991,13	443,750
991,29	575,862
991,46	0,000
991,62	-1107,692
991,79	1108,333
991,95	10800,000
992,12	-1310,000
992,29	-643,750
992,45	181,176
992,62	332,558
992,78	252,273
992,95	-433,333
993,11	492,857
993,28	1130,000
993,44	-1120,000
993,61	-818,750
993,77	-3500,000
993,94	-4400,000
994,10	-136,000
994,27	826,316
994,43	283,721
994,60	0,000
994,76	2400,000
994,93	415,000
995,09	-776,471
995,26	1300,000
995,42	254,902
995,59	680,952
995,75	823,077
995,92	2228,571
996,08	269,444
996,25	-987,500
996,41	-5150,000
996,58	986,667
996,74	411,364
996,91	531,034
997,07	0,000
997,23	13500,000
997,40	-16400,000
997,56	-715,385
997,73	-1037,500
997,89	357,895
998,06	976,923
998,22	-744,444
998,39	584,000
998,55	1555,556
998,72	-1575,000
998,88	-280,000
999,05	-132,051
999,21	280,952
999,37	-793,333
999,54	-925,000
999,70	-383,333
999,87	787,500
1000,03	433,333
1000,20	339,583
1000,36	0,000
1000,52	391,667
1000,69	-552,381
1000,85	-1290,000
1001,02	-454,167
1001,18	2725,000
1001,35	961,538
1001,51	682,353
1001,67	-1138,462
1001,84	-2820,000
1002,00	316,216
1002,17	936,364
1002,33	-3025,000
1002,50	623,810
1002,66	-938,462
1002,82	335,000
1002,99	1071,429
1003,15	-1642,857
1003,32	-827,273
1003,48	378,571
1003,64	693,333
1003,81	503,704
1003,97	-4900,000
1004,14	1036,364
1004,30	306,667
1004,46	-573,333
1004,63	757,143
1004,79	419,444
1004,95	900,000
1005,12	4200,000
1005,28	506,897
1005,45	324,324
1005,61	317,241
1005,77	-220,833
1005,94	-609,524
1006,10	-5900,000
1006,26	923,077
1006,43	-469,231
1006,59	-818,182
1006,76	800,000
1006,92	2077,778
1007,08	11200,000
1007,25	-340,741
1007,41	468,966
1007,57	4050,000
1007,74	1300,000
1007,90	-410,345
1008,06	241,304
1008,23	841,176
1008,39	-581,250
1008,55	-350,000
1008,72	-1771,429
1008,88	0,000
1009,04	363,415
1009,21	-294,737
1009,37	-900,000
1009,53	252,381
1009,70	3433,333
1009,86	-607,143
1010,02	4400,000
1010,19	1054,545
1010,35	236,765
1010,51	-4500,000
1010,68	-1587,500
1010,84	-156,818
1011,00	725,000
1011,17	-422,727
1011,33	0,000
1011,49	-820,000
1011,66	850,000
1011,82	554,839
1011,98	892,857
1012,14	-727,273
1012,31	328,205
1012,47	0,000
1012,63	2416,667
1012,80	835,714
1012,96	-1075,000
1013,12	-1650,000
1013,29	544,444
1013,45	404,878
1013,61	4566,667
1013,77	-126,786
1013,94	3000,000
1014,10	171,186
1014,26	-3050,000
1014,43	-212,000
1014,59	640,000
1014,75	-627,778
1014,91	-406,667
1015,08	383,333
1015,24	11000,000
1015,40	752,941
1015,56	-12800,000
1015,73	304,762
1015,89	690,909
1016,05	3825,000
1016,21	-900,000
1016,38	589,474
1016,54	969,231
1016,70	-4300,000
1016,86	521,875
1017,03	1043,750
1017,19	-646,154
1017,35	-794,118
1017,51	-1600,000
1017,68	-860,000
1017,84	-2242,857
1018,00	423,810
1018,16	426,923
1018,33	-1471,429
1018,49	-925,000
1018,65	-262,162
1018,81	305,128
1018,97	-1614,286
1019,14	-2566,667
1019,30	-158,974
1019,46	0,000
1019,62	-488,235
1019,79	-3833,333
1019,95	1150,000
1020,11	8150,000
1020,27	-266,667
1020,43	-476,923
1020,60	2150,000
1020,76	727,778
1020,92	660,000
1021,08	600,000
1021,24	1310,000
1021,41	1266,667
1021,57	1850,000
1021,73	915,385
1021,89	2560,000
1022,05	-310,714
1022,21	710,000
1022,38	-691,667
1022,54	-2050,000
1022,70	382,222
1022,86	-1500,000
1023,02	604,167
1023,19	2080,000
1023,35	6066,667
1023,51	358,333
1023,67	344,444
1023,83	-712,500
1023,99	384,211
1024,16	-334,615
1024,32	-1077,778
1024,48	-1070,000
1024,64	340,476
1024,80	382,609
1024,96	394,872
1025,12	657,143
1025,29	576,190
1025,45	331,579
1025,61	738,889
1025,77	-2660,000
1025,93	-10400,000
1026,09	-2171,429
1026,26	991,667
1026,42	581,250
1026,58	336,364
1026,74	2266,667
1026,90	376,000
1027,06	296,429
1027,22	921,429
1027,38	230,769
1027,55	4133,333
1027,71	966,667
1027,87	-480,000
1028,03	850,000
1028,19	453,125
1028,35	745,000
1028,51	1960,000
1028,67	791,667
1028,83	-1900,000
1029,00	-316,667
1029,16	990,000
1029,32	-371,429
1029,48	291,111
1029,64	336,111
1029,80	5000,000
1029,96	713,333
1030,12	569,565
1030,28	-3133,333
1030,44	-530,769
1030,61	-425,000
1030,77	-240,000
1030,93	-453,333
1031,09	1666,667
1031,25	-11600,000
1031,41	-340,000
1031,57	396,154
1031,73	837,500
1031,89	-1109,091
1032,05	-414,815
1032,21	936,364
1032,37	-148,148
1032,53	-1014,286
1032,69	-387,500
1032,86	370,370
1033,02	-250,000
1033,18	-443,750
1033,34	521,053
1033,50	-6000,000
1033,66	-278,049
1033,82	491,304
1033,98	-377,778
1034,14	182,051
1034,30	445,161
1034,46	-3233,333
1034,62	635,000
1034,78	-471,429
1034,94	328,947
1035,10	-669,231
1035,26	-239,535
1035,42	-275,862
1035,58	-372,222
1035,74	1108,333
1035,90	-1307,692
1036,06	-1416,667
1036,22	1133,333
1036,38	-764,706
1036,54	-533,333
1036,70	-212,121
1036,86	7500,000
1037,02	600,000
1037,18	731,579
1037,34	191,429
1037,50	-112,195
1037,66	-441,176
1037,82	2820,000
1037,98	-440,741
1038,14	-480,000
1038,30	-850,000
1038,46	-385,714
1038,62	530,435
1038,78	-3966,667
1038,94	-468,421
1039,10	395,455
1039,26	318,519
1039,42	-933,333
1039,58	1400,000
1039,74	-484,211
1039,90	343,750
1040,06	-453,846
>>>>>End Processed Spectral Data<<<<<
