SpectraSuite Data File
++++++++++++++++++++++++++++++++++++
Date: Wed Feb 01 16:21:28 EET 2017
User: optolab
Dark Spectrum Present: Yes
Reference Spectrum Present: Yes
Number of Sampled Component Spectra: 1
Spectrometers: USB4C02475
Integration Time (usec): 100000 (USB4C02475)
Spectra Averaged: 1 (USB4C02475)
Boxcar Smoothing: 0 (USB4C02475)
Correct for Electrical Dark: No (USB4C02475)
Strobe/Lamp Enabled: No (USB4C02475)
Correct for Detector Non-linearity: No (USB4C02475)
Correct for Stray Light: No (USB4C02475)
Number of Pixels in Processed Spectrum: 3648
>>>>>Begin Processed Spectral Data<<<<<
344,91	3200,000
345,13	3200,000
345,35	3200,000
345,57	0,000
345,79	431,579
346,00	-1988,889
346,22	-1885,714
346,44	476,471
346,66	-541,667
346,87	-12200,000
347,09	448,485
347,31	-418,182
347,53	-241,026
347,74	240,000
347,96	403,030
348,18	810,526
348,40	477,419
348,61	1094,118
348,83	335,714
349,05	268,627
349,27	-5600,000
349,48	607,692
349,70	-427,586
349,92	377,419
350,14	294,340
350,35	310,000
350,57	3475,000
350,79	636,000
351,01	-814,286
351,22	303,704
351,44	946,154
351,66	-372,000
351,87	-638,095
352,09	259,615
352,31	268,852
352,53	240,625
352,74	419,444
352,96	270,130
353,18	784,211
353,40	464,000
353,61	282,222
353,83	408,824
354,05	890,909
354,26	2233,333
354,48	258,000
354,70	506,061
354,92	-272,414
355,13	210,101
355,35	325,000
355,57	633,333
355,78	251,807
356,00	-3225,000
356,22	480,769
356,44	6150,000
356,65	356,818
356,87	376,923
357,09	683,333
357,30	291,111
357,52	265,517
357,74	865,000
357,95	292,308
358,17	208,197
358,39	296,774
358,60	340,541
358,82	504,167
359,04	477,778
359,26	411,429
359,47	9700,000
359,69	300,000
359,91	442,424
360,12	442,857
360,34	654,167
360,56	-127,778
360,77	3575,000
360,99	600,000
361,21	338,000
361,42	4950,000
361,64	236,735
361,86	243,077
362,07	-519,355
362,29	216,000
362,51	-582,353
362,72	680,000
362,94	391,176
363,16	283,721
363,37	-892,857
363,59	400,000
363,81	309,091
364,02	611,111
364,24	629,167
364,46	3033,333
364,67	954,545
364,89	2228,571
365,11	164,286
365,32	465,517
365,54	316,667
365,76	306,122
365,97	476,471
366,19	265,517
366,41	636,364
366,62	429,630
366,84	311,628
367,05	285,714
367,27	1466,667
367,49	-1015,385
367,70	688,235
367,92	268,852
368,14	360,417
368,35	-12400,000
368,57	500,000
368,79	517,241
369,00	317,391
369,22	-1012,500
369,43	270,588
369,65	261,290
369,87	367,568
370,08	137,349
370,30	196,429
370,51	254,098
370,73	240,000
370,95	220,968
371,16	211,905
371,38	366,667
371,60	1237,500
371,81	235,938
372,03	686,667
372,24	506,667
372,46	292,453
372,68	194,286
372,89	460,606
373,11	515,385
373,32	281,818
373,54	-1261,538
373,76	946,154
373,97	853,333
374,19	568,182
374,40	317,187
374,62	-3600,000
374,84	5300,000
375,05	432,143
375,27	366,000
375,48	-11800,000
375,70	162,667
375,92	285,714
376,13	425,000
376,35	249,315
376,56	993,750
376,78	188,889
376,99	407,143
377,21	258,333
377,43	201,515
377,64	184,058
377,86	527,586
378,07	364,103
378,29	-1000,000
378,51	606,452
378,72	314,583
378,94	-1177,778
379,15	439,394
379,37	905,882
379,58	235,385
379,80	726,667
380,01	706,250
380,23	278,431
380,45	2240,000
380,66	4366,667
380,88	329,545
381,09	215,714
381,31	147,778
381,52	256,863
381,74	1255,556
381,95	663,636
382,17	576,923
382,39	571,429
382,60	269,388
382,82	358,974
383,03	380,769
383,25	364,516
383,46	309,091
383,68	592,593
383,89	440,000
384,11	338,710
384,32	-4233,333
384,54	600,000
384,76	-2400,000
384,97	381,818
385,19	506,897
385,40	305,882
385,62	235,088
385,83	345,238
386,05	184,314
386,26	260,000
386,48	210,345
386,69	237,500
386,91	475,000
387,12	281,356
387,34	293,103
387,55	200,000
387,77	606,250
387,98	515,385
388,20	218,478
388,41	302,941
388,63	8900,000
388,84	211,475
389,06	264,286
389,27	631,579
389,49	452,778
389,70	275,510
389,92	403,333
390,13	232,653
390,35	258,824
390,56	325,926
390,78	522,222
390,99	830,000
391,21	678,947
391,42	253,333
391,64	334,146
391,85	262,069
392,07	240,909
392,28	130,667
392,50	384,848
392,71	-800,000
392,93	271,154
393,14	458,333
393,36	300,000
393,57	124,060
393,79	566,667
394,00	280,851
394,22	152,055
394,43	197,590
394,65	197,674
394,86	1312,500
395,08	666,667
395,29	173,585
395,50	430,769
395,72	761,111
395,93	566,667
396,15	191,549
396,36	211,765
396,58	210,000
396,79	375,000
397,01	266,000
397,22	322,222
397,44	246,970
397,65	247,368
397,87	259,524
398,08	171,429
398,29	346,875
398,51	226,786
398,72	226,829
398,94	160,000
399,15	377,143
399,37	196,491
399,58	181,319
399,80	595,455
400,01	218,519
400,22	290,476
400,44	208,642
400,65	407,143
400,87	189,706
401,08	170,000
401,30	282,609
401,51	222,807
401,72	284,615
401,94	177,215
402,15	740,000
402,37	146,218
402,58	700,000
402,80	251,429
403,01	222,535
403,22	1318,182
403,44	214,493
403,65	150,000
403,87	205,714
404,08	417,949
404,30	170,588
404,51	-3100,000
404,72	151,429
404,94	150,980
405,15	178,000
405,37	175,949
405,58	157,647
405,79	142,683
406,01	326,829
406,22	187,931
406,44	221,277
406,65	194,737
406,86	179,167
407,08	162,025
407,29	141,748
407,51	152,439
407,72	150,000
407,93	123,913
408,15	101,709
408,36	274,419
408,58	151,546
408,79	80,833
409,00	136,458
409,22	211,111
409,43	156,962
409,64	84,472
409,86	59,748
410,07	93,077
410,29	79,851
410,50	109,220
410,71	108,929
410,93	76,433
411,14	128,682
411,35	94,643
411,57	83,553
411,78	76,563
412,00	88,535
412,21	77,419
412,42	82,540
412,64	65,236
412,85	53,608
413,06	60,976
413,28	46,847
413,49	85,782
413,70	62,681
413,92	52,964
414,13	31,535
414,34	51,341
414,56	44,755
414,77	56,962
414,98	44,295
415,20	49,827
415,41	38,527
415,63	38,806
415,84	45,556
416,05	47,802
416,27	40,052
416,48	56,742
416,69	42,257
416,91	41,892
417,12	36,898
417,33	49,684
417,55	45,674
417,76	54,620
417,97	51,867
418,19	50,497
418,40	57,447
418,61	55,370
418,83	52,909
419,04	48,738
419,25	56,854
419,46	48,271
419,68	55,397
419,89	46,349
420,10	50,748
420,32	46,575
420,53	46,388
420,74	43,583
420,96	44,875
421,17	47,921
421,38	42,437
421,60	35,651
421,81	45,558
422,02	41,588
422,23	47,793
422,45	40,662
422,66	43,049
422,87	43,069
423,09	43,606
423,30	46,414
423,51	47,323
423,73	47,487
423,94	46,078
424,15	46,667
424,36	49,859
424,58	46,000
424,79	51,905
425,00	50,588
425,22	51,205
425,43	53,508
425,64	50,968
425,85	46,518
426,07	53,603
426,28	48,019
426,49	47,657
426,71	48,099
426,92	46,283
427,13	47,516
427,34	46,870
427,56	48,073
427,77	45,184
427,98	46,448
428,19	45,441
428,41	45,836
428,62	45,602
428,83	43,729
429,04	43,541
429,26	43,361
429,47	40,938
429,68	41,726
429,89	40,941
430,11	39,925
430,32	39,670
430,53	38,675
430,74	39,877
430,96	40,000
431,17	40,231
431,38	42,628
431,59	42,227
431,81	44,170
432,02	43,689
432,23	45,388
432,44	46,571
432,66	50,170
432,87	51,765
433,08	53,919
433,29	53,849
433,51	57,774
433,72	61,880
433,93	60,463
434,14	60,927
434,35	64,697
434,57	64,382
434,78	67,776
434,99	67,406
435,20	67,944
435,42	69,276
435,63	69,899
435,84	71,331
436,05	70,269
436,26	71,210
436,48	73,531
436,69	74,847
436,90	75,389
437,11	76,428
437,32	76,976
437,54	75,554
437,75	75,296
437,96	75,090
438,17	72,935
438,38	72,910
438,60	69,639
438,81	67,535
439,02	67,795
439,23	63,645
439,44	60,495
439,66	60,268
439,87	58,446
440,08	56,716
440,29	55,849
440,50	55,098
440,72	53,663
440,93	53,854
441,14	54,907
441,35	54,413
441,56	53,058
441,77	53,800
441,99	54,734
442,20	54,772
442,41	53,936
442,62	55,523
442,83	55,710
443,04	55,186
443,26	55,759
443,47	56,174
443,68	56,878
443,89	57,220
444,10	58,885
444,31	59,733
444,53	60,522
444,74	60,755
444,95	60,972
445,16	62,580
445,37	61,374
445,58	61,272
445,80	61,176
446,01	60,465
446,22	58,877
446,43	57,773
446,64	55,165
446,85	53,596
447,06	50,605
447,28	48,109
447,49	46,453
447,70	44,773
447,91	42,044
448,12	40,913
448,33	39,293
448,54	38,189
448,76	36,591
448,97	36,378
449,18	35,619
449,39	34,744
449,60	35,101
449,81	34,830
450,02	34,488
450,23	33,453
450,45	33,020
450,66	31,678
450,87	30,414
451,08	29,345
451,29	29,610
451,50	27,286
451,71	25,596
451,92	23,971
452,13	22,544
452,35	21,170
452,56	19,817
452,77	18,069
452,98	16,562
453,19	15,024
453,40	13,510
453,61	13,046
453,82	10,984
454,03	9,872
454,25	9,549
454,46	8,150
454,67	7,230
454,88	6,205
455,09	5,448
455,30	4,872
455,51	4,081
455,72	3,387
455,93	3,005
456,14	3,125
456,35	2,689
456,56	2,199
456,78	1,990
456,99	1,906
457,20	1,764
457,41	1,515
457,62	1,220
457,83	1,319
458,04	1,046
458,25	0,881
458,46	0,753
458,67	0,867
458,88	1,068
459,09	0,799
459,30	0,726
459,51	0,749
459,73	0,591
459,94	0,922
460,15	0,703
460,36	0,689
460,57	0,756
460,78	0,544
460,99	0,571
461,20	0,590
461,41	0,610
461,62	0,562
461,83	0,802
462,04	0,682
462,25	0,703
462,46	0,670
462,67	0,510
462,88	0,648
463,09	0,536
463,30	0,634
463,51	0,675
463,72	0,697
463,93	0,592
464,15	0,530
464,36	0,549
464,57	0,574
464,78	0,543
464,99	0,480
465,20	0,563
465,41	0,626
465,62	0,421
465,83	0,558
466,04	0,509
466,25	0,493
466,46	0,493
466,67	0,525
466,88	0,482
467,09	0,548
467,30	0,411
467,51	0,630
467,72	0,548
467,93	0,515
468,14	0,469
468,35	0,444
468,56	0,388
468,77	0,553
468,98	0,544
469,19	0,495
469,40	0,561
469,61	0,503
469,82	0,427
470,03	0,645
470,24	0,705
470,45	0,551
470,66	0,503
470,87	0,514
471,08	0,523
471,29	0,636
471,50	0,601
471,71	0,443
471,92	0,692
472,13	0,569
472,34	0,598
472,55	0,614
472,76	0,692
472,97	0,528
473,18	0,463
473,39	0,462
473,60	0,840
473,81	0,554
474,01	0,550
474,22	0,743
474,43	0,803
474,64	0,640
474,85	0,429
475,06	0,639
475,27	0,663
475,48	0,571
475,69	0,542
475,90	0,692
476,11	0,798
476,32	0,657
476,53	0,688
476,74	0,799
476,95	0,734
477,16	0,650
477,37	0,812
477,58	0,640
477,79	0,777
478,00	0,725
478,21	0,550
478,41	0,646
478,62	0,785
478,83	0,635
479,04	0,718
479,25	0,567
479,46	0,451
479,67	0,819
479,88	0,827
480,09	0,687
480,30	0,895
480,51	0,873
480,72	0,796
480,93	0,929
481,14	0,837
481,34	0,559
481,55	0,563
481,76	0,585
481,97	0,643
482,18	0,683
482,39	0,665
482,60	0,556
482,81	0,892
483,02	0,547
483,23	0,724
483,44	0,774
483,65	0,840
483,85	0,588
484,06	0,695
484,27	0,563
484,48	0,595
484,69	0,776
484,90	0,813
485,11	0,832
485,32	0,730
485,53	0,777
485,73	0,985
485,94	0,522
486,15	0,946
486,36	0,570
486,57	0,809
486,78	1,027
486,99	0,857
487,20	0,788
487,41	0,757
487,61	0,788
487,82	1,077
488,03	1,032
488,24	0,980
488,45	0,913
488,66	1,251
488,87	1,351
489,08	1,574
489,28	1,807
489,49	2,127
489,70	2,476
489,91	3,046
490,12	3,468
490,33	4,024
490,54	4,814
490,74	5,645
490,95	6,615
491,16	7,439
491,37	8,602
491,58	9,534
491,79	10,526
492,00	11,848
492,20	13,756
492,41	15,106
492,62	16,472
492,83	18,438
493,04	20,384
493,25	22,485
493,45	24,879
493,66	26,567
493,87	29,339
494,08	30,829
494,29	33,304
494,50	35,762
494,70	38,351
494,91	40,979
495,12	42,742
495,33	45,204
495,54	47,849
495,75	49,874
495,95	52,278
496,16	55,029
496,37	57,641
496,58	59,913
496,79	63,281
496,99	64,963
497,20	68,077
497,41	69,605
497,62	71,034
497,83	73,786
498,04	73,575
498,24	75,255
498,45	76,698
498,66	77,383
498,87	78,547
499,08	78,551
499,28	78,994
499,49	78,624
499,70	78,578
499,91	78,175
500,12	77,160
500,32	75,982
500,53	75,597
500,74	73,802
500,95	72,477
501,15	71,141
501,36	70,116
501,57	70,213
501,78	68,054
501,99	66,705
502,19	65,167
502,40	64,115
502,61	63,330
502,82	62,844
503,02	61,008
503,23	60,422
503,44	60,241
503,65	58,565
503,86	56,271
504,06	55,740
504,27	55,477
504,48	55,197
504,69	53,710
504,89	53,725
505,10	53,295
505,31	53,671
505,52	53,140
505,72	53,209
505,93	52,120
506,14	52,723
506,35	53,058
506,55	52,433
506,76	52,709
506,97	52,911
507,18	52,725
507,38	53,491
507,59	52,529
507,80	52,350
508,01	52,873
508,21	52,430
508,42	52,659
508,63	52,260
508,84	51,972
509,04	51,517
509,25	52,591
509,46	51,500
509,67	51,468
509,87	51,227
510,08	50,894
510,29	50,364
510,49	49,752
510,70	48,883
510,91	48,691
511,12	49,068
511,32	48,103
511,53	47,073
511,74	47,537
511,94	47,386
512,15	47,228
512,36	48,140
512,57	47,837
512,77	49,541
512,98	49,365
513,19	50,494
513,39	51,287
513,60	53,002
513,81	54,283
514,01	55,634
514,22	56,527
514,43	58,595
514,64	60,345
514,84	62,796
515,05	64,344
515,26	65,554
515,46	67,501
515,67	69,839
515,88	71,262
516,08	72,699
516,29	74,290
516,50	75,942
516,70	76,463
516,91	78,227
517,12	78,700
517,32	80,088
517,53	80,347
517,74	80,369
517,95	79,422
518,15	79,630
518,36	79,027
518,57	78,020
518,77	77,079
518,98	75,680
519,19	74,324
519,39	72,448
519,60	70,544
519,80	68,867
520,01	66,209
520,22	64,269
520,42	62,552
520,63	59,673
520,84	58,178
521,04	56,116
521,25	53,794
521,46	52,071
521,66	50,659
521,87	48,341
522,08	46,669
522,28	44,559
522,49	42,918
522,70	41,432
522,90	39,228
523,11	38,210
523,31	36,421
523,52	33,900
523,73	32,402
523,93	29,956
524,14	27,506
524,35	26,106
524,55	24,184
524,76	22,389
524,97	21,539
525,17	18,808
525,38	17,494
525,58	16,034
525,79	15,081
526,00	14,162
526,20	13,408
526,41	12,162
526,61	11,740
526,82	10,641
527,03	10,107
527,23	9,194
527,44	8,773
527,64	8,211
527,85	7,692
528,06	7,064
528,26	6,599
528,47	5,690
528,68	4,902
528,88	4,451
529,09	3,652
529,29	3,165
529,50	2,464
529,70	2,373
529,91	2,110
530,12	1,493
530,32	1,153
530,53	1,324
530,73	0,958
530,94	0,740
531,15	0,831
531,35	0,658
531,56	0,684
531,76	0,643
531,97	0,795
532,17	0,563
532,38	0,648
532,59	0,698
532,79	0,705
533,00	0,774
533,20	0,638
533,41	0,637
533,61	0,586
533,82	0,658
534,03	0,463
534,23	0,690
534,44	0,657
534,64	0,652
534,85	0,573
535,05	0,733
535,26	0,570
535,46	0,581
535,67	0,642
535,88	0,583
536,08	0,573
536,29	0,548
536,49	0,682
536,70	0,428
536,90	0,697
537,11	0,621
537,31	0,516
537,52	0,611
537,72	0,759
537,93	0,523
538,13	0,585
538,34	0,656
538,55	0,694
538,75	0,467
538,96	0,521
539,16	0,508
539,37	0,510
539,57	0,596
539,78	0,627
539,98	0,513
540,19	0,615
540,39	0,662
540,60	0,516
540,80	0,798
541,01	0,581
541,21	0,574
541,42	0,563
541,62	0,396
541,83	0,538
542,03	0,611
542,24	0,310
542,44	0,714
542,65	0,470
542,85	0,618
543,06	0,593
543,26	0,488
543,47	0,456
543,67	0,551
543,88	0,727
544,08	0,512
544,29	0,651
544,49	0,517
544,70	0,786
544,90	0,489
545,11	0,410
545,31	0,588
545,52	0,445
545,72	0,718
545,93	0,528
546,13	0,555
546,34	0,377
546,54	0,454
546,75	0,492
546,95	0,506
547,15	0,556
547,36	0,531
547,56	0,720
547,77	0,664
547,97	0,544
548,18	0,515
548,38	0,533
548,59	0,548
548,79	0,399
549,00	0,438
549,20	0,590
549,41	0,652
549,61	0,625
549,81	0,458
550,02	0,834
550,22	0,540
550,43	0,508
550,63	0,474
550,84	0,527
551,04	0,598
551,25	0,650
551,45	0,522
551,65	0,515
551,86	0,599
552,06	0,603
552,27	0,529
552,47	0,639
552,68	0,651
552,88	0,428
553,08	0,313
553,29	0,647
553,49	0,489
553,70	0,533
553,90	0,506
554,11	0,512
554,31	0,526
554,51	0,554
554,72	0,477
554,92	0,718
555,13	0,640
555,33	0,682
555,53	0,839
555,74	0,487
555,94	0,635
556,15	0,438
556,35	0,426
556,56	0,653
556,76	0,630
556,96	0,559
557,17	0,767
557,37	0,605
557,58	0,507
557,78	0,547
557,98	0,491
558,19	0,599
558,39	0,758
558,59	0,646
558,80	0,645
559,00	0,569
559,21	0,468
559,41	0,510
559,61	0,511
559,82	0,560
560,02	0,468
560,23	0,792
560,43	0,597
560,63	0,580
560,84	0,415
561,04	0,522
561,24	0,633
561,45	0,549
561,65	0,519
561,85	0,750
562,06	0,534
562,26	0,560
562,47	0,734
562,67	0,565
562,87	0,673
563,08	0,468
563,28	0,654
563,48	0,755
563,69	0,493
563,89	0,626
564,09	0,687
564,30	0,576
564,50	0,821
564,70	0,672
564,91	0,675
565,11	0,386
565,31	0,819
565,52	0,818
565,72	0,765
565,92	0,679
566,13	0,564
566,33	0,569
566,53	0,686
566,74	0,616
566,94	0,544
567,14	0,563
567,35	0,624
567,55	0,643
567,75	0,604
567,96	0,723
568,16	0,803
568,36	0,710
568,57	0,857
568,77	0,662
568,97	0,848
569,18	0,901
569,38	1,085
569,58	1,123
569,79	1,271
569,99	1,452
570,19	1,569
570,39	1,881
570,60	1,834
570,80	2,465
571,00	2,656
571,21	3,266
571,41	3,547
571,61	4,394
571,82	4,785
572,02	5,682
572,22	6,534
572,42	7,208
572,63	8,471
572,83	9,553
573,03	10,683
573,24	11,888
573,44	13,517
573,64	15,059
573,84	16,815
574,05	18,996
574,25	21,125
574,45	22,286
574,66	24,251
574,86	26,504
575,06	27,850
575,26	29,503
575,47	31,865
575,67	33,448
575,87	35,496
576,07	36,886
576,28	38,100
576,48	39,613
576,68	40,292
576,88	40,994
577,09	42,353
577,29	42,730
577,49	44,584
577,69	44,410
577,90	44,392
578,10	44,077
578,30	44,872
578,50	45,310
578,71	45,689
578,91	45,086
579,11	45,358
579,31	45,029
579,52	45,791
579,72	45,587
579,92	45,418
580,12	46,139
580,33	46,697
580,53	46,776
580,73	47,382
580,93	47,832
581,13	48,734
581,34	50,266
581,54	50,604
581,74	52,270
581,94	53,995
582,15	54,592
582,35	56,161
582,55	59,120
582,75	61,195
582,95	63,571
583,16	66,199
583,36	68,655
583,56	71,369
583,76	73,881
583,96	77,717
584,17	79,692
584,37	82,834
584,57	83,921
584,77	85,923
584,97	87,694
585,18	88,530
585,38	89,203
585,58	90,406
585,78	91,602
585,98	91,315
586,19	91,943
586,39	91,420
586,59	91,566
586,79	92,602
586,99	93,372
587,20	92,445
587,40	93,367
587,60	92,779
587,80	93,675
588,00	93,186
588,20	92,573
588,41	94,164
588,61	93,760
588,81	93,839
589,01	93,174
589,21	93,003
589,41	93,678
589,62	94,904
589,82	94,664
590,02	94,143
590,22	94,821
590,42	95,308
590,62	95,226
590,83	94,090
591,03	95,221
591,23	95,271
591,43	94,664
591,63	94,363
591,83	95,389
592,03	94,018
592,24	94,735
592,44	94,555
592,64	94,254
592,84	94,637
593,04	93,850
593,24	93,127
593,44	93,984
593,65	92,853
593,85	92,962
594,05	91,683
594,25	91,754
594,45	91,463
594,65	91,475
594,85	91,575
595,06	91,489
595,26	91,884
595,46	91,427
595,66	90,999
595,86	91,152
596,06	90,670
596,26	91,479
596,46	91,192
596,66	91,498
596,87	92,113
597,07	92,783
597,27	92,657
597,47	92,802
597,67	92,773
597,87	92,452
598,07	91,756
598,27	92,966
598,47	93,036
598,67	93,070
598,88	93,994
599,08	93,296
599,28	93,852
599,48	92,815
599,68	93,104
599,88	93,281
600,08	93,038
600,28	93,455
600,48	94,834
600,68	92,514
600,88	93,391
601,09	93,435
601,29	91,544
601,49	93,211
601,69	92,526
601,89	93,029
602,09	92,991
602,29	91,789
602,49	91,832
602,69	91,015
602,89	90,490
603,09	90,261
603,29	89,266
603,49	88,439
603,69	88,398
603,90	86,479
604,10	85,756
604,30	84,291
604,50	84,184
604,70	82,071
604,90	81,077
605,10	80,404
605,30	79,083
605,50	78,528
605,70	77,121
605,90	75,916
606,10	73,762
606,30	72,992
606,50	72,229
606,70	71,856
606,90	70,173
607,10	69,994
607,30	69,463
607,50	67,749
607,70	67,760
607,90	67,182
608,10	66,060
608,30	65,144
608,50	65,327
608,70	63,519
608,90	63,779
609,11	62,220
609,31	61,410
609,51	60,876
609,71	59,745
609,91	58,139
610,11	57,603
610,31	57,032
610,51	55,220
610,71	54,678
610,91	52,767
611,11	52,036
611,31	50,736
611,51	49,322
611,71	49,317
611,91	47,123
612,11	46,780
612,31	45,696
612,51	44,924
612,71	43,529
612,91	43,333
613,11	41,978
613,31	42,236
613,51	41,314
613,71	40,831
613,91	40,684
614,11	41,176
614,31	40,261
614,50	40,823
614,70	40,449
614,90	40,611
615,10	40,779
615,30	40,693
615,50	40,232
615,70	40,710
615,90	41,338
616,10	41,145
616,30	41,454
616,50	41,813
616,70	41,671
616,90	42,595
617,10	41,851
617,30	42,810
617,50	42,412
617,70	42,597
617,90	43,061
618,10	43,036
618,30	42,631
618,50	42,365
618,70	42,806
618,90	42,621
619,10	41,862
619,30	42,117
619,49	41,912
619,69	41,224
619,89	41,010
620,09	40,928
620,29	40,492
620,49	40,169
620,69	39,696
620,89	39,053
621,09	38,619
621,29	38,276
621,49	36,894
621,69	36,917
621,89	36,118
622,09	35,114
622,29	35,300
622,48	34,927
622,68	33,841
622,88	33,199
623,08	32,961
623,28	32,121
623,48	32,130
623,68	31,718
623,88	30,967
624,08	31,024
624,28	31,061
624,48	30,677
624,67	29,921
624,87	29,718
625,07	30,147
625,27	29,254
625,47	29,787
625,67	29,657
625,87	29,145
626,07	29,365
626,27	28,756
626,47	28,315
626,66	28,359
626,86	27,833
627,06	27,316
627,26	26,485
627,46	25,250
627,66	24,320
627,86	22,959
628,06	21,612
628,25	19,958
628,45	18,953
628,65	17,160
628,85	15,605
629,05	13,845
629,25	12,182
629,45	10,779
629,65	9,623
629,84	8,172
630,04	7,273
630,24	6,387
630,44	5,180
630,64	4,715
630,84	3,922
631,04	3,159
631,23	2,633
631,43	2,319
631,63	1,942
631,83	1,615
632,03	1,609
632,23	1,141
632,42	0,973
632,62	1,040
632,82	0,799
633,02	0,763
633,22	0,833
633,42	0,732
633,62	0,634
633,81	0,849
634,01	0,525
634,21	0,500
634,41	0,851
634,61	0,591
634,80	0,603
635,00	0,459
635,20	0,614
635,40	0,812
635,60	0,637
635,80	0,356
635,99	0,662
636,19	0,547
636,39	0,636
636,59	0,760
636,79	0,630
636,98	0,650
637,18	0,620
637,38	0,619
637,58	0,495
637,78	0,502
637,97	0,582
638,17	0,784
638,37	0,701
638,57	0,696
638,77	0,775
638,96	0,776
639,16	0,634
639,36	0,662
639,56	0,730
639,76	1,049
639,95	0,588
640,15	0,727
640,35	0,855
640,55	0,546
640,75	0,889
640,94	0,793
641,14	0,828
641,34	0,716
641,54	0,950
641,73	0,801
641,93	0,749
642,13	0,590
642,33	0,975
642,53	0,696
642,72	0,844
642,92	0,700
643,12	0,467
643,32	0,869
643,51	0,833
643,71	0,612
643,91	0,397
644,11	0,990
644,30	0,872
644,50	0,753
644,70	0,239
644,90	0,565
645,09	0,597
645,29	0,268
645,49	0,753
645,69	0,775
645,88	0,942
646,08	0,934
646,28	1,184
646,48	0,929
646,67	0,756
646,87	0,827
647,07	0,537
647,26	1,115
647,46	0,795
647,66	0,845
647,86	0,834
648,05	1,044
648,25	0,781
648,45	1,008
648,65	0,748
648,84	0,706
649,04	0,708
649,24	1,106
649,43	0,655
649,63	0,961
649,83	1,008
650,03	1,037
650,22	0,754
650,42	0,861
650,62	0,536
650,81	0,767
651,01	1,082
651,21	0,862
651,40	0,646
651,60	0,766
651,80	0,509
652,00	0,970
652,19	1,168
652,39	0,974
652,59	0,860
652,78	1,115
652,98	0,822
653,18	0,530
653,37	0,821
653,57	0,856
653,77	0,836
653,96	0,790
654,16	0,863
654,36	0,845
654,55	1,202
654,75	1,079
654,95	1,344
655,14	0,830
655,34	1,072
655,54	0,663
655,73	0,933
655,93	1,116
656,13	0,933
656,32	0,500
656,52	0,874
656,72	1,288
656,91	1,166
657,11	0,706
657,31	0,592
657,50	0,974
657,70	0,772
657,90	0,964
658,09	0,490
658,29	1,360
658,49	0,784
658,68	1,009
658,88	0,982
659,07	0,612
659,27	0,554
659,47	1,259
659,66	0,740
659,86	0,985
660,06	0,864
660,25	0,547
660,45	1,243
660,64	0,796
660,84	0,724
661,04	0,848
661,23	0,947
661,43	0,803
661,63	0,871
661,82	0,216
662,02	0,927
662,21	0,884
662,41	0,817
662,61	0,754
662,80	0,397
663,00	0,751
663,19	0,939
663,39	1,204
663,59	1,263
663,78	0,578
663,98	0,741
664,17	0,745
664,37	1,129
664,57	1,103
664,76	1,173
664,96	0,857
665,15	0,601
665,35	0,938
665,55	0,684
665,74	0,846
665,94	0,664
666,13	0,954
666,33	0,500
666,53	0,828
666,72	0,750
666,92	1,222
667,11	0,893
667,31	0,824
667,50	0,741
667,70	0,938
667,90	0,944
668,09	0,879
668,29	0,771
668,48	0,965
668,68	0,799
668,87	0,489
669,07	1,163
669,26	0,808
669,46	0,804
669,66	0,741
669,85	1,003
670,05	0,543
670,24	0,633
670,44	0,708
670,63	0,578
670,83	0,828
671,02	1,066
671,22	1,162
671,42	0,579
671,61	1,024
671,81	0,771
672,00	0,998
672,20	0,745
672,39	0,341
672,59	0,620
672,78	0,743
672,98	0,636
673,17	0,704
673,37	0,621
673,56	0,567
673,76	0,956
673,95	0,714
674,15	0,671
674,34	0,498
674,54	0,856
674,73	0,995
674,93	0,557
675,13	0,537
675,32	0,483
675,52	0,783
675,71	0,819
675,91	0,753
676,10	0,460
676,30	0,519
676,49	0,713
676,69	0,914
676,88	0,787
677,08	0,543
677,27	0,623
677,47	0,778
677,66	0,870
677,86	0,859
678,05	0,909
678,24	0,584
678,44	0,943
678,63	0,381
678,83	0,687
679,02	0,733
679,22	0,405
679,41	0,497
679,61	0,375
679,80	0,537
680,00	0,451
680,19	0,464
680,39	0,676
680,58	0,568
680,78	0,422
680,97	0,264
681,17	0,511
681,36	0,456
681,56	0,665
681,75	0,369
681,94	0,464
682,14	0,740
682,33	0,725
682,53	0,786
682,72	0,611
682,92	0,794
683,11	0,730
683,31	0,465
683,50	0,422
683,69	0,239
683,89	0,522
684,08	0,548
684,28	0,376
684,47	0,809
684,67	0,401
684,86	0,181
685,06	0,420
685,25	0,454
685,44	0,440
685,64	0,408
685,83	0,419
686,03	0,180
686,22	0,547
686,42	0,382
686,61	0,462
686,80	0,347
687,00	0,513
687,19	0,512
687,39	0,328
687,58	0,332
687,77	0,250
687,97	0,546
688,16	0,162
688,36	0,278
688,55	0,366
688,74	0,435
688,94	0,264
689,13	0,446
689,33	0,401
689,52	0,362
689,71	0,456
689,91	0,270
690,10	0,354
690,30	0,418
690,49	0,509
690,68	0,409
690,88	0,588
691,07	0,419
691,27	0,379
691,46	0,243
691,65	0,448
691,85	0,463
692,04	0,210
692,23	0,248
692,43	0,383
692,62	0,428
692,82	0,364
693,01	0,381
693,20	0,668
693,40	0,328
693,59	0,451
693,78	0,597
693,98	0,440
694,17	0,390
694,36	0,509
694,56	0,557
694,75	0,256
694,94	0,505
695,14	0,413
695,33	0,125
695,53	0,329
695,72	0,408
695,91	0,489
696,11	0,302
696,30	0,348
696,49	0,352
696,69	0,554
696,88	0,440
697,07	0,260
697,27	0,569
697,46	0,415
697,65	0,309
697,85	0,391
698,04	0,490
698,23	0,517
698,43	0,638
698,62	0,421
698,81	0,510
699,01	0,649
699,20	0,732
699,39	0,552
699,58	0,793
699,78	0,872
699,97	0,520
700,16	0,861
700,36	0,603
700,55	1,124
700,74	0,724
700,94	0,844
701,13	0,692
701,32	1,454
701,52	1,539
701,71	0,596
701,90	1,047
702,09	1,404
702,29	0,896
702,48	1,265
702,67	1,147
702,87	0,606
703,06	1,575
703,25	0,986
703,44	1,029
703,64	2,071
703,83	1,939
704,02	1,097
704,22	1,301
704,41	1,384
704,60	2,508
704,79	1,563
704,99	1,712
705,18	1,857
705,37	1,685
705,56	2,111
705,76	1,738
705,95	2,398
706,14	1,957
706,33	2,455
706,53	2,725
706,72	1,534
706,91	1,877
707,11	3,055
707,30	3,124
707,49	2,862
707,68	1,032
707,88	2,456
708,07	1,493
708,26	2,288
708,45	2,256
708,64	2,750
708,84	3,454
709,03	2,996
709,22	2,256
709,41	3,787
709,61	3,149
709,80	4,008
709,99	3,603
710,18	4,205
710,38	3,850
710,57	3,569
710,76	2,855
710,95	3,234
711,14	3,954
711,34	4,086
711,53	3,917
711,72	4,159
711,91	2,331
712,11	5,955
712,30	6,059
712,49	4,877
712,68	3,800
712,87	5,421
713,07	7,264
713,26	4,464
713,45	4,367
713,64	4,811
713,83	2,727
714,03	5,777
714,22	4,909
714,41	4,315
714,60	4,138
714,79	3,491
714,99	3,593
715,18	3,540
715,37	6,177
715,56	6,569
715,75	6,119
715,94	5,324
716,14	4,945
716,33	6,142
716,52	5,260
716,71	6,480
716,90	5,779
717,10	5,571
717,29	6,914
717,48	7,377
717,67	4,027
717,86	5,501
718,05	3,537
718,24	8,209
718,44	6,995
718,63	6,831
718,82	7,683
719,01	5,614
719,20	4,728
719,39	8,764
719,59	2,701
719,78	5,819
719,97	5,439
720,16	8,842
720,35	7,654
720,54	7,757
720,73	4,146
720,93	8,029
721,12	4,059
721,31	9,195
721,50	7,715
721,69	3,693
721,88	11,161
722,07	6,651
722,27	8,862
722,46	6,780
722,65	6,541
722,84	6,593
723,03	4,281
723,22	8,930
723,41	6,908
723,60	8,104
723,79	11,129
723,99	8,162
724,18	9,758
724,37	10,773
724,56	10,080
724,75	10,963
724,94	14,385
725,13	12,284
725,32	7,414
725,51	10,369
725,71	7,197
725,90	10,516
726,09	15,723
726,28	11,184
726,47	4,980
726,66	13,116
726,85	11,373
727,04	12,150
727,23	10,835
727,42	13,951
727,61	6,878
727,81	11,262
728,00	12,487
728,19	10,870
728,38	6,587
728,57	14,046
728,76	12,317
728,95	10,714
729,14	8,041
729,33	12,184
729,52	15,073
729,71	12,859
729,90	11,366
730,09	7,009
730,28	18,476
730,48	9,281
730,67	14,510
730,86	8,831
731,05	10,397
731,24	7,711
731,43	10,189
731,62	17,920
731,81	9,530
732,00	11,309
732,19	8,812
732,38	15,445
732,57	14,169
732,76	15,476
732,95	10,400
733,14	8,973
733,33	10,165
733,52	15,738
733,71	11,494
733,90	15,681
734,09	11,735
734,28	14,621
734,47	17,368
734,66	16,554
734,85	14,043
735,04	13,896
735,23	16,534
735,42	11,960
735,61	17,600
735,81	16,138
736,00	20,181
736,19	20,118
736,38	14,667
736,57	21,727
736,76	4,806
736,95	13,030
737,14	16,261
737,33	16,051
737,52	12,971
737,71	13,462
737,90	23,601
738,09	15,031
738,28	13,716
738,47	17,647
738,66	16,094
738,85	13,918
739,04	14,941
739,22	13,851
739,41	19,516
739,60	9,197
739,79	12,329
739,98	13,793
740,17	19,558
740,36	23,750
740,55	25,044
740,74	19,130
740,93	19,715
741,12	27,757
741,31	14,890
741,50	16,573
741,69	11,296
741,88	6,600
742,07	18,953
742,26	8,427
742,45	18,577
742,64	28,777
742,83	14,894
743,02	14,775
743,21	24,547
743,40	20,729
743,59	25,615
743,78	31,878
743,97	19,925
744,16	24,612
744,34	21,850
744,53	15,574
744,72	22,661
744,91	15,579
745,10	29,175
745,29	16,312
745,48	18,591
745,67	23,218
745,86	20,892
746,05	24,201
746,24	26,580
746,43	26,005
746,62	19,585
746,81	28,082
747,00	23,800
747,18	27,473
747,37	19,403
747,56	20,449
747,75	19,256
747,94	25,164
748,13	27,626
748,32	29,915
748,51	24,379
748,70	27,818
748,89	21,739
749,08	26,857
749,26	16,229
749,45	30,353
749,64	23,821
749,83	15,522
750,02	17,680
750,21	23,167
750,40	16,406
750,59	31,840
750,78	34,911
750,96	28,771
751,15	24,044
751,34	38,743
751,53	33,744
751,72	25,337
751,91	26,575
752,10	15,123
752,29	31,921
752,47	39,045
752,66	29,014
752,85	22,291
753,04	29,338
753,23	24,834
753,42	29,179
753,61	33,660
753,80	25,474
753,98	31,228
754,17	28,834
754,36	33,898
754,55	20,690
754,74	41,908
754,93	24,496
755,12	32,000
755,30	32,687
755,49	30,581
755,68	41,499
755,87	24,324
756,06	37,989
756,25	27,302
756,43	29,310
756,62	35,312
756,81	28,053
757,00	25,507
757,19	35,274
757,38	41,325
757,56	33,226
757,75	38,562
757,94	34,385
758,13	34,740
758,32	23,864
758,51	43,750
758,69	34,800
758,88	39,339
759,07	39,427
759,26	41,860
759,45	26,638
759,63	48,327
759,82	40,741
760,01	23,746
760,20	36,187
760,39	49,254
760,57	40,909
760,76	50,000
760,95	43,981
761,14	43,673
761,33	27,187
761,51	48,746
761,70	53,448
761,89	31,148
762,08	20,930
762,27	24,542
762,45	50,195
762,64	26,374
762,83	44,248
763,02	40,930
763,21	36,207
763,39	43,265
763,58	35,472
763,77	33,591
763,96	53,815
764,14	41,250
764,33	40,293
764,52	56,223
764,71	29,596
764,89	39,706
765,08	34,483
765,27	49,442
765,46	34,783
765,65	37,555
765,83	35,498
766,02	37,021
766,21	61,878
766,40	49,048
766,58	53,252
766,77	45,771
766,96	55,909
767,15	70,048
767,33	28,655
767,52	66,463
767,71	45,652
767,90	53,933
768,08	57,198
768,27	43,000
768,46	58,203
768,64	68,912
768,83	60,937
769,02	56,500
769,21	46,288
769,39	55,814
769,58	56,647
769,77	60,536
769,96	52,880
770,14	51,020
770,33	41,589
770,52	40,741
770,70	54,000
770,89	69,128
771,08	62,712
771,27	85,052
771,45	54,386
771,64	56,771
771,83	60,748
772,01	65,060
772,20	63,819
772,39	30,000
772,57	48,062
772,76	66,667
772,95	75,177
773,14	60,215
773,32	69,677
773,51	63,682
773,70	78,750
773,88	84,153
774,07	64,921
774,26	33,333
774,44	63,415
774,63	61,929
774,82	56,707
775,00	86,667
775,19	64,800
775,38	86,705
775,56	71,354
775,75	39,759
775,94	64,557
776,12	55,249
776,31	66,471
776,50	68,182
776,68	62,105
776,87	73,864
777,06	78,621
777,24	77,778
777,43	62,179
777,62	95,588
777,80	87,162
777,99	61,143
778,18	64,356
778,36	75,200
778,55	85,950
778,74	73,611
778,92	61,538
779,11	80,000
779,29	59,119
779,48	53,741
779,67	93,023
779,85	98,374
780,04	53,514
780,23	81,295
780,41	107,812
780,60	55,263
780,79	80,791
780,97	67,105
781,16	81,818
781,34	121,649
781,53	105,128
781,72	67,883
781,90	60,938
782,09	57,419
782,28	116,058
782,46	64,444
782,65	80,000
782,83	124,719
783,02	108,750
783,21	96,667
783,39	91,304
783,58	86,391
783,76	77,095
783,95	66,061
784,14	64,238
784,32	82,550
784,51	75,862
784,69	98,305
784,88	93,694
785,06	78,992
785,25	78,344
785,44	88,489
785,62	69,286
785,81	164,789
785,99	100,719
786,18	62,838
786,37	88,889
786,55	91,743
786,74	55,921
786,92	88,281
787,11	80,833
787,29	65,672
787,48	93,333
787,67	106,024
787,85	66,379
788,04	78,218
788,22	97,541
788,41	82,353
788,59	107,339
788,78	90,909
788,96	87,736
789,15	112,632
789,34	76,364
789,52	104,425
789,71	79,845
789,89	200,000
790,08	80,137
790,26	95,714
790,45	75,758
790,63	90,741
790,82	90,909
791,00	63,889
791,19	102,151
791,38	101,389
791,56	77,193
791,75	108,257
791,93	126,437
792,12	73,964
792,30	96,000
792,49	115,126
792,67	99,254
792,86	100,000
793,04	64,486
793,23	62,500
793,41	120,253
793,60	144,444
793,78	117,544
793,97	98,718
794,15	103,636
794,34	123,077
794,52	109,091
794,71	119,753
794,89	120,000
795,08	121,359
795,26	93,889
795,45	117,910
795,63	103,030
795,82	114,953
796,00	115,596
796,19	106,667
796,37	100,730
796,56	136,559
796,74	105,310
796,93	83,146
797,11	93,671
797,30	105,000
797,48	117,931
797,67	98,333
797,85	90,816
798,04	101,042
798,22	119,048
798,41	160,784
798,59	109,474
798,77	120,000
798,96	75,269
799,14	108,621
799,33	108,397
799,51	67,692
799,70	91,275
799,88	81,818
800,07	71,711
800,25	64,138
800,44	114,141
800,62	95,294
800,80	143,478
800,99	165,079
801,17	90,517
801,36	94,483
801,54	108,333
801,73	90,909
801,91	80,328
802,10	86,905
802,28	130,841
802,46	111,111
802,65	64,368
802,83	124,719
803,02	113,684
803,20	102,344
803,39	56,897
803,57	113,253
803,75	78,378
803,94	101,681
804,12	85,833
804,31	115,929
804,49	80,769
804,67	92,000
804,86	102,679
805,04	98,649
805,23	91,034
805,41	81,148
805,59	63,934
805,78	100,000
805,96	85,256
806,15	110,937
806,33	116,807
806,51	97,345
806,70	176,667
806,88	82,114
807,07	67,460
807,25	86,792
807,43	89,404
807,62	106,504
807,80	112,903
807,99	90,476
808,17	97,163
808,35	110,526
808,54	103,226
808,72	76,800
808,90	140,789
809,09	74,167
809,27	118,018
809,46	117,857
809,64	91,176
809,82	81,609
810,01	91,667
810,19	101,000
810,37	72,308
810,56	157,317
810,74	77,483
810,92	109,848
811,11	113,725
811,29	95,035
811,48	145,455
811,66	109,302
811,84	109,174
812,03	84,545
812,21	125,641
812,39	114,407
812,58	129,412
812,76	103,738
812,94	103,333
813,13	86,508
813,31	85,833
813,49	156,522
813,68	100,870
813,86	116,327
814,04	128,155
814,23	133,333
814,41	89,706
814,59	80,226
814,78	103,676
814,96	100,901
815,14	150,000
815,33	113,043
815,51	62,963
815,69	93,827
815,87	113,043
816,06	91,250
816,24	86,755
816,42	57,692
816,61	100,000
816,79	144,578
816,97	106,306
817,16	81,290
817,34	107,586
817,52	108,966
817,70	105,556
817,89	73,554
818,07	95,690
818,25	111,712
818,44	86,628
818,62	87,931
818,80	105,594
818,98	78,095
819,17	79,231
819,35	72,941
819,53	115,842
819,72	61,047
819,90	83,234
820,08	62,987
820,26	105,263
820,45	88,554
820,63	99,479
820,81	69,128
820,99	85,714
821,18	51,111
821,36	102,857
821,54	67,442
821,73	65,946
821,91	74,468
822,09	74,118
822,27	48,223
822,46	75,625
822,64	71,523
822,82	74,146
823,00	106,306
823,19	87,121
823,37	70,000
823,55	84,118
823,73	84,667
823,91	66,851
824,10	88,268
824,28	89,630
824,46	67,442
824,64	71,569
824,83	70,732
825,01	96,377
825,19	65,143
825,37	58,333
825,56	60,000
825,74	60,000
825,92	75,281
826,10	80,745
826,28	93,289
826,47	62,602
826,65	62,162
826,83	50,538
827,01	53,030
827,19	79,114
827,38	91,192
827,56	64,423
827,74	64,634
827,92	82,439
828,10	63,587
828,29	72,381
828,47	63,158
828,65	45,405
828,83	71,212
829,01	52,000
829,20	79,114
829,38	53,942
829,56	54,656
829,74	83,333
829,92	53,608
830,10	76,577
830,29	50,270
830,47	63,021
830,65	46,875
830,83	57,143
831,01	48,333
831,20	72,772
831,38	76,585
831,56	56,680
831,74	64,000
831,92	58,523
832,10	55,909
832,29	46,919
832,47	45,575
832,65	52,340
832,83	40,000
833,01	24,506
833,19	43,891
833,37	51,111
833,56	46,009
833,74	57,490
833,92	50,442
834,10	74,112
834,28	43,462
834,46	54,325
834,64	58,594
834,83	38,908
835,01	50,195
835,19	48,815
835,37	50,598
835,55	43,682
835,73	30,147
835,91	43,629
836,09	31,950
836,28	45,420
836,46	52,982
836,64	48,361
836,82	35,821
837,00	56,803
837,18	42,688
837,36	46,524
837,54	34,848
837,72	31,873
837,91	43,775
838,09	32,000
838,27	67,766
838,45	52,104
838,63	29,153
838,81	54,276
838,99	39,373
839,17	63,754
839,35	48,889
839,53	46,309
839,72	17,797
839,90	30,395
840,08	42,308
840,26	40,379
840,44	26,235
840,62	23,906
840,80	38,580
840,98	35,045
841,16	23,843
841,34	38,551
841,52	30,351
841,70	39,731
841,89	43,871
842,07	36,757
842,25	28,247
842,43	38,387
842,61	36,461
842,79	43,902
842,97	20,427
843,15	42,407
843,33	39,667
843,51	36,277
843,69	30,833
843,87	33,423
844,05	37,466
844,23	38,649
844,41	31,658
844,59	37,784
844,77	20,173
844,95	25,243
845,13	36,885
845,31	19,553
845,50	32,732
845,68	34,456
845,86	39,623
846,04	27,407
846,22	24,582
846,40	22,310
846,58	24,397
846,76	33,416
846,94	33,173
847,12	17,773
847,30	30,415
847,48	35,252
847,66	30,732
847,84	22,081
848,02	35,759
848,20	35,982
848,38	27,101
848,56	33,763
848,74	21,694
848,92	25,261
849,10	24,107
849,28	28,540
849,46	26,168
849,64	23,810
849,82	22,596
850,00	21,355
850,18	21,940
850,36	27,851
850,54	27,578
850,72	35,551
850,90	27,007
851,08	19,547
851,26	30,567
851,44	21,285
851,62	29,139
851,80	22,465
851,98	23,457
852,16	31,481
852,34	29,791
852,52	19,682
852,70	13,855
852,87	18,286
853,05	24,248
853,23	23,333
853,41	24,744
853,59	23,962
853,77	23,016
853,95	21,186
854,13	16,311
854,31	31,937
854,49	13,627
854,67	25,752
854,85	23,478
855,03	23,180
855,21	23,350
855,39	18,960
855,57	29,348
855,75	17,032
855,93	17,138
856,11	27,592
856,28	22,222
856,46	17,974
856,64	25,405
856,82	22,164
857,00	20,242
857,18	19,562
857,36	19,832
857,54	22,804
857,72	21,870
857,90	17,298
858,08	21,142
858,26	17,584
858,44	18,323
858,61	17,504
858,79	27,442
858,97	20,630
859,15	15,677
859,33	16,104
859,51	10,383
859,69	15,030
859,87	23,133
860,05	19,386
860,23	8,485
860,40	19,508
860,58	18,103
860,76	17,232
860,94	4,427
861,12	17,705
861,30	21,477
861,48	14,731
861,66	14,710
861,84	19,972
862,01	21,123
862,19	25,474
862,37	18,076
862,55	20,474
862,73	17,663
862,91	12,974
863,09	20,416
863,27	9,610
863,44	11,921
863,62	12,062
863,80	11,372
863,98	17,114
864,16	15,043
864,34	12,857
864,52	13,326
864,69	18,193
864,87	16,925
865,05	8,237
865,23	13,768
865,41	15,495
865,59	18,294
865,76	12,016
865,94	16,628
866,12	13,477
866,30	14,479
866,48	10,848
866,66	21,041
866,83	9,737
867,01	13,653
867,19	11,646
867,37	14,046
867,55	9,330
867,73	14,920
867,90	14,493
868,08	15,795
868,26	7,982
868,44	8,262
868,62	12,121
868,79	4,545
868,97	10,128
869,15	11,677
869,33	10,033
869,51	12,739
869,69	11,783
869,86	13,128
870,04	12,275
870,22	4,683
870,40	10,909
870,57	20,200
870,75	13,314
870,93	15,297
871,11	10,173
871,29	12,703
871,46	9,970
871,64	10,386
871,82	9,756
872,00	12,859
872,18	12,534
872,35	14,171
872,53	11,626
872,71	9,721
872,89	11,492
873,06	10,240
873,24	9,926
873,42	9,319
873,60	5,418
873,77	10,676
873,95	10,322
874,13	10,555
874,31	8,111
874,49	13,339
874,66	6,701
874,84	8,970
875,02	14,321
875,20	7,851
875,37	9,370
875,55	4,911
875,73	6,126
875,91	11,250
876,08	8,360
876,26	9,242
876,44	5,671
876,61	11,069
876,79	10,670
876,97	11,076
877,15	12,519
877,32	6,929
877,50	11,536
877,68	9,173
877,86	9,992
878,03	8,596
878,21	6,268
878,39	6,963
878,56	7,522
878,74	7,375
878,92	8,012
879,10	8,136
879,27	7,975
879,45	8,573
879,63	6,627
879,80	7,138
879,98	5,907
880,16	8,158
880,34	4,862
880,51	8,904
880,69	9,403
880,87	6,392
881,04	7,221
881,22	7,971
881,40	4,045
881,57	5,842
881,75	7,972
881,93	5,617
882,10	6,791
882,28	5,289
882,46	7,589
882,63	7,726
882,81	9,943
882,99	6,854
883,16	8,670
883,34	7,781
883,52	4,169
883,69	6,619
883,87	7,454
884,05	4,669
884,22	5,164
884,40	5,939
884,58	5,475
884,75	5,638
884,93	7,539
885,11	6,638
885,28	5,036
885,46	6,470
885,64	6,178
885,81	6,695
885,99	5,008
886,17	6,763
886,34	6,083
886,52	6,422
886,70	5,615
886,87	8,286
887,05	4,014
887,22	5,689
887,40	6,842
887,58	4,627
887,75	6,979
887,93	6,598
888,11	2,966
888,28	3,272
888,46	2,175
888,63	6,376
888,81	3,140
888,99	4,597
889,16	3,566
889,34	6,019
889,51	4,717
889,69	4,466
889,87	4,135
890,04	2,646
890,22	5,746
890,39	2,211
890,57	6,112
890,75	6,670
890,92	4,726
891,10	5,508
891,27	4,636
891,45	4,750
891,63	6,852
891,80	5,094
891,98	7,430
892,15	2,876
892,33	5,870
892,51	4,908
892,68	3,504
892,86	4,845
893,03	4,110
893,21	5,052
893,38	5,708
893,56	4,871
893,74	5,695
893,91	4,454
894,09	4,852
894,26	4,859
894,44	4,682
894,61	5,553
894,79	3,746
894,96	6,029
895,14	5,061
895,32	4,187
895,49	4,380
895,67	3,620
895,84	4,682
896,02	4,896
896,19	3,926
896,37	4,527
896,54	3,461
896,72	3,279
896,89	5,090
897,07	5,117
897,25	5,293
897,42	4,091
897,60	5,295
897,77	6,018
897,95	5,773
898,12	3,715
898,30	3,199
898,47	4,671
898,65	4,863
898,82	3,844
899,00	4,641
899,17	4,294
899,35	3,503
899,52	3,465
899,70	4,357
899,87	4,430
900,05	5,075
900,22	3,677
900,40	3,575
900,57	3,948
900,75	3,393
900,92	3,460
901,10	4,684
901,27	5,030
901,45	4,361
901,62	4,269
901,80	4,078
901,97	3,444
902,15	5,651
902,32	4,012
902,50	4,280
902,67	4,054
902,85	4,082
903,02	5,308
903,20	3,379
903,37	4,508
903,54	5,330
903,72	3,521
903,89	4,417
904,07	3,684
904,24	3,151
904,42	3,930
904,59	2,655
904,77	3,116
904,94	4,154
905,12	1,649
905,29	4,087
905,47	4,139
905,64	3,867
905,81	3,264
905,99	3,391
906,16	3,945
906,34	3,810
906,51	4,204
906,69	3,632
906,86	2,860
907,03	3,269
907,21	3,329
907,38	3,747
907,56	2,862
907,73	4,523
907,91	4,256
908,08	3,479
908,25	2,347
908,43	3,591
908,60	3,033
908,78	4,551
908,95	3,566
909,13	3,998
909,30	2,371
909,47	3,114
909,65	4,255
909,82	3,822
910,00	3,412
910,17	2,544
910,34	3,088
910,52	3,792
910,69	3,965
910,87	3,947
911,04	2,711
911,21	3,660
911,39	3,819
911,56	3,585
911,73	2,962
911,91	4,024
912,08	4,039
912,26	3,461
912,43	3,119
912,60	3,722
912,78	2,542
912,95	4,393
913,13	3,266
913,30	3,485
913,47	3,874
913,65	1,599
913,82	3,027
913,99	2,075
914,17	2,323
914,34	3,375
914,51	4,036
914,69	3,109
914,86	3,957
915,03	2,987
915,21	2,506
915,38	2,699
915,56	3,001
915,73	2,289
915,90	3,676
916,08	3,968
916,25	3,258
916,42	3,270
916,60	2,525
916,77	2,354
916,94	2,831
917,12	3,626
917,29	3,181
917,46	1,444
917,64	2,978
917,81	2,185
917,98	1,570
918,16	2,635
918,33	2,894
918,50	2,528
918,67	3,168
918,85	2,013
919,02	2,540
919,19	3,350
919,37	3,092
919,54	3,338
919,71	3,864
919,89	2,518
920,06	2,523
920,23	3,131
920,41	2,247
920,58	2,761
920,75	3,059
920,92	1,499
921,10	2,375
921,27	0,822
921,44	3,376
921,62	1,668
921,79	3,499
921,96	1,858
922,13	1,901
922,31	2,309
922,48	2,734
922,65	1,663
922,82	2,637
923,00	2,790
923,17	1,667
923,34	2,293
923,52	2,040
923,69	2,287
923,86	2,443
924,03	2,315
924,21	2,221
924,38	3,249
924,55	3,547
924,72	2,490
924,90	2,126
925,07	2,980
925,24	2,819
925,41	2,701
925,59	1,925
925,76	1,735
925,93	2,326
926,10	2,161
926,28	2,041
926,45	2,940
926,62	2,539
926,79	2,190
926,96	2,724
927,14	2,015
927,31	1,583
927,48	3,210
927,65	2,669
927,83	1,469
928,00	1,349
928,17	2,560
928,34	1,946
928,51	2,628
928,69	2,127
928,86	2,897
929,03	3,307
929,20	2,119
929,37	2,299
929,55	1,817
929,72	2,247
929,89	2,147
930,06	2,846
930,23	1,948
930,41	2,756
930,58	2,941
930,75	2,659
930,92	1,886
931,09	2,407
931,27	2,003
931,44	2,113
931,61	3,141
931,78	2,189
931,95	2,279
932,12	1,698
932,30	1,877
932,47	1,786
932,64	2,630
932,81	2,299
932,98	1,388
933,16	2,016
933,33	2,501
933,50	1,871
933,67	3,174
933,84	1,866
934,01	2,036
934,18	2,159
934,36	2,190
934,53	1,336
934,70	2,222
934,87	1,830
935,04	2,556
935,21	2,215
935,38	1,654
935,56	1,384
935,73	1,654
935,90	1,510
936,07	1,624
936,24	2,399
936,41	1,882
936,58	1,250
936,76	2,580
936,93	0,810
937,10	1,879
937,27	2,583
937,44	2,154
937,61	2,736
937,78	2,145
937,95	1,957
938,13	2,020
938,30	2,274
938,47	2,722
938,64	1,929
938,81	1,538
938,98	1,548
939,15	1,961
939,32	2,185
939,49	2,201
939,66	2,654
939,84	2,308
940,01	2,264
940,18	2,494
940,35	1,303
940,52	0,847
940,69	2,902
940,86	1,762
941,03	2,230
941,20	2,362
941,37	2,479
941,54	1,225
941,71	1,088
941,89	1,963
942,06	2,243
942,23	2,460
942,40	2,224
942,57	2,499
942,74	1,911
942,91	1,674
943,08	2,850
943,25	2,552
943,42	1,955
943,59	2,627
943,76	2,931
943,93	2,100
944,10	1,334
944,27	1,772
944,44	2,313
944,61	1,877
944,79	1,275
944,96	3,716
945,13	1,750
945,30	1,598
945,47	2,275
945,64	2,653
945,81	3,254
945,98	2,652
946,15	2,165
946,32	1,854
946,49	2,761
946,66	3,177
946,83	2,878
947,00	2,423
947,17	2,471
947,34	2,212
947,51	2,134
947,68	4,038
947,85	1,718
948,02	3,647
948,19	4,352
948,36	3,135
948,53	1,976
948,70	3,950
948,87	3,910
949,04	2,328
949,21	2,481
949,38	4,284
949,55	2,938
949,72	3,229
949,89	3,908
950,06	2,358
950,23	3,872
950,40	2,908
950,57	1,592
950,74	4,525
950,91	2,372
951,08	2,730
951,25	4,259
951,42	4,769
951,59	2,870
951,76	4,771
951,93	4,941
952,10	3,376
952,27	3,946
952,44	2,235
952,61	3,371
952,77	4,090
952,94	4,836
953,11	6,078
953,28	3,862
953,45	6,679
953,62	6,120
953,79	4,782
953,96	5,697
954,13	4,966
954,30	6,761
954,47	5,678
954,64	3,991
954,81	7,303
954,98	5,469
955,15	6,596
955,32	4,527
955,49	4,020
955,65	5,193
955,82	7,908
955,99	9,759
956,16	6,636
956,33	7,531
956,50	9,238
956,67	9,104
956,84	7,778
957,01	5,304
957,18	6,315
957,35	8,152
957,52	9,480
957,68	11,500
957,85	9,787
958,02	8,269
958,19	9,399
958,36	14,096
958,53	10,323
958,70	6,787
958,87	10,372
959,04	10,128
959,21	9,697
959,37	12,987
959,54	12,128
959,71	8,021
959,88	11,306
960,05	16,667
960,22	8,402
960,39	11,733
960,56	11,266
960,72	14,304
960,89	20,152
961,06	20,382
961,23	10,771
961,40	8,225
961,57	13,552
961,74	16,297
961,90	17,656
962,07	12,024
962,24	24,553
962,41	18,760
962,58	24,957
962,75	17,522
962,92	20,374
963,08	18,727
963,25	18,739
963,42	21,256
963,59	20,248
963,76	22,472
963,93	27,918
964,10	26,767
964,26	22,588
964,43	21,189
964,60	22,798
964,77	24,337
964,94	20,455
965,10	33,036
965,27	29,243
965,44	33,247
965,61	27,548
965,78	29,393
965,95	39,222
966,11	42,724
966,28	27,881
966,45	35,826
966,62	47,385
966,79	48,571
966,95	34,328
967,12	41,009
967,29	39,583
967,46	43,939
967,63	40,377
967,79	55,405
967,96	48,918
968,13	35,000
968,30	36,694
968,47	48,110
968,63	68,468
968,80	60,092
968,97	55,769
969,14	61,047
969,31	50,556
969,47	57,059
969,64	60,101
969,81	41,969
969,98	92,308
970,14	95,092
970,31	60,377
970,48	29,167
970,65	63,314
970,81	52,055
970,98	102,190
971,15	102,041
971,32	30,469
971,48	89,116
971,65	52,308
971,82	94,118
971,99	122,989
972,15	111,972
972,32	108,108
972,49	106,993
972,66	148,182
972,82	126,744
972,99	84,553
973,16	114,943
973,33	76,786
973,49	130,526
973,66	103,226
973,83	119,417
974,00	147,674
974,16	102,941
974,33	150,000
974,50	100,000
974,67	133,684
974,83	88,095
975,00	118,947
975,17	114,286
975,33	113,483
975,50	162,687
975,67	234,694
975,84	131,343
976,00	110,112
976,17	198,361
976,34	77,000
976,50	166,292
976,67	116,505
976,84	2566,667
977,00	204,082
977,17	191,111
977,34	192,308
977,50	138,806
977,67	212,500
977,84	172,581
978,01	206,383
978,17	566,667
978,34	252,778
978,51	182,353
978,67	171,053
978,84	136,719
979,01	327,027
979,17	148,718
979,34	114,384
979,51	234,694
979,67	204,938
979,84	257,143
980,01	291,111
980,17	226,761
980,34	433,333
980,51	123,188
980,67	180,000
980,84	366,667
981,01	700,000
981,17	620,000
981,34	1366,667
981,50	175,000
981,67	300,000
981,84	6150,000
982,00	406,667
982,17	195,238
982,34	157,778
982,50	800,000
982,67	168,750
982,84	2580,000
983,00	1416,667
983,17	150,746
983,33	163,793
983,50	1960,000
983,67	-351,724
983,83	427,273
984,00	-1571,429
984,17	750,000
984,33	-7250,000
984,50	460,000
984,66	317,391
984,83	185,714
985,00	-545,833
985,16	493,103
985,33	782,353
985,49	550,000
985,66	311,765
985,83	426,087
985,99	312,821
986,16	-3350,000
986,32	842,857
986,49	10500,000
986,66	396,970
986,82	791,667
986,99	235,849
987,15	-336,842
987,32	-382,143
987,49	256,000
987,65	4150,000
987,82	325,000
987,98	297,959
988,15	366,667
988,31	1210,000
988,48	-1700,000
988,65	288,095
988,81	430,556
988,98	319,512
989,14	302,381
989,31	571,429
989,47	300,000
989,64	-830,769
989,80	756,250
989,97	297,297
990,14	-239,130
990,30	-536,364
990,47	363,265
990,63	461,111
990,80	234,000
990,96	-485,000
991,13	359,375
991,29	565,517
991,46	0,000
991,62	-961,538
991,79	1108,333
991,95	10100,000
992,12	-1170,000
992,29	-275,000
992,45	212,941
992,62	339,535
992,78	386,364
992,95	-720,000
993,11	467,857
993,28	1330,000
993,44	-900,000
993,61	-506,250
993,77	-2975,000
993,94	-4400,000
994,10	-105,333
994,27	910,526
994,43	458,140
994,60	0,000
994,76	2925,000
994,93	465,000
995,09	-535,294
995,26	1288,889
995,42	245,098
995,59	528,571
995,75	723,077
995,92	2600,000
996,08	327,778
996,25	-1475,000
996,41	-6000,000
996,58	1046,667
996,74	354,545
996,91	458,621
997,07	0,000
997,23	13000,000
997,40	-13300,000
997,56	-938,462
997,73	-1712,500
997,89	363,158
998,06	946,154
998,22	-644,444
998,39	452,000
998,55	1655,556
998,72	-1600,000
998,88	-300,000
999,05	-121,795
999,21	323,810
999,37	-833,333
999,54	-1208,333
999,70	-420,000
999,87	925,000
1000,03	464,103
1000,20	266,667
1000,36	0,000
1000,52	354,167
1000,69	-747,619
1000,85	-1210,000
1001,02	-454,167
1001,18	3500,000
1001,35	884,615
1001,51	723,529
1001,67	-946,154
1001,84	-2420,000
1002,00	400,000
1002,17	1036,364
1002,33	-3025,000
1002,50	642,857
1002,66	-938,462
1002,82	390,000
1002,99	792,857
1003,15	-2014,286
1003,32	-1127,273
1003,48	321,429
1003,64	1233,333
1003,81	492,593
1003,97	-4150,000
1004,14	1281,818
1004,30	303,333
1004,46	-686,667
1004,63	971,429
1004,79	413,889
1004,95	806,667
1005,12	4500,000
1005,28	524,138
1005,45	440,541
1005,61	406,897
1005,77	-254,167
1005,94	-609,524
1006,10	-5300,000
1006,26	1346,154
1006,43	-446,154
1006,59	-1063,636
1006,76	942,857
1006,92	1833,333
1007,08	14400,000
1007,25	-448,148
1007,41	586,207
1007,57	4000,000
1007,74	1270,000
1007,90	-506,897
1008,06	280,435
1008,23	1017,647
1008,39	-906,250
1008,55	-365,385
1008,72	-2100,000
1008,88	0,000
1009,04	370,732
1009,21	-347,368
1009,37	-900,000
1009,53	242,857
1009,70	3566,667
1009,86	-921,429
1010,02	3866,667
1010,19	890,909
1010,35	272,059
1010,51	-5150,000
1010,68	-1762,500
1010,84	-297,727
1011,00	656,250
1011,17	-363,636
1011,33	0,000
1011,49	-993,333
1011,66	1021,429
1011,82	435,484
1011,98	507,143
1012,14	-572,727
1012,31	379,487
1012,47	0,000
1012,63	2066,667
1012,80	1035,714
1012,96	-800,000
1013,12	-2100,000
1013,29	672,222
1013,45	424,390
1013,61	5366,667
1013,77	-125,000
1013,94	2600,000
1014,10	200,000
1014,26	-2575,000
1014,43	-228,000
1014,59	535,000
1014,75	-544,444
1014,91	-700,000
1015,08	436,111
1015,24	9700,000
1015,40	717,647
1015,56	-12700,000
1015,73	369,048
1015,89	781,818
1016,05	3425,000
1016,21	-987,500
1016,38	815,789
1016,54	1169,231
1016,70	-3833,333
1016,86	431,250
1017,03	668,750
1017,19	-853,846
1017,35	-682,353
1017,51	-2260,000
1017,68	-1130,000
1017,84	-2214,286
1018,00	304,762
1018,16	434,615
1018,33	-1300,000
1018,49	-1083,333
1018,65	-248,649
1018,81	351,282
1018,97	-1671,429
1019,14	-4100,000
1019,30	-253,846
1019,46	0,000
1019,62	-582,353
1019,79	-5266,667
1019,95	1233,333
1020,11	5550,000
1020,27	-411,111
1020,43	-407,692
1020,60	2033,333
1020,76	616,667
1020,92	800,000
1021,08	735,000
1021,24	1310,000
1021,41	1400,000
1021,57	1937,500
1021,73	961,538
1021,89	3200,000
1022,05	-346,429
1022,21	695,000
1022,38	-658,333
1022,54	-2650,000
1022,70	422,222
1022,86	-1362,500
1023,02	733,333
1023,19	2120,000
1023,35	3900,000
1023,51	491,667
1023,67	485,185
1023,83	-668,750
1023,99	352,632
1024,16	-507,692
1024,32	-1266,667
1024,48	-1150,000
1024,64	321,429
1024,80	526,087
1024,96	389,744
1025,12	576,190
1025,29	447,619
1025,45	286,842
1025,61	833,333
1025,77	-2600,000
1025,93	-6000,000
1026,09	-1885,714
1026,26	658,333
1026,42	743,750
1026,58	409,091
1026,74	1716,667
1026,90	484,000
1027,06	539,286
1027,22	1157,143
1027,38	259,615
1027,55	3700,000
1027,71	2233,333
1027,87	-344,000
1028,03	1160,000
1028,19	406,250
1028,35	770,000
1028,51	1520,000
1028,67	1033,333
1028,83	-1400,000
1029,00	-304,762
1029,16	1120,000
1029,32	-292,857
1029,48	308,889
1029,64	341,667
1029,80	6250,000
1029,96	713,333
1030,12	591,304
1030,28	-3966,667
1030,44	-553,846
1030,61	-612,500
1030,77	-251,429
1030,93	-873,333
1031,09	1850,000
1031,25	-10400,000
1031,41	-313,333
1031,57	392,308
1031,73	625,000
1031,89	-1445,455
1032,05	-503,704
1032,21	1372,727
1032,37	-101,852
1032,53	-878,571
1032,69	-366,667
1032,86	455,556
1033,02	-222,500
1033,18	-743,750
1033,34	500,000
1033,50	-5550,000
1033,66	-287,805
1033,82	539,130
1033,98	-470,370
1034,14	247,436
1034,30	351,613
1034,46	-3133,333
1034,62	735,000
1034,78	-580,952
1034,94	336,842
1035,10	-707,692
1035,26	-209,302
1035,42	-251,724
1035,58	-405,556
1035,74	1058,333
1035,90	-707,692
1036,06	-1216,667
1036,22	1650,000
1036,38	-676,471
1036,54	-466,667
1036,70	-260,606
1036,86	11500,000
1037,02	477,778
1037,18	757,895
1037,34	186,667
1037,50	-231,707
1037,66	-464,706
1037,82	3040,000
1037,98	-400,000
1038,14	-376,000
1038,30	-1225,000
1038,46	-707,143
1038,62	556,522
1038,78	-2500,000
1038,94	-578,947
1039,10	459,091
1039,26	507,407
1039,42	-991,667
1039,58	1342,857
1039,74	-668,421
1039,90	415,625
1040,06	-503,846
>>>>>End Processed Spectral Data<<<<<
