SpectraSuite Data File
++++++++++++++++++++++++++++++++++++
Date: Wed Feb 01 16:24:09 EET 2017
User: optolab
Dark Spectrum Present: Yes
Reference Spectrum Present: Yes
Number of Sampled Component Spectra: 1
Spectrometers: USB4C02475
Integration Time (usec): 100000 (USB4C02475)
Spectra Averaged: 1 (USB4C02475)
Boxcar Smoothing: 0 (USB4C02475)
Correct for Electrical Dark: No (USB4C02475)
Strobe/Lamp Enabled: No (USB4C02475)
Correct for Detector Non-linearity: No (USB4C02475)
Correct for Stray Light: No (USB4C02475)
Number of Pixels in Processed Spectrum: 3648
>>>>>Begin Processed Spectral Data<<<<<
344,91	3800,000
345,13	3800,000
345,35	3800,000
345,57	0,000
345,79	342,105
346,00	-2233,333
346,22	-1828,571
346,44	270,588
346,66	-562,500
346,87	-15400,000
347,09	509,091
347,31	-550,000
347,53	-274,359
347,74	287,692
347,96	400,000
348,18	663,158
348,40	387,097
348,61	1100,000
348,83	376,190
349,05	225,490
349,27	-5650,000
349,48	642,308
349,70	-489,655
349,92	519,355
350,14	218,868
350,35	338,000
350,57	2850,000
350,79	484,000
351,01	-804,762
351,22	350,000
351,44	576,923
351,66	-216,000
351,87	-580,952
352,09	282,692
352,31	196,721
352,53	192,188
352,74	419,444
352,96	277,922
353,18	789,474
353,40	404,000
353,61	228,889
353,83	408,824
354,05	1145,455
354,26	1933,333
354,48	218,000
354,70	439,394
354,92	-320,690
355,13	201,010
355,35	370,455
355,57	629,167
355,78	233,735
356,00	-2825,000
356,22	338,462
356,44	3600,000
356,65	345,455
356,87	484,615
357,09	608,333
357,30	233,333
357,52	329,310
357,74	720,000
357,95	243,590
358,17	268,852
358,39	217,742
358,60	443,243
358,82	487,500
359,04	496,296
359,26	408,571
359,47	10200,000
359,69	360,000
359,91	466,667
360,12	442,857
360,34	512,500
360,56	-129,630
360,77	3125,000
360,99	657,143
361,21	292,000
361,42	4550,000
361,64	224,490
361,86	235,385
362,07	-574,194
362,29	202,667
362,51	-641,176
362,72	400,000
362,94	367,647
363,16	253,488
363,37	-821,429
363,59	473,077
363,81	402,273
364,02	850,000
364,24	445,833
364,46	3000,000
364,67	672,727
364,89	2485,714
365,11	230,000
365,32	531,034
365,54	372,222
365,76	308,163
365,97	485,294
366,19	255,172
366,41	695,455
366,62	355,556
366,84	279,070
367,05	302,041
367,27	2350,000
367,49	-607,692
367,70	676,471
367,92	191,803
368,14	250,000
368,35	-12100,000
368,57	500,000
368,79	365,517
369,00	339,130
369,22	-1850,000
369,43	240,000
369,65	256,452
369,87	497,297
370,08	178,313
370,30	198,214
370,51	200,000
370,73	217,778
370,95	264,516
371,16	269,048
371,38	490,000
371,60	1650,000
371,81	143,750
372,03	946,667
372,24	453,333
372,46	262,264
372,68	124,286
372,89	490,909
373,11	503,846
373,32	284,091
373,54	-1153,846
373,76	1084,615
373,97	693,333
374,19	695,455
374,40	245,312
374,62	-4233,333
374,84	3550,000
375,05	446,429
375,27	360,000
375,48	-9000,000
375,70	204,000
375,92	250,000
376,13	328,125
376,35	223,288
376,56	806,250
376,78	258,333
376,99	435,714
377,21	260,417
377,43	184,848
377,64	153,623
377,86	368,966
378,07	276,923
378,29	-1475,000
378,51	416,129
378,72	277,083
378,94	-1066,667
379,15	445,455
379,37	588,235
379,58	312,308
379,80	506,667
380,01	706,250
380,23	307,843
380,45	2180,000
380,66	3200,000
380,88	354,545
381,09	251,429
381,31	182,222
381,52	258,824
381,74	1511,111
381,95	659,091
382,17	511,538
382,39	585,714
382,60	240,816
382,82	389,744
383,03	309,615
383,25	387,097
383,46	311,364
383,68	433,333
383,89	830,000
384,11	325,806
384,32	-3600,000
384,54	605,556
384,76	-4333,333
384,97	351,515
385,19	400,000
385,40	317,647
385,62	303,509
385,83	273,810
386,05	217,647
386,26	334,000
386,48	219,540
386,69	264,583
386,91	535,000
387,12	230,508
387,34	234,483
387,55	229,032
387,77	387,500
387,98	553,846
388,20	242,391
388,41	355,882
388,63	11800,000
388,84	162,295
389,06	278,571
389,27	573,684
389,49	416,667
389,70	346,939
389,92	220,000
390,13	279,592
390,35	250,980
390,56	231,481
390,78	459,259
390,99	1050,000
391,21	526,316
391,42	308,889
391,64	243,902
391,85	168,966
392,07	234,091
392,28	124,000
392,50	284,848
392,71	-1362,500
392,93	253,846
393,14	488,889
393,36	279,592
393,57	141,353
393,79	633,333
394,00	291,489
394,22	165,753
394,43	196,386
394,65	160,465
394,86	1300,000
395,08	614,286
395,29	211,321
395,50	553,846
395,72	538,889
395,93	719,048
396,15	192,958
396,36	188,235
396,58	250,000
396,79	265,000
397,01	274,000
397,22	247,222
397,44	236,364
397,65	191,228
397,87	257,143
398,08	202,041
398,29	421,875
398,51	155,357
398,72	302,439
398,94	247,692
399,15	431,429
399,37	221,053
399,58	168,132
399,80	468,182
400,01	183,333
400,22	380,952
400,44	233,333
400,65	442,857
400,87	207,353
401,08	158,571
401,30	184,783
401,51	215,789
401,72	257,692
401,94	167,089
402,15	550,000
402,37	132,773
402,58	555,556
402,80	348,571
403,01	239,437
403,22	1018,182
403,44	192,754
403,65	146,429
403,87	172,857
404,08	366,667
404,30	152,941
404,51	-2133,333
404,72	172,857
404,94	139,216
405,15	144,000
405,37	156,962
405,58	134,118
405,79	135,366
406,01	275,610
406,22	191,379
406,44	121,277
406,65	252,632
406,86	175,000
407,08	143,038
407,29	141,748
407,51	157,317
407,72	155,556
407,93	157,609
408,15	94,872
408,36	279,070
408,58	142,268
408,79	104,167
409,00	144,792
409,22	149,206
409,43	184,810
409,64	98,137
409,86	87,421
410,07	108,462
410,29	105,970
410,50	107,801
410,71	108,929
410,93	89,172
411,14	129,457
411,35	92,857
411,57	105,263
411,78	114,844
412,00	97,452
412,21	121,290
412,42	92,593
412,64	65,236
412,85	89,691
413,06	95,732
413,28	58,108
413,49	73,934
413,70	80,072
413,92	67,984
414,13	42,739
414,34	61,686
414,56	51,748
414,77	56,540
414,98	43,289
415,20	44,983
415,41	45,326
415,63	40,050
415,84	37,222
416,05	36,538
416,27	43,411
416,48	44,101
416,69	49,779
416,91	44,865
417,12	45,455
417,33	45,263
417,55	36,419
417,76	49,076
417,97	39,627
418,19	44,533
418,40	44,894
418,61	42,222
418,83	39,455
419,04	34,227
419,25	36,760
419,46	40,301
419,68	42,698
419,89	39,642
420,10	40,816
420,32	33,499
420,53	39,544
420,74	42,186
420,96	35,375
421,17	31,986
421,38	34,276
421,60	33,223
421,81	31,321
422,02	32,393
422,23	28,638
422,45	27,231
422,66	28,643
422,87	27,550
423,09	25,496
423,30	25,556
423,51	24,488
423,73	24,456
423,94	26,611
424,15	24,014
424,36	24,402
424,58	22,500
424,79	25,109
425,00	21,796
425,22	21,386
425,43	21,381
425,64	21,075
425,85	17,737
426,07	16,693
426,28	16,521
426,49	15,442
426,71	12,368
426,92	12,080
427,13	12,220
427,34	9,856
427,56	12,918
427,77	10,948
427,98	12,317
428,19	9,837
428,41	12,820
428,62	11,530
428,83	12,373
429,04	12,007
429,26	11,129
429,47	11,439
429,68	9,991
429,89	10,669
430,11	10,289
430,32	7,882
430,53	7,713
430,74	6,655
430,96	6,518
431,17	6,436
431,38	6,304
431,59	5,072
431,81	4,357
432,02	4,153
432,23	5,530
432,44	4,521
432,66	4,656
432,87	4,002
433,08	3,980
433,29	3,423
433,51	2,956
433,72	3,307
433,93	3,138
434,14	3,044
434,35	2,644
434,57	2,979
434,78	1,673
434,99	2,632
435,20	2,201
435,42	1,753
435,63	2,052
435,84	2,551
436,05	3,108
436,26	1,836
436,48	2,188
436,69	1,512
436,90	1,940
437,11	1,392
437,32	1,612
437,54	1,867
437,75	1,780
437,96	1,838
438,17	1,048
438,38	1,564
438,60	1,267
438,81	1,111
439,02	1,417
439,23	1,210
439,44	1,033
439,66	1,144
439,87	1,079
440,08	0,890
440,29	1,068
440,50	1,128
440,72	0,783
440,93	0,995
441,14	1,126
441,35	1,053
441,56	0,677
441,77	1,178
441,99	0,852
442,20	0,743
442,41	0,637
442,62	0,757
442,83	1,093
443,04	0,962
443,26	0,714
443,47	0,976
443,68	0,666
443,89	0,772
444,10	0,687
444,31	0,812
444,53	0,887
444,74	0,644
444,95	0,826
445,16	0,688
445,37	0,834
445,58	0,573
445,80	0,679
446,01	0,995
446,22	0,546
446,43	0,649
446,64	0,539
446,85	0,424
447,06	0,708
447,28	0,713
447,49	0,659
447,70	0,922
447,91	0,587
448,12	0,561
448,33	0,526
448,54	0,804
448,76	0,796
448,97	0,817
449,18	0,587
449,39	0,712
449,60	0,745
449,81	0,941
450,02	0,772
450,23	0,536
450,45	0,812
450,66	0,676
450,87	0,833
451,08	0,601
451,29	0,858
451,50	0,511
451,71	0,819
451,92	0,745
452,13	0,455
452,35	1,070
452,56	0,954
452,77	0,866
452,98	0,743
453,19	0,615
453,40	0,652
453,61	0,805
453,82	0,508
454,03	0,710
454,25	1,107
454,46	0,674
454,67	0,921
454,88	0,896
455,09	0,992
455,30	1,008
455,51	0,777
455,72	0,928
455,93	0,697
456,14	0,807
456,35	1,063
456,56	1,180
456,78	0,700
456,99	0,833
457,20	1,112
457,41	0,632
457,62	0,800
457,83	0,683
458,04	0,999
458,25	0,685
458,46	0,561
458,67	1,089
458,88	1,030
459,09	0,699
459,30	0,903
459,51	0,939
459,73	0,823
459,94	1,107
460,15	1,079
460,36	1,018
460,57	1,171
460,78	1,291
460,99	1,362
461,20	1,684
461,41	2,050
461,62	2,369
461,83	2,558
462,04	3,342
462,25	4,161
462,46	4,417
462,67	5,189
462,88	5,977
463,09	6,362
463,30	7,258
463,51	8,380
463,72	8,941
463,93	9,694
464,15	11,203
464,36	11,980
464,57	13,180
464,78	14,426
464,99	15,670
465,20	17,617
465,41	18,585
465,62	20,231
465,83	21,755
466,04	23,355
466,25	24,448
466,46	26,481
466,67	27,678
466,88	29,191
467,09	30,520
467,30	31,471
467,51	32,948
467,72	32,924
467,93	33,725
468,14	34,323
468,35	34,753
468,56	35,323
468,77	35,498
468,98	35,437
469,19	35,766
469,40	36,023
469,61	35,345
469,82	34,910
470,03	36,012
470,24	35,597
470,45	35,128
470,66	35,140
470,87	35,627
471,08	35,864
471,29	35,259
471,50	35,353
471,71	34,461
471,92	34,661
472,13	34,317
472,34	34,187
472,55	33,763
472,76	32,989
472,97	32,494
473,18	31,734
473,39	30,965
473,60	30,609
473,81	29,553
474,01	28,119
474,22	28,129
474,43	27,077
474,64	26,891
474,85	25,734
475,06	24,802
475,27	24,600
475,48	24,317
475,69	23,299
475,90	23,025
476,11	22,895
476,32	22,092
476,53	21,992
476,74	21,807
476,95	21,154
477,16	20,359
477,37	19,943
477,58	20,237
477,79	19,600
478,00	18,838
478,21	18,953
478,41	18,150
478,62	18,080
478,83	17,747
479,04	17,591
479,25	17,143
479,46	16,731
479,67	17,133
479,88	16,923
480,09	16,760
480,30	16,611
480,51	16,500
480,72	16,410
480,93	16,265
481,14	16,211
481,34	15,761
481,55	16,376
481,76	16,419
481,97	16,554
482,18	17,115
482,39	17,430
482,60	17,176
482,81	17,589
483,02	17,598
483,23	17,628
483,44	18,206
483,65	18,016
483,85	17,960
484,06	17,636
484,27	17,247
484,48	17,326
484,69	17,725
484,90	17,397
485,11	16,524
485,32	16,583
485,53	16,100
485,73	15,977
485,94	15,595
486,15	15,258
486,36	14,581
486,57	14,188
486,78	14,124
486,99	14,139
487,20	13,527
487,41	13,840
487,61	13,577
487,82	13,796
488,03	13,901
488,24	14,523
488,45	14,897
488,66	15,893
488,87	16,424
489,08	17,165
489,28	17,755
489,49	18,525
489,70	19,300
489,91	20,211
490,12	20,720
490,33	21,625
490,54	22,186
490,74	23,436
490,95	24,444
491,16	25,244
491,37	25,954
491,58	26,636
491,79	27,105
492,00	27,581
492,20	28,135
492,41	28,031
492,62	27,540
492,83	27,234
493,04	27,263
493,25	27,090
493,45	26,551
493,66	26,549
493,87	25,522
494,08	24,966
494,29	24,343
494,50	23,812
494,70	23,110
494,91	22,335
495,12	21,192
495,33	20,227
495,54	18,854
495,75	17,819
495,95	16,595
496,16	15,415
496,37	13,831
496,58	12,261
496,79	11,323
496,99	10,251
497,20	9,271
497,41	8,359
497,62	7,404
497,83	6,904
498,04	5,897
498,24	5,268
498,45	4,733
498,66	4,347
498,87	3,903
499,08	3,244
499,28	3,095
499,49	2,550
499,70	2,642
499,91	2,413
500,12	2,438
500,32	2,361
500,53	2,359
500,74	2,337
500,95	2,408
501,15	2,392
501,36	2,344
501,57	2,483
501,78	2,620
501,99	2,522
502,19	2,213
502,40	2,480
502,61	2,506
502,82	2,175
503,02	1,926
503,23	1,928
503,44	1,622
503,65	1,386
503,86	1,193
504,06	0,814
504,27	0,861
504,48	0,675
504,69	0,654
504,89	0,580
505,10	0,611
505,31	0,632
505,52	0,468
505,72	0,545
505,93	0,549
506,14	0,521
506,35	0,647
506,55	0,487
506,76	0,576
506,97	0,527
507,18	0,538
507,38	0,580
507,59	0,548
507,80	0,451
508,01	0,594
508,21	0,419
508,42	0,693
508,63	0,527
508,84	0,381
509,04	0,457
509,25	0,319
509,46	0,429
509,67	0,516
509,87	0,468
510,08	0,672
510,29	0,669
510,49	0,496
510,70	0,413
510,91	0,503
511,12	0,509
511,32	0,323
511,53	0,684
511,74	0,380
511,94	0,584
512,15	0,316
512,36	0,485
512,57	0,605
512,77	0,447
512,98	0,441
513,19	0,278
513,39	0,652
513,60	0,364
513,81	0,394
514,01	0,644
514,22	0,609
514,43	0,724
514,64	0,428
514,84	0,386
515,05	0,444
515,26	0,455
515,46	0,658
515,67	0,487
515,88	0,533
516,08	0,536
516,29	0,474
516,50	0,516
516,70	0,411
516,91	0,696
517,12	0,547
517,32	0,549
517,53	0,508
517,74	0,431
517,95	0,418
518,15	0,521
518,36	0,465
518,57	0,543
518,77	0,396
518,98	0,471
519,19	0,313
519,39	0,561
519,60	0,350
519,80	0,448
520,01	0,497
520,22	0,452
520,42	0,488
520,63	0,496
520,84	0,323
521,04	0,623
521,25	0,781
521,46	0,525
521,66	0,518
521,87	0,367
522,08	0,543
522,28	0,772
522,49	0,384
522,70	0,567
522,90	0,701
523,11	0,415
523,31	0,760
523,52	0,504
523,73	0,671
523,93	0,729
524,14	0,501
524,35	0,468
524,55	0,579
524,76	0,446
524,97	0,543
525,17	0,519
525,38	0,567
525,58	0,650
525,79	0,553
526,00	0,426
526,20	0,678
526,41	0,337
526,61	0,483
526,82	0,600
527,03	0,447
527,23	0,585
527,44	0,538
527,64	0,467
527,85	0,473
528,06	0,597
528,26	0,685
528,47	0,488
528,68	0,456
528,88	0,584
529,09	0,466
529,29	0,582
529,50	0,455
529,70	0,564
529,91	0,678
530,12	0,611
530,32	0,434
530,53	0,583
530,73	0,567
530,94	0,626
531,15	0,636
531,35	0,424
531,56	0,643
531,76	0,591
531,97	0,686
532,17	0,481
532,38	0,704
532,59	0,910
532,79	0,673
533,00	0,700
533,20	0,715
533,41	0,793
533,61	0,806
533,82	1,039
534,03	0,690
534,23	0,959
534,44	0,899
534,64	1,076
534,85	1,077
535,05	1,258
535,26	1,116
535,46	1,563
535,67	1,620
535,88	1,626
536,08	1,834
536,29	2,110
536,49	2,126
536,70	2,391
536,90	2,722
537,11	3,153
537,31	3,307
537,52	3,610
537,72	4,104
537,93	4,806
538,13	5,491
538,34	6,122
538,55	6,835
538,75	7,813
538,96	8,694
539,16	10,165
539,37	11,721
539,57	12,487
539,78	14,575
539,98	15,924
540,19	17,700
540,39	19,342
540,60	21,736
540,80	23,291
541,01	25,072
541,21	26,959
541,42	28,607
541,62	30,374
541,83	31,780
542,03	33,368
542,24	34,685
542,44	35,629
542,65	36,136
542,85	37,029
543,06	38,202
543,26	37,971
543,47	38,801
543,67	39,098
543,88	39,188
544,08	38,685
544,29	38,884
544,49	39,044
544,70	38,943
544,90	39,175
545,11	39,054
545,31	39,421
545,52	38,782
545,72	39,017
545,93	38,798
546,13	39,189
546,34	39,225
546,54	38,789
546,75	39,711
546,95	39,722
547,15	40,334
547,36	40,618
547,56	40,313
547,77	40,729
547,97	40,668
548,18	41,429
548,38	41,737
548,59	41,775
548,79	42,109
549,00	42,320
549,20	43,299
549,41	43,502
549,61	43,327
549,81	43,696
550,02	43,749
550,22	44,020
550,43	44,449
550,63	44,303
550,84	44,306
551,04	45,104
551,25	44,824
551,45	45,009
551,65	45,550
551,86	46,020
552,06	45,551
552,27	46,127
552,47	46,029
552,68	46,857
552,88	45,178
553,08	45,238
553,29	46,249
553,49	45,571
553,70	46,045
553,90	46,267
554,11	46,658
554,31	46,357
554,51	46,255
554,72	45,357
554,92	45,495
555,13	45,409
555,33	45,190
555,53	45,546
555,74	44,989
555,94	45,437
556,15	45,436
556,35	45,222
556,56	44,833
556,76	45,614
556,96	45,938
557,17	46,659
557,37	47,189
557,58	48,140
557,78	48,704
557,98	49,832
558,19	50,628
558,39	51,218
558,59	52,961
558,80	52,465
559,00	53,079
559,21	53,460
559,41	53,033
559,61	52,697
559,82	52,541
560,02	52,314
560,23	50,972
560,43	50,536
560,63	49,264
560,84	48,747
561,04	48,040
561,24	47,715
561,45	46,793
561,65	46,944
561,85	45,623
562,06	45,040
562,26	45,417
562,47	45,310
562,67	44,303
562,87	44,076
563,08	43,708
563,28	43,125
563,48	42,978
563,69	42,743
563,89	42,397
564,09	42,743
564,30	41,898
564,50	42,060
564,70	41,993
564,91	41,788
565,11	41,220
565,31	41,972
565,52	41,917
565,72	42,065
565,92	41,505
566,13	41,707
566,33	41,557
566,53	41,857
566,74	40,955
566,94	40,340
567,14	39,955
567,35	39,370
567,55	38,965
567,75	39,049
567,96	37,149
568,16	36,968
568,36	35,746
568,57	35,468
568,77	34,479
568,97	34,424
569,18	34,005
569,38	33,495
569,58	32,608
569,79	32,444
569,99	32,725
570,19	32,771
570,39	32,949
570,60	32,791
570,80	32,739
571,00	33,536
571,21	33,335
571,41	34,051
571,61	34,305
571,82	35,280
572,02	35,783
572,22	36,380
572,42	36,776
572,63	37,121
572,83	37,648
573,03	38,174
573,24	39,077
573,44	39,009
573,64	39,201
573,84	39,982
574,05	39,449
574,25	39,243
574,45	38,473
574,66	37,222
574,86	37,794
575,06	36,623
575,26	35,597
575,47	34,650
575,67	33,974
575,87	32,512
576,07	32,115
576,28	30,645
576,48	29,123
576,68	28,347
576,88	27,047
577,09	26,550
577,29	25,663
577,49	24,748
577,69	24,106
577,90	23,671
578,10	23,381
578,30	22,890
578,50	22,757
578,71	23,121
578,91	23,012
579,11	23,002
579,31	23,459
579,52	24,388
579,72	24,233
579,92	24,431
580,12	25,824
580,33	26,632
580,53	26,678
580,73	27,390
580,93	28,072
581,13	28,870
581,34	29,509
581,54	29,438
581,74	30,187
581,94	30,306
582,15	30,582
582,35	30,512
582,55	30,802
582,75	30,858
582,95	30,876
583,16	31,048
583,36	30,717
583,56	30,665
583,76	30,104
583,96	29,364
584,17	30,088
584,37	29,886
584,57	29,174
584,77	28,731
584,97	28,751
585,18	28,656
585,38	28,726
585,58	28,317
585,78	28,168
585,98	27,751
586,19	27,662
586,39	27,909
586,59	27,582
586,79	27,014
586,99	26,662
587,20	25,912
587,40	26,652
587,60	26,241
587,80	26,295
588,00	25,413
588,20	24,928
588,41	25,211
588,61	24,796
588,81	24,644
589,01	24,297
589,21	23,338
589,41	23,353
589,62	22,893
589,82	22,615
590,02	21,783
590,22	21,724
590,42	21,339
590,62	20,273
590,83	19,471
591,03	18,632
591,23	17,301
591,43	17,373
591,63	15,992
591,83	14,996
592,03	13,809
592,24	12,876
592,44	12,213
592,64	11,125
592,84	10,299
593,04	9,506
593,24	8,809
593,44	8,015
593,65	7,316
593,85	7,067
594,05	6,439
594,25	6,248
594,45	5,666
594,65	5,343
594,85	5,325
595,06	5,085
595,26	5,056
595,46	4,474
595,66	4,502
595,86	4,312
596,06	4,146
596,26	3,947
596,46	3,684
596,66	3,569
596,87	3,342
597,07	3,014
597,27	2,924
597,47	2,625
597,67	2,601
597,87	2,142
598,07	1,773
598,27	1,797
598,47	1,591
598,67	1,312
598,88	1,201
599,08	1,089
599,28	0,971
599,48	0,928
599,68	0,877
599,88	0,669
600,08	0,561
600,28	0,711
600,48	0,602
600,68	0,620
600,88	0,597
601,09	0,447
601,29	0,412
601,49	0,556
601,69	0,515
601,89	0,433
602,09	0,504
602,29	0,527
602,49	0,430
602,69	0,393
602,89	0,444
603,09	0,443
603,29	0,338
603,49	0,425
603,69	0,408
603,90	0,359
604,10	0,508
604,30	0,555
604,50	0,225
604,70	0,576
604,90	0,318
605,10	0,390
605,30	0,539
605,50	0,426
605,70	0,415
605,90	0,443
606,10	0,407
606,30	0,260
606,50	0,427
606,70	0,403
606,90	0,524
607,10	0,405
607,30	0,292
607,50	0,414
607,70	0,429
607,90	0,466
608,10	0,298
608,30	0,304
608,50	0,505
608,70	0,452
608,90	0,351
609,11	0,575
609,31	0,381
609,51	0,366
609,71	0,590
609,91	0,416
610,11	0,412
610,31	0,381
610,51	0,363
610,71	0,372
610,91	0,295
611,11	0,549
611,31	0,313
611,51	0,314
611,71	0,087
611,91	0,506
612,11	0,409
612,31	0,670
612,51	0,250
612,71	0,313
612,91	0,276
613,11	0,518
613,31	0,421
613,51	0,419
613,71	0,327
613,91	0,376
614,11	0,394
614,31	0,459
614,50	0,438
614,70	0,309
614,90	0,411
615,10	0,426
615,30	0,322
615,50	0,231
615,70	0,406
615,90	0,613
616,10	0,317
616,30	0,360
616,50	0,471
616,70	0,378
616,90	0,464
617,10	0,457
617,30	0,338
617,50	0,474
617,70	0,350
617,90	0,324
618,10	0,411
618,30	0,394
618,50	0,274
618,70	0,374
618,90	0,196
619,10	0,398
619,30	0,364
619,49	0,289
619,69	0,248
619,89	0,268
620,09	0,361
620,29	0,457
620,49	0,541
620,69	0,393
620,89	0,405
621,09	0,323
621,29	0,332
621,49	0,398
621,69	0,455
621,89	0,593
622,09	0,293
622,29	0,347
622,48	0,355
622,68	0,308
622,88	0,290
623,08	0,397
623,28	0,219
623,48	0,268
623,68	0,156
623,88	0,400
624,08	0,501
624,28	0,155
624,48	0,467
624,67	0,370
624,87	0,164
625,07	0,296
625,27	0,322
625,47	0,403
625,67	0,528
625,87	0,292
626,07	0,333
626,27	0,453
626,47	0,322
626,66	0,428
626,86	0,430
627,06	0,392
627,26	0,482
627,46	0,247
627,66	0,274
627,86	0,306
628,06	0,520
628,25	0,365
628,45	0,386
628,65	0,313
628,85	0,512
629,05	0,492
629,25	0,389
629,45	0,179
629,65	0,239
629,84	0,385
630,04	0,259
630,24	0,231
630,44	0,256
630,64	0,293
630,84	0,416
631,04	0,454
631,23	0,337
631,43	0,382
631,63	0,285
631,83	0,407
632,03	0,398
632,23	0,374
632,42	0,361
632,62	0,495
632,82	0,316
633,02	0,304
633,22	0,325
633,42	0,396
633,62	0,406
633,81	0,489
634,01	0,220
634,21	0,316
634,41	0,534
634,61	0,461
634,80	0,425
635,00	0,393
635,20	0,285
635,40	0,519
635,60	0,421
635,80	0,312
635,99	0,338
636,19	0,334
636,39	0,550
636,59	0,750
636,79	0,599
636,98	0,597
637,18	0,657
637,38	0,689
637,58	0,620
637,78	0,659
637,97	0,483
638,17	0,706
638,37	0,196
638,57	0,353
638,77	0,610
638,96	0,529
639,16	0,761
639,36	0,546
639,56	0,471
639,76	0,516
639,95	0,570
640,15	0,438
640,35	0,479
640,55	0,325
640,75	0,546
640,94	0,588
641,14	0,496
641,34	0,471
641,54	0,633
641,73	0,502
641,93	0,595
642,13	0,590
642,33	0,674
642,53	0,585
642,72	0,713
642,92	0,951
643,12	0,274
643,32	0,729
643,51	0,765
643,71	0,510
643,91	0,452
644,11	0,775
644,30	0,436
644,50	0,697
644,70	0,485
644,90	0,092
645,09	0,683
645,29	0,134
645,49	0,718
645,69	1,092
645,88	0,777
646,08	0,543
646,28	0,901
646,48	0,980
646,67	0,301
646,87	0,871
647,07	0,433
647,26	0,756
647,46	0,840
647,66	0,875
647,86	0,448
648,05	0,746
648,25	0,712
648,45	0,916
648,65	0,810
648,84	0,691
649,04	1,027
649,24	0,944
649,43	0,554
649,63	1,283
649,83	0,649
650,03	0,831
650,22	0,707
650,42	0,916
650,62	0,384
650,81	0,622
651,01	0,449
651,21	0,633
651,40	0,509
651,60	0,871
651,80	0,526
652,00	1,010
652,19	0,757
652,39	0,876
652,59	0,600
652,78	1,033
652,98	0,465
653,18	0,564
653,37	0,645
653,57	1,014
653,77	0,393
653,96	0,555
654,16	0,838
654,36	0,769
654,55	1,286
654,75	0,995
654,95	0,927
655,14	0,695
655,34	0,890
655,54	0,629
655,73	0,591
655,93	1,219
656,13	0,539
656,32	0,345
656,52	0,314
656,72	0,527
656,91	1,063
657,11	1,088
657,31	0,635
657,50	0,724
657,70	0,678
657,90	0,680
658,09	0,653
658,29	1,063
658,49	0,697
658,68	1,268
658,88	1,226
659,07	0,362
659,27	0,485
659,47	0,912
659,66	0,627
659,86	1,055
660,06	0,611
660,25	0,370
660,45	0,805
660,64	0,710
660,84	0,767
661,04	0,507
661,23	0,817
661,43	0,941
661,63	0,740
661,82	0,346
662,02	0,671
662,21	0,520
662,41	0,518
662,61	0,858
662,80	0,591
663,00	0,620
663,19	0,562
663,39	1,054
663,59	1,089
663,78	0,648
663,98	0,645
664,17	0,815
664,37	0,779
664,57	0,808
664,76	1,277
664,96	0,814
665,15	0,249
665,35	0,704
665,55	0,479
665,74	0,974
665,94	0,543
666,13	0,946
666,33	0,525
666,53	0,693
666,72	0,460
666,92	0,973
667,11	0,741
667,31	0,674
667,50	0,866
667,70	1,012
667,90	0,706
668,09	0,887
668,29	0,912
668,48	0,652
668,68	0,872
668,87	0,701
669,07	0,992
669,26	1,056
669,46	0,491
669,66	0,830
669,85	0,873
670,05	0,663
670,24	0,783
670,44	0,501
670,63	0,531
670,83	0,557
671,02	0,651
671,22	0,928
671,42	0,780
671,61	0,706
671,81	0,771
672,00	0,686
672,20	0,430
672,39	0,516
672,59	0,217
672,78	0,653
672,98	0,501
673,17	0,534
673,37	0,538
673,56	0,464
673,76	0,594
673,95	0,670
674,15	0,606
674,34	0,693
674,54	0,748
674,73	0,654
674,93	0,878
675,13	0,516
675,32	0,917
675,52	0,838
675,71	0,605
675,91	0,500
676,10	0,555
676,30	0,458
676,49	0,462
676,69	0,908
676,88	0,813
677,08	0,550
677,27	0,775
677,47	0,597
677,66	0,779
677,86	0,526
678,05	0,776
678,24	0,270
678,44	0,671
678,63	0,519
678,83	0,618
679,02	0,476
679,22	0,118
679,41	0,319
679,61	0,683
679,80	0,799
680,00	0,661
680,19	0,603
680,39	0,598
680,58	0,323
680,78	0,393
680,97	0,588
681,17	0,383
681,36	0,450
681,56	0,506
681,75	0,522
681,94	0,617
682,14	0,763
682,33	0,457
682,53	0,786
682,72	0,831
682,92	0,679
683,11	0,542
683,31	0,178
683,50	0,374
683,69	0,564
683,89	0,206
684,08	0,364
684,28	0,413
684,47	0,430
684,67	0,560
684,86	0,292
685,06	0,364
685,25	0,399
685,44	0,350
685,64	0,243
685,83	0,487
686,03	0,247
686,22	0,331
686,42	0,329
686,61	0,259
686,80	0,268
687,00	0,392
687,19	0,485
687,39	0,269
687,58	0,392
687,77	0,373
687,97	0,311
688,16	0,292
688,36	0,300
688,55	0,296
688,74	0,470
688,94	0,237
689,13	0,450
689,33	0,495
689,52	0,274
689,71	0,460
689,91	0,336
690,10	0,404
690,30	0,451
690,49	0,370
690,68	0,449
690,88	0,552
691,07	0,338
691,27	0,463
691,46	0,332
691,65	0,367
691,85	0,362
692,04	0,238
692,23	0,292
692,43	0,257
692,62	0,432
692,82	0,465
693,01	0,421
693,20	0,353
693,40	0,328
693,59	0,339
693,78	0,284
693,98	0,279
694,17	0,205
694,36	0,561
694,56	0,557
694,75	0,110
694,94	0,416
695,14	0,541
695,33	0,223
695,53	0,400
695,72	0,374
695,91	0,397
696,11	0,495
696,30	0,420
696,49	0,378
696,69	0,485
696,88	0,462
697,07	0,200
697,27	0,490
697,46	0,328
697,65	0,388
697,85	0,422
698,04	0,703
698,23	0,752
698,43	0,638
698,62	0,308
698,81	0,366
699,01	0,848
699,20	0,831
699,39	0,607
699,58	0,607
699,78	1,258
699,97	0,303
700,16	0,843
700,36	0,676
700,55	0,618
700,74	0,975
700,94	0,864
701,13	0,898
701,32	1,054
701,52	1,400
701,71	0,978
701,90	0,931
702,09	0,978
702,29	1,113
702,48	1,467
702,67	1,237
702,87	0,956
703,06	1,561
703,25	0,971
703,44	1,072
703,64	1,557
703,83	1,195
704,02	1,399
704,22	0,659
704,41	1,168
704,60	2,221
704,79	1,440
704,99	1,694
705,18	2,225
705,37	1,455
705,56	1,995
705,76	2,034
705,95	1,733
706,14	1,686
706,33	2,818
706,53	2,184
706,72	1,950
706,91	2,083
707,11	2,796
707,30	1,778
707,49	3,058
707,68	1,938
707,88	2,200
708,07	2,645
708,26	2,926
708,45	2,637
708,64	2,943
708,84	3,651
709,03	2,593
709,22	2,377
709,41	2,663
709,61	2,476
709,80	2,449
709,99	3,446
710,18	3,664
710,38	2,489
710,57	2,505
710,76	2,855
710,95	2,295
711,14	5,094
711,34	3,799
711,53	3,441
711,72	4,271
711,91	3,497
712,11	5,839
712,30	5,307
712,49	2,983
712,68	3,257
712,87	5,760
713,07	4,785
713,26	2,747
713,45	4,885
713,64	4,276
713,83	3,308
714,03	5,502
714,22	4,909
714,41	3,799
714,60	4,966
714,79	4,818
714,99	4,626
715,18	4,669
715,37	5,519
715,56	5,057
715,75	4,446
715,94	5,167
716,14	5,260
716,33	4,957
716,52	5,718
716,71	7,151
716,90	6,516
717,10	6,765
717,29	6,457
717,48	6,850
717,67	4,332
717,86	3,090
718,05	3,597
718,24	7,250
718,44	6,995
718,63	5,921
718,82	7,935
719,01	6,238
719,20	3,283
719,39	8,084
719,59	3,646
719,78	6,089
719,97	8,089
720,16	7,814
720,35	6,671
720,54	6,700
720,73	5,147
720,93	6,667
721,12	6,716
721,31	9,339
721,50	4,970
721,69	4,707
721,88	9,653
722,07	5,046
722,27	8,211
722,46	6,376
722,65	4,742
722,84	4,788
723,03	7,620
723,22	9,010
723,41	8,762
723,60	7,769
723,79	5,525
723,99	7,560
724,18	11,191
724,37	6,579
724,56	9,456
724,75	8,289
724,94	12,119
725,13	13,581
725,32	8,935
725,51	10,545
725,71	7,860
725,90	9,108
726,09	10,602
726,28	8,947
726,47	11,523
726,66	8,279
726,85	5,225
727,04	6,854
727,23	10,139
727,42	14,244
727,61	4,444
727,81	7,195
728,00	9,746
728,19	8,238
728,38	5,616
728,57	12,055
728,76	12,735
728,95	7,366
729,14	9,626
729,33	11,636
729,52	11,474
729,71	13,548
729,90	11,366
730,09	10,748
730,28	13,972
730,48	13,225
730,67	16,203
730,86	7,090
731,05	12,617
731,24	10,526
731,43	11,698
731,62	17,293
731,81	9,403
732,00	15,629
732,19	9,323
732,38	14,005
732,57	10,354
732,76	14,643
732,95	7,867
733,14	8,192
733,33	10,577
733,52	16,344
733,71	7,663
733,90	19,923
734,09	12,110
734,28	15,724
734,47	9,211
734,66	12,754
734,85	9,645
735,04	17,166
735,23	14,021
735,42	17,867
735,61	16,933
735,81	14,483
736,00	17,169
736,19	13,018
736,38	12,889
736,57	18,384
736,76	11,008
736,95	15,758
737,14	12,766
737,33	19,262
737,52	10,558
737,71	8,494
737,90	19,516
738,09	18,712
738,28	13,557
738,47	22,876
738,66	11,719
738,85	17,182
739,04	19,525
739,22	7,432
739,41	12,742
739,60	14,047
739,79	14,897
739,98	11,615
740,17	21,769
740,36	17,857
740,55	21,164
740,74	10,261
740,93	21,138
741,12	7,904
741,31	15,625
741,50	15,443
741,69	11,667
741,88	8,600
742,07	19,314
742,26	13,296
742,45	22,134
742,64	24,460
742,83	14,043
743,02	16,757
743,21	24,145
743,40	16,507
743,59	17,008
743,78	21,179
743,97	20,489
744,16	13,969
744,34	22,638
744,53	20,697
744,72	28,690
744,91	14,105
745,10	19,662
745,29	18,440
745,48	20,744
745,67	19,959
745,86	8,216
746,05	23,059
746,24	19,826
746,43	19,149
746,62	20,046
746,81	26,941
747,00	21,294
747,18	28,132
747,37	15,565
747,56	19,101
747,75	26,258
747,94	27,352
748,13	26,256
748,32	27,991
748,51	26,185
748,70	25,420
748,89	23,188
749,08	20,000
749,26	24,821
749,45	24,235
749,64	25,558
749,83	2,799
750,02	19,613
750,21	27,859
750,40	27,344
750,59	28,774
750,78	29,586
750,96	23,464
751,15	26,503
751,34	40,314
751,53	29,310
751,72	30,458
751,91	30,959
752,10	18,827
752,29	28,249
752,47	28,652
752,66	30,986
752,85	27,864
753,04	40,694
753,23	16,887
753,42	27,052
753,61	15,033
753,80	30,081
753,98	23,158
754,17	19,325
754,36	34,463
754,55	19,122
754,74	44,509
754,93	27,954
755,12	20,000
755,30	30,194
755,49	38,226
755,68	33,429
755,87	33,033
756,06	27,095
756,25	19,365
756,43	33,103
756,62	26,113
756,81	32,673
757,00	30,145
757,19	33,904
757,38	39,748
757,56	31,290
757,75	23,203
757,94	24,921
758,13	24,026
758,32	26,136
758,51	27,574
758,69	28,000
758,88	41,742
759,07	39,427
759,26	15,814
759,45	33,624
759,63	40,520
759,82	35,354
760,01	32,441
760,20	40,078
760,39	34,701
760,57	29,339
760,76	24,324
760,95	42,130
761,14	36,327
761,33	41,562
761,51	24,014
761,70	55,172
761,89	43,852
762,08	42,791
762,27	32,234
762,45	52,529
762,64	26,740
762,83	46,903
763,02	46,977
763,21	34,483
763,39	40,408
763,58	32,453
763,77	37,066
763,96	52,209
764,14	45,000
764,33	43,956
764,52	50,215
764,71	32,735
764,89	45,588
765,08	48,276
765,27	47,212
765,46	45,652
765,65	23,144
765,83	48,485
766,02	28,085
766,21	45,304
766,40	38,571
766,58	39,024
766,77	33,333
766,96	55,909
767,15	60,870
767,33	40,351
767,52	73,171
767,71	60,870
767,90	44,944
768,08	49,416
768,27	35,500
768,46	55,469
768,64	54,922
768,83	60,417
769,02	67,500
769,21	53,712
769,39	51,163
769,58	41,618
769,77	49,808
769,96	57,068
770,14	31,293
770,33	37,383
770,52	42,328
770,70	47,333
770,89	85,235
771,08	47,458
771,27	71,134
771,45	57,895
771,64	66,146
771,83	55,607
772,01	57,229
772,20	57,789
772,39	41,333
772,57	41,085
772,76	57,778
772,95	43,262
773,14	83,333
773,32	66,452
773,51	68,159
773,70	75,625
773,88	88,525
774,07	60,209
774,26	32,624
774,44	39,634
774,63	64,975
774,82	78,049
775,00	64,667
775,19	43,200
775,38	91,329
775,56	61,979
775,75	66,265
775,94	60,127
776,12	40,884
776,31	51,765
776,50	67,614
776,68	58,947
776,87	53,409
777,06	82,069
777,24	78,889
777,43	64,744
777,62	55,147
777,80	59,459
777,99	72,000
778,18	75,743
778,36	78,400
778,55	59,504
778,74	93,056
778,92	86,391
779,11	82,500
779,29	55,975
779,48	44,898
779,67	72,868
779,85	88,618
780,04	64,865
780,23	58,993
780,41	71,094
780,60	58,947
780,79	93,785
780,97	69,079
781,16	55,758
781,34	111,340
781,53	70,940
781,72	71,533
781,90	74,219
782,09	85,161
782,28	108,029
782,46	65,185
782,65	77,857
782,83	107,865
783,02	118,750
783,21	89,333
783,39	109,565
783,58	84,024
783,76	64,246
783,95	66,667
784,14	71,523
784,32	89,262
784,51	72,414
784,69	92,373
784,88	59,459
785,06	51,261
785,25	98,089
785,44	87,770
785,62	91,429
785,81	123,944
785,99	104,317
786,18	62,838
786,37	66,667
786,55	72,477
786,74	53,289
786,92	102,344
787,11	91,667
787,29	76,866
787,48	81,333
787,67	101,205
787,85	98,276
788,04	57,921
788,22	86,066
788,41	136,471
788,59	127,523
788,78	89,697
788,96	96,226
789,15	101,053
789,34	90,000
789,52	100,000
789,71	107,752
789,89	151,064
790,08	89,041
790,26	97,143
790,45	84,091
790,63	110,185
790,82	80,000
791,00	83,333
791,19	141,935
791,38	100,000
791,56	85,965
791,75	121,101
791,93	104,598
792,12	72,189
792,30	92,800
792,49	82,353
792,67	95,522
792,86	93,798
793,04	92,523
793,23	58,333
793,41	117,722
793,60	132,323
793,78	85,965
793,97	114,103
794,15	117,273
794,34	134,066
794,52	110,390
794,71	132,099
794,89	68,889
795,08	75,728
795,26	79,444
795,45	159,701
795,63	115,152
795,82	110,280
796,00	70,642
796,19	112,500
796,37	122,628
796,56	124,731
796,74	92,035
796,93	126,966
797,11	143,038
797,30	73,333
797,48	80,690
797,67	99,167
797,85	82,653
798,04	184,375
798,22	103,175
798,41	105,882
798,59	112,632
798,77	104,615
798,96	123,656
799,14	112,931
799,33	112,977
799,51	90,769
799,70	104,027
799,88	101,515
800,07	76,316
800,25	85,517
800,44	117,172
800,62	112,941
800,80	94,203
800,99	155,556
801,17	74,138
801,36	94,483
801,54	112,500
801,73	106,061
801,91	100,000
802,10	90,476
802,28	149,533
802,46	108,642
802,65	90,805
802,83	143,820
803,02	136,842
803,20	104,687
803,39	51,724
803,57	120,482
803,75	89,189
803,94	117,647
804,12	70,000
804,31	98,230
804,49	70,192
804,67	75,200
804,86	63,393
805,04	86,486
805,23	75,172
805,41	92,623
805,59	92,623
805,78	88,636
805,96	100,000
806,15	136,719
806,33	114,286
806,51	98,230
806,70	168,333
806,88	62,602
807,07	57,937
807,25	72,956
807,43	109,272
807,62	78,049
807,80	115,054
807,99	92,063
808,17	109,929
808,35	118,421
808,54	87,097
808,72	107,200
808,90	140,789
809,09	87,500
809,27	132,432
809,46	125,000
809,64	110,784
809,82	91,954
810,01	103,788
810,19	56,000
810,37	80,000
810,56	168,293
810,74	64,901
810,92	96,212
811,11	150,980
811,29	75,177
811,48	134,343
811,66	98,450
811,84	119,266
812,03	111,818
812,21	146,154
812,39	91,525
812,58	83,333
812,76	74,766
812,94	92,667
813,13	68,254
813,31	95,000
813,49	111,957
813,68	106,087
813,86	139,796
814,04	157,282
814,23	121,212
814,41	79,412
814,59	81,921
814,78	91,912
814,96	99,099
815,14	150,000
815,33	94,928
815,51	72,593
815,69	86,420
815,87	95,652
816,06	105,000
816,24	75,497
816,42	47,436
816,61	100,847
816,79	140,964
816,97	100,000
817,16	54,839
817,34	88,276
817,52	95,862
817,70	137,302
817,89	85,124
818,07	60,345
818,25	99,099
818,44	83,140
818,62	90,517
818,80	63,636
818,98	117,143
819,17	60,769
819,35	95,882
819,53	100,000
819,72	70,930
819,90	59,880
820,08	62,338
820,26	111,404
820,45	75,301
820,63	83,854
820,81	89,262
820,99	93,233
821,18	50,370
821,36	82,381
821,54	41,279
821,73	74,054
821,91	63,830
822,09	68,235
822,27	80,203
822,46	91,875
822,64	101,987
822,82	71,707
823,00	58,559
823,19	63,636
823,37	102,857
823,55	82,353
823,73	93,333
823,91	53,591
824,10	92,179
824,28	71,111
824,46	49,419
824,64	61,765
824,83	62,602
825,01	81,884
825,19	78,286
825,37	75,521
825,56	80,000
825,74	66,667
825,92	89,326
826,10	84,472
826,28	61,074
826,47	69,106
826,65	47,973
826,83	72,043
827,01	62,121
827,19	68,354
827,38	76,684
827,56	66,346
827,74	57,724
827,92	79,512
828,10	76,087
828,29	74,762
828,47	63,158
828,65	54,054
828,83	77,273
829,01	76,667
829,20	62,658
829,38	51,452
829,56	57,490
829,74	87,879
829,92	58,247
830,10	72,072
830,29	59,459
830,47	74,479
830,65	36,161
830,83	58,286
831,01	52,917
831,20	57,426
831,38	69,268
831,56	69,636
831,74	81,143
831,92	46,591
832,10	73,182
832,29	59,242
832,47	61,947
832,65	60,851
832,83	77,209
833,01	50,198
833,19	55,656
833,37	72,222
833,56	53,991
833,74	46,154
833,92	37,168
834,10	66,497
834,28	56,923
834,46	54,325
834,64	51,172
834,83	48,464
835,01	58,366
835,19	65,403
835,37	44,223
835,55	66,426
835,73	57,353
835,91	23,938
836,09	41,079
836,28	53,053
836,46	48,070
836,64	53,689
836,82	52,985
837,00	54,422
837,18	47,431
837,36	46,524
837,54	46,970
837,72	41,833
837,91	37,751
838,09	41,600
838,27	61,172
838,45	61,165
838,63	34,237
838,81	48,355
838,99	53,310
839,17	50,162
839,35	33,704
839,53	46,980
839,72	24,576
839,90	33,739
840,08	40,064
840,26	45,110
840,44	34,259
840,62	41,751
840,80	32,099
840,98	41,994
841,16	24,199
841,34	37,101
841,52	30,990
841,70	38,047
841,89	29,355
842,07	27,297
842,25	28,896
842,43	31,613
842,61	37,534
842,79	26,220
842,97	32,927
843,15	41,547
843,33	35,867
843,51	40,095
843,69	21,389
843,87	32,075
844,05	30,728
844,23	33,243
844,41	31,910
844,59	26,989
844,77	25,360
844,95	31,553
845,13	47,268
845,31	27,933
845,50	37,887
845,68	32,124
845,86	35,377
846,04	34,074
846,22	33,890
846,40	16,535
846,58	21,716
846,76	37,157
846,94	25,481
847,12	20,379
847,30	32,949
847,48	25,180
847,66	35,610
847,84	32,487
848,02	26,611
848,20	34,216
848,38	28,361
848,56	29,462
848,74	26,653
848,92	22,547
849,10	31,920
849,28	27,015
849,46	33,879
849,64	20,476
849,82	22,596
850,00	18,070
850,18	26,328
850,36	26,096
850,54	28,251
850,72	28,274
850,90	29,927
851,08	11,728
851,26	31,174
851,44	23,695
851,62	20,751
851,80	18,290
851,98	38,683
852,16	32,922
852,34	32,827
852,52	23,062
852,70	20,683
852,87	20,952
853,05	27,054
853,23	21,373
853,41	16,564
853,59	20,377
853,77	27,381
853,95	25,847
854,13	22,136
854,31	26,527
854,49	21,242
854,67	36,090
854,85	22,957
855,03	12,069
855,21	23,012
855,39	17,785
855,57	27,899
855,75	16,526
855,93	18,728
856,11	25,518
856,28	29,861
856,46	16,013
856,64	21,521
856,82	17,627
857,00	16,609
857,18	22,692
857,36	17,983
857,54	20,270
857,72	19,533
857,90	15,321
858,08	23,611
858,26	16,514
858,44	19,099
858,61	12,825
858,79	27,287
858,97	15,616
859,15	18,265
859,33	22,086
859,51	16,134
859,69	14,435
859,87	19,619
860,05	22,455
860,23	13,333
860,40	14,900
860,58	15,086
860,76	21,469
860,94	11,450
861,12	18,697
861,30	21,614
861,48	11,331
861,66	16,345
861,84	18,855
862,01	21,257
862,19	18,022
862,37	15,598
862,55	11,003
862,73	18,342
862,91	13,219
863,09	16,385
863,27	16,017
863,44	15,629
863,62	12,623
863,80	11,867
863,98	14,432
864,16	14,057
864,34	11,688
864,52	14,009
864,69	15,422
864,87	16,091
865,05	11,583
865,23	11,836
865,41	13,111
865,59	13,844
865,76	14,599
865,94	13,741
866,12	13,817
866,30	13,129
866,48	13,716
866,66	17,679
866,83	13,457
867,01	13,533
867,19	13,998
867,37	10,924
867,55	17,014
867,73	15,490
867,90	11,836
868,08	13,725
868,26	13,227
868,44	11,266
868,62	14,629
868,79	11,472
868,97	11,620
869,15	11,146
869,33	9,702
869,51	12,420
869,69	9,906
869,86	11,795
870,04	13,016
870,22	11,030
870,40	11,717
870,57	14,100
870,75	12,356
870,93	13,215
871,11	8,545
871,29	11,687
871,46	9,265
871,64	10,880
871,82	11,317
872,00	11,474
872,18	8,692
872,35	12,656
872,53	8,790
872,71	7,122
872,89	12,882
873,06	11,808
873,24	11,673
873,42	9,767
873,60	7,346
873,77	9,786
873,95	7,019
874,13	8,945
874,31	8,556
874,49	14,124
874,66	10,481
874,84	6,039
875,02	8,462
875,20	10,083
875,37	5,877
875,55	5,588
875,73	8,628
875,91	11,719
876,08	8,758
876,26	5,828
876,44	8,307
876,61	10,229
876,79	11,059
876,97	8,091
877,15	14,885
877,32	10,630
877,50	10,848
877,68	10,074
877,86	5,995
878,03	8,365
878,21	9,292
878,39	8,963
878,56	9,587
878,74	6,363
878,92	5,267
879,10	8,876
879,27	7,559
879,45	11,587
879,63	9,304
879,80	7,614
879,98	6,833
880,16	5,982
880,34	6,144
880,51	6,645
880,69	9,022
880,87	6,117
881,04	6,641
881,22	8,366
881,40	6,834
881,57	5,435
881,75	7,015
881,93	6,378
882,10	9,609
882,28	6,223
882,46	6,732
882,63	6,910
882,81	6,207
882,99	7,477
883,16	7,898
883,34	8,184
883,52	3,990
883,69	7,270
883,87	6,021
884,05	3,605
884,22	5,852
884,40	6,528
884,58	5,978
884,75	5,749
884,93	10,105
885,11	7,073
885,28	6,185
885,46	6,079
885,64	5,183
885,81	8,751
885,99	6,009
886,17	5,768
886,34	5,663
886,52	6,784
886,70	3,338
886,87	7,095
887,05	6,657
887,22	5,023
887,40	7,501
887,58	4,279
887,75	5,683
887,93	6,495
888,11	4,844
888,28	4,457
888,46	4,498
888,63	5,579
888,81	5,471
888,99	4,028
889,16	4,042
889,34	7,176
889,51	5,193
889,69	5,360
889,87	4,840
890,04	3,632
890,22	4,846
890,39	1,902
890,57	7,109
890,75	6,114
890,92	4,993
891,10	4,569
891,27	4,549
891,45	3,708
891,63	6,028
891,80	5,747
891,98	7,140
892,15	4,061
892,33	4,990
892,51	4,201
892,68	3,875
892,86	5,481
893,03	4,857
893,21	6,205
893,38	5,010
893,56	4,830
893,74	4,421
893,91	5,400
894,09	5,613
894,26	5,525
894,44	5,423
894,61	4,175
894,79	3,821
894,96	4,992
895,14	5,575
895,32	6,601
895,49	4,147
895,67	4,593
895,84	6,243
896,02	5,313
896,19	3,963
896,37	5,724
896,54	3,277
896,72	4,237
896,89	4,795
897,07	4,412
897,25	4,467
897,42	4,792
897,60	5,116
897,77	5,948
897,95	5,163
898,12	3,822
898,30	3,866
898,47	4,096
898,65	3,751
898,82	2,848
899,00	4,571
899,17	4,157
899,35	5,009
899,52	4,019
899,70	2,905
899,87	4,569
900,05	5,110
900,22	3,162
900,40	2,792
900,57	4,459
900,75	2,389
900,92	3,905
901,10	3,546
901,27	3,950
901,45	5,715
901,62	3,832
901,80	4,651
901,97	4,132
902,15	6,690
902,32	4,410
902,50	4,044
902,67	4,054
902,85	4,588
903,02	5,057
903,20	5,018
903,37	4,240
903,54	5,030
903,72	4,738
903,89	4,021
904,07	4,206
904,24	3,866
904,42	3,423
904,59	3,167
904,77	2,694
904,94	1,980
905,12	2,506
905,29	4,278
905,47	4,203
905,64	4,184
905,81	3,948
905,99	3,611
906,16	4,039
906,34	3,302
906,51	4,419
906,69	3,601
906,86	3,750
907,03	4,094
907,21	4,062
907,38	3,440
907,56	2,350
907,73	4,432
907,91	4,549
908,08	3,357
908,25	2,225
908,43	4,626
908,60	2,913
908,78	4,610
908,95	4,645
909,13	3,610
909,30	2,614
909,47	4,583
909,65	3,763
909,82	4,381
910,00	3,033
910,17	3,307
910,34	2,569
910,52	3,213
910,69	4,928
910,87	3,919
911,04	3,700
911,21	4,630
911,39	3,903
911,56	3,585
911,73	4,728
911,91	3,747
912,08	5,237
912,26	3,545
912,43	2,927
912,60	3,260
912,78	3,198
912,95	4,117
913,13	3,426
913,30	3,219
913,47	4,877
913,65	2,372
913,82	3,638
913,99	3,126
914,17	2,757
914,34	4,147
914,51	3,625
914,69	3,619
914,86	4,471
915,03	4,018
915,21	3,266
915,38	2,648
915,56	2,951
915,73	3,485
915,90	4,376
916,08	3,447
916,25	2,747
916,42	2,022
916,60	3,486
916,77	2,303
916,94	2,246
917,12	4,116
917,29	3,890
917,46	3,402
917,64	2,978
917,81	2,401
917,98	2,427
918,16	3,529
918,33	2,894
918,50	3,323
918,67	3,001
918,85	4,215
919,02	2,943
919,19	3,932
919,37	2,643
919,54	3,429
919,71	3,703
919,89	2,770
920,06	2,410
920,23	2,836
920,41	3,177
920,58	2,897
920,75	2,901
920,92	2,726
921,10	2,554
921,27	1,965
921,44	4,077
921,62	2,269
921,79	3,105
921,96	3,097
922,13	2,809
922,31	3,277
922,48	2,690
922,65	2,051
922,82	2,701
923,00	3,456
923,17	2,394
923,34	3,078
923,52	2,448
923,69	3,050
923,86	2,822
924,03	2,615
924,21	2,961
924,38	4,171
924,55	4,429
924,72	3,937
924,90	3,179
925,07	3,455
925,24	3,281
925,41	2,556
925,59	2,539
925,76	3,188
925,93	3,053
926,10	4,446
926,28	3,510
926,45	4,022
926,62	3,071
926,79	4,115
926,96	3,496
927,14	3,634
927,31	3,305
927,48	3,973
927,65	3,171
927,83	3,441
928,00	3,598
928,17	3,181
928,34	3,276
928,51	3,893
928,69	3,512
928,86	4,103
929,03	4,220
929,20	3,649
929,37	4,198
929,55	3,420
929,72	3,514
929,89	3,853
930,06	3,667
930,23	3,188
930,41	3,483
930,58	4,315
930,75	3,353
930,92	3,243
931,09	3,324
931,27	3,571
931,44	3,698
931,61	4,264
931,78	3,591
931,95	2,586
932,12	3,322
932,30	3,754
932,47	4,294
932,64	3,569
932,81	3,260
932,98	3,142
933,16	2,837
933,33	3,828
933,50	3,348
933,67	4,658
933,84	3,957
934,01	2,935
934,18	3,332
934,36	2,913
934,53	2,671
934,70	4,029
934,87	3,063
935,04	4,112
935,21	3,082
935,38	3,344
935,56	2,361
935,73	3,017
935,90	2,173
936,07	3,247
936,24	3,846
936,41	4,390
936,58	2,426
936,76	3,759
936,93	3,001
937,10	2,948
937,27	2,436
937,44	3,285
937,61	3,513
937,78	3,162
937,95	2,685
938,13	2,487
938,30	2,695
938,47	3,179
938,64	2,745
938,81	2,094
938,98	2,967
939,15	2,809
939,32	3,116
939,49	3,880
939,66	3,426
939,84	3,246
940,01	2,973
940,18	2,572
940,35	2,854
940,52	2,194
940,69	3,524
940,86	2,343
941,03	3,005
941,20	3,054
941,37	2,899
941,54	1,067
941,71	1,603
941,89	2,061
942,06	3,315
942,23	2,561
942,40	2,405
942,57	3,011
942,74	2,455
942,91	1,426
943,08	3,387
943,25	2,386
943,42	2,838
943,59	2,317
943,76	3,271
943,93	2,520
944,10	2,097
944,27	2,472
944,44	3,028
944,61	1,898
944,79	2,775
944,96	3,827
945,13	2,647
945,30	2,260
945,47	2,890
945,64	2,168
945,81	3,638
945,98	2,838
946,15	3,259
946,32	2,971
946,49	2,713
946,66	2,611
946,83	2,481
947,00	2,549
947,17	2,757
947,34	3,112
947,51	2,288
947,68	3,427
947,85	1,181
948,02	3,838
948,19	4,041
948,36	3,052
948,53	3,033
948,70	4,797
948,87	4,281
949,04	2,799
949,21	2,481
949,38	4,703
949,55	4,270
949,72	3,936
949,89	3,619
950,06	2,390
950,23	3,903
950,40	4,835
950,57	2,642
950,74	5,665
950,91	3,575
951,08	2,585
951,25	3,221
951,42	6,090
951,59	3,399
951,76	3,943
951,93	3,725
952,10	4,448
952,27	3,109
952,44	2,235
952,61	3,620
952,77	5,156
952,94	4,392
953,11	6,754
953,28	4,839
953,45	5,456
953,62	6,602
953,79	4,639
953,96	5,599
954,13	3,518
954,30	6,660
954,47	5,196
954,64	5,588
954,81	6,404
954,98	5,804
955,15	7,602
955,32	5,777
955,49	4,271
955,65	7,488
955,82	8,344
955,99	6,751
956,16	9,001
956,33	6,276
956,50	6,745
956,67	8,754
956,84	6,963
957,01	8,814
957,18	9,361
957,35	7,686
957,52	10,067
957,68	7,833
957,85	10,553
958,02	8,096
958,19	9,922
958,36	12,145
958,53	12,903
958,70	9,864
958,87	9,393
959,04	12,682
959,21	10,808
959,37	14,502
959,54	11,907
959,71	9,091
959,88	11,087
960,05	12,141
960,22	5,799
960,39	14,800
960,56	10,759
960,72	13,049
960,89	16,477
961,06	20,255
961,23	11,063
961,40	12,121
961,57	11,698
961,74	13,608
961,90	20,469
962,07	16,743
962,24	20,976
962,41	12,563
962,58	18,761
962,75	19,646
962,92	21,495
963,08	14,182
963,25	12,793
963,42	14,976
963,59	10,331
963,76	22,472
963,93	26,545
964,10	19,914
964,26	22,807
964,43	26,615
964,60	20,466
964,77	22,651
964,94	34,091
965,10	38,988
965,27	30,548
965,44	31,169
965,61	38,567
965,78	39,936
965,95	37,126
966,11	41,486
966,28	40,520
966,45	32,399
966,62	46,154
966,79	24,898
966,95	35,522
967,12	36,909
967,29	35,417
967,46	47,348
967,63	37,358
967,79	53,604
967,96	38,961
968,13	33,500
968,30	52,419
968,47	45,361
968,63	53,604
968,80	46,330
968,97	53,846
969,14	61,628
969,31	68,333
969,47	51,765
969,64	67,677
969,81	57,513
969,98	80,220
970,14	60,736
970,31	86,164
970,48	56,667
970,65	91,716
970,81	58,219
970,98	115,328
971,15	93,878
971,32	77,344
971,48	93,878
971,65	52,308
971,82	77,451
971,99	102,299
972,15	87,324
972,32	102,703
972,49	96,503
972,66	159,091
972,82	98,837
972,99	113,821
973,16	122,989
973,33	82,143
973,49	150,526
973,66	127,957
973,83	101,942
974,00	89,535
974,16	140,196
974,33	138,596
974,50	87,368
974,67	136,842
974,83	140,476
975,00	80,000
975,17	107,692
975,33	116,854
975,50	195,522
975,67	248,980
975,84	176,119
976,00	114,607
976,17	134,426
976,34	85,000
976,50	178,652
976,67	114,563
976,84	3333,333
977,00	310,204
977,17	208,889
977,34	179,121
977,50	141,791
977,67	175,000
977,84	191,935
978,01	197,872
978,17	511,111
978,34	305,556
978,51	226,471
978,67	148,684
978,84	132,031
979,01	383,784
979,17	238,462
979,34	100,000
979,51	222,449
979,67	202,469
979,84	240,816
980,01	268,889
980,17	263,380
980,34	474,074
980,51	176,812
980,67	171,765
980,84	440,000
981,01	470,000
981,17	496,000
981,34	1000,000
981,50	186,765
981,67	250,847
981,84	4700,000
982,00	493,333
982,17	235,714
982,34	177,778
982,50	666,667
982,67	156,250
982,84	3220,000
983,00	1216,667
983,17	210,448
983,33	156,897
983,50	2080,000
983,67	-210,345
983,83	318,182
984,00	-1428,571
984,17	622,222
984,33	-5750,000
984,50	360,000
984,66	263,043
984,83	127,273
985,00	-458,333
985,16	434,483
985,33	682,353
985,49	483,333
985,66	370,588
985,83	491,304
985,99	320,513
986,16	-2350,000
986,32	642,857
986,49	8000,000
986,66	387,879
986,82	825,000
986,99	290,566
987,15	-552,632
987,32	-296,429
987,49	276,000
987,65	5100,000
987,82	404,167
987,98	273,469
988,15	456,667
988,31	980,000
988,48	-2066,667
988,65	314,286
988,81	363,889
988,98	365,854
989,14	342,857
989,31	690,476
989,47	405,882
989,64	-976,923
989,80	600,000
989,97	400,000
990,14	-297,826
990,30	-504,545
990,47	389,796
990,63	294,444
990,80	210,000
990,96	-635,000
991,13	375,000
991,29	527,586
991,46	0,000
991,62	-600,000
991,79	933,333
991,95	8900,000
992,12	-930,000
992,29	-618,750
992,45	174,118
992,62	306,977
992,78	350,000
992,95	-493,333
993,11	492,857
993,28	1020,000
993,44	-1440,000
993,61	-606,250
993,77	-3350,000
993,94	-4233,333
994,10	-89,333
994,27	815,789
994,43	260,465
994,60	0,000
994,76	2950,000
994,93	610,000
995,09	-723,529
995,26	1366,667
995,42	200,000
995,59	690,476
995,75	969,231
995,92	1914,286
996,08	358,333
996,25	-1087,500
996,41	-6100,000
996,58	613,333
996,74	381,818
996,91	537,931
997,07	0,000
997,23	14000,000
997,40	-17100,000
997,56	-807,692
997,73	-1162,500
997,89	355,263
998,06	915,385
998,22	-755,556
998,39	580,000
998,55	1866,667
998,72	-1437,500
998,88	-396,667
999,05	-166,667
999,21	361,905
999,37	-793,333
999,54	-883,333
999,70	-483,333
999,87	893,750
1000,03	379,487
1000,20	304,167
1000,36	0,000
1000,52	475,000
1000,69	-704,762
1000,85	-1170,000
1001,02	-437,500
1001,18	2725,000
1001,35	1161,538
1001,51	882,353
1001,67	-1061,538
1001,84	-2940,000
1002,00	356,757
1002,17	1100,000
1002,33	-2725,000
1002,50	528,571
1002,66	-746,154
1002,82	372,500
1002,99	1028,571
1003,15	-1357,143
1003,32	-1145,455
1003,48	392,857
1003,64	1026,667
1003,81	422,222
1003,97	-6400,000
1004,14	1163,636
1004,30	340,000
1004,46	-873,333
1004,63	1157,143
1004,79	308,333
1004,95	940,000
1005,12	5450,000
1005,28	572,414
1005,45	443,243
1005,61	375,862
1005,77	-208,333
1005,94	-533,333
1006,10	-5100,000
1006,26	1084,615
1006,43	-411,538
1006,59	-990,909
1006,76	1071,429
1006,92	1666,667
1007,08	10800,000
1007,25	-296,296
1007,41	496,552
1007,57	4400,000
1007,74	930,000
1007,90	-496,552
1008,06	269,565
1008,23	976,471
1008,39	-425,000
1008,55	-311,538
1008,72	-1671,429
1008,88	0,000
1009,04	395,122
1009,21	-389,474
1009,37	-591,667
1009,53	254,762
1009,70	3100,000
1009,86	-485,714
1010,02	3333,333
1010,19	909,091
1010,35	216,176
1010,51	-6300,000
1010,68	-1862,500
1010,84	-265,909
1011,00	725,000
1011,17	-459,091
1011,33	0,000
1011,49	-1113,333
1011,66	857,143
1011,82	448,387
1011,98	1107,143
1012,14	-690,909
1012,31	374,359
1012,47	0,000
1012,63	2200,000
1012,80	942,857
1012,96	-681,250
1013,12	-1983,333
1013,29	438,889
1013,45	360,976
1013,61	3600,000
1013,77	-155,357
1013,94	2480,000
1014,10	172,881
1014,26	-2775,000
1014,43	-320,000
1014,59	650,000
1014,75	-638,889
1014,91	-626,667
1015,08	483,333
1015,24	8600,000
1015,40	594,118
1015,56	-14900,000
1015,73	264,286
1015,89	1118,182
1016,05	3525,000
1016,21	-625,000
1016,38	731,579
1016,54	1430,769
1016,70	-4233,333
1016,86	418,750
1017,03	968,750
1017,19	-815,385
1017,35	-864,706
1017,51	-2660,000
1017,68	-1180,000
1017,84	-1742,857
1018,00	245,238
1018,16	461,538
1018,33	-1114,286
1018,49	-1150,000
1018,65	-316,216
1018,81	330,769
1018,97	-1885,714
1019,14	-3433,333
1019,30	-353,846
1019,46	0,000
1019,62	-488,235
1019,79	-3966,667
1019,95	1216,667
1020,11	8200,000
1020,27	-440,741
1020,43	-415,385
1020,60	2733,333
1020,76	572,222
1020,92	1140,000
1021,08	745,000
1021,24	1140,000
1021,41	1522,222
1021,57	2187,500
1021,73	938,462
1021,89	2620,000
1022,05	-485,714
1022,21	655,000
1022,38	-500,000
1022,54	-1616,667
1022,70	384,444
1022,86	-1575,000
1023,02	504,167
1023,19	2280,000
1023,35	5366,667
1023,51	612,500
1023,67	540,741
1023,83	-656,250
1023,99	334,211
1024,16	-400,000
1024,32	-1177,778
1024,48	-860,000
1024,64	333,333
1024,80	526,087
1024,96	343,590
1025,12	633,333
1025,29	600,000
1025,45	276,316
1025,61	900,000
1025,77	-2940,000
1025,93	-7400,000
1026,09	-1271,429
1026,26	1058,333
1026,42	568,750
1026,58	433,333
1026,74	1866,667
1026,90	380,000
1027,06	382,143
1027,22	1057,143
1027,38	288,462
1027,55	4966,667
1027,71	1233,333
1027,87	-400,000
1028,03	980,000
1028,19	421,875
1028,35	710,000
1028,51	1440,000
1028,67	666,667
1028,83	-2725,000
1029,00	-311,905
1029,16	1290,000
1029,32	-225,000
1029,48	224,444
1029,64	288,889
1029,80	5350,000
1029,96	906,667
1030,12	569,565
1030,28	-2733,333
1030,44	-707,692
1030,61	-325,000
1030,77	-354,286
1030,93	-820,000
1031,09	1533,333
1031,25	-11900,000
1031,41	-320,000
1031,57	334,615
1031,73	725,000
1031,89	-981,818
1032,05	-359,259
1032,21	1345,455
1032,37	-172,222
1032,53	-1100,000
1032,69	-145,833
1032,86	418,519
1033,02	-230,000
1033,18	-706,250
1033,34	557,895
1033,50	-6200,000
1033,66	-265,854
1033,82	378,261
1033,98	-407,407
1034,14	188,462
1034,30	377,419
1034,46	-4433,333
1034,62	770,000
1034,78	-680,952
1034,94	281,579
1035,10	-661,538
1035,26	-132,558
1035,42	-351,724
1035,58	-500,000
1035,74	1125,000
1035,90	-684,615
1036,06	-1883,333
1036,22	2266,667
1036,38	-864,706
1036,54	-545,833
1036,70	-109,091
1036,86	9200,000
1037,02	605,556
1037,18	731,579
1037,34	157,143
1037,50	-117,073
1037,66	-347,059
1037,82	2860,000
1037,98	-507,407
1038,14	-300,000
1038,30	-2400,000
1038,46	-507,143
1038,62	521,739
1038,78	-2133,333
1038,94	-405,263
1039,10	609,091
1039,26	477,778
1039,42	-591,667
1039,58	1557,143
1039,74	-373,684
1039,90	500,000
1040,06	-384,615
>>>>>End Processed Spectral Data<<<<<
