SpectraSuite Data File
++++++++++++++++++++++++++++++++++++
Date: Wed Feb 01 16:08:41 EET 2017
User: optolab
Dark Spectrum Present: Yes
Reference Spectrum Present: Yes
Number of Sampled Component Spectra: 1
Spectrometers: USB4C02475
Integration Time (usec): 100000 (USB4C02475)
Spectra Averaged: 1 (USB4C02475)
Boxcar Smoothing: 0 (USB4C02475)
Correct for Electrical Dark: No (USB4C02475)
Strobe/Lamp Enabled: No (USB4C02475)
Correct for Detector Non-linearity: No (USB4C02475)
Correct for Stray Light: No (USB4C02475)
Number of Pixels in Processed Spectrum: 3648
>>>>>Begin Processed Spectral Data<<<<<
344,91	4250,000
345,13	4250,000
345,35	4250,000
345,57	0,000
345,79	468,421
346,00	-1888,889
346,22	-1771,429
346,44	282,353
346,66	-637,500
346,87	-9100,000
347,09	503,030
347,31	-563,636
347,53	-289,744
347,74	243,077
347,96	384,848
348,18	773,684
348,40	477,419
348,61	794,118
348,83	271,429
349,05	247,059
349,27	-5500,000
349,48	546,154
349,70	-289,655
349,92	483,871
350,14	269,811
350,35	344,000
350,57	2900,000
350,79	652,000
351,01	-752,381
351,22	264,815
351,44	884,615
351,66	-184,000
351,87	-557,143
352,09	271,154
352,31	229,508
352,53	168,750
352,74	366,667
352,96	214,286
353,18	757,895
353,40	336,000
353,61	308,889
353,83	361,765
354,05	890,909
354,26	1833,333
354,48	210,000
354,70	457,576
354,92	-372,414
355,13	218,182
355,35	379,545
355,57	729,167
355,78	183,133
356,00	-3475,000
356,22	338,462
356,44	6300,000
356,65	370,455
356,87	503,846
357,09	612,500
357,30	337,778
357,52	262,069
357,74	980,000
357,95	328,205
358,17	236,066
358,39	225,806
358,60	370,270
358,82	600,000
359,04	455,556
359,26	551,429
359,47	7000,000
359,69	380,000
359,91	442,424
360,12	642,857
360,34	579,167
360,56	-122,222
360,77	2325,000
360,99	480,952
361,21	358,000
361,42	6700,000
361,64	236,735
361,86	276,923
362,07	-545,161
362,29	217,333
362,51	-758,824
362,72	628,000
362,94	508,824
363,16	281,395
363,37	-721,429
363,59	403,846
363,81	372,727
364,02	505,556
364,24	516,667
364,46	3433,333
364,67	981,818
364,89	1871,429
365,11	224,286
365,32	451,724
365,54	408,333
365,76	251,020
365,97	502,941
366,19	229,310
366,41	609,091
366,62	429,630
366,84	348,837
367,05	361,224
367,27	1750,000
367,49	-523,077
367,70	688,235
367,92	281,967
368,14	331,250
368,35	-7400,000
368,57	496,000
368,79	479,310
369,00	182,609
369,22	-1425,000
369,43	221,176
369,65	303,226
369,87	378,378
370,08	186,747
370,30	241,071
370,51	224,590
370,73	255,556
370,95	259,677
371,16	266,667
371,38	490,000
371,60	1237,500
371,81	195,313
372,03	833,333
372,24	406,667
372,46	235,849
372,68	202,857
372,89	409,091
373,11	511,538
373,32	350,000
373,54	-961,538
373,76	838,462
373,97	813,333
374,19	650,000
374,40	273,437
374,62	-3233,333
374,84	4200,000
375,05	385,714
375,27	332,000
375,48	-13200,000
375,70	202,667
375,92	278,571
376,13	359,375
376,35	216,438
376,56	993,750
376,78	243,056
376,99	378,571
377,21	287,500
377,43	213,636
377,64	244,928
377,86	427,586
378,07	330,769
378,29	-1462,500
378,51	454,839
378,72	220,833
378,94	-1188,889
379,15	336,364
379,37	682,353
379,58	244,615
379,80	526,667
380,01	725,000
380,23	282,353
380,45	2440,000
380,66	3666,667
380,88	270,455
381,09	211,429
381,31	160,000
381,52	227,451
381,74	1366,667
381,95	577,273
382,17	400,000
382,39	647,619
382,60	122,449
382,82	348,718
383,03	323,077
383,25	341,935
383,46	315,909
383,68	551,852
383,89	685,000
384,11	445,161
384,32	-3900,000
384,54	594,444
384,76	-4000,000
384,97	351,515
385,19	520,690
385,40	300,000
385,62	252,632
385,83	290,476
386,05	280,392
386,26	332,000
386,48	221,839
386,69	250,000
386,91	365,000
387,12	223,729
387,34	201,724
387,55	216,129
387,77	512,500
387,98	576,923
388,20	179,348
388,41	435,294
388,63	9800,000
388,84	180,328
389,06	361,905
389,27	852,632
389,49	369,444
389,70	324,490
389,92	353,333
390,13	297,959
390,35	270,588
390,56	287,037
390,78	500,000
390,99	670,000
391,21	815,789
391,42	235,556
391,64	353,659
391,85	217,241
392,07	250,000
392,28	132,000
392,50	378,788
392,71	-1250,000
392,93	236,538
393,14	419,444
393,36	177,551
393,57	154,135
393,79	1000,000
394,00	248,936
394,22	164,384
394,43	173,494
394,65	258,140
394,86	1250,000
395,08	738,095
395,29	188,679
395,50	500,000
395,72	722,222
395,93	752,381
396,15	232,394
396,36	177,941
396,58	225,000
396,79	307,500
397,01	242,000
397,22	325,000
397,44	195,455
397,65	147,368
397,87	285,714
398,08	232,653
398,29	400,000
398,51	260,714
398,72	258,537
398,94	187,692
399,15	317,143
399,37	256,140
399,58	172,527
399,80	568,182
400,01	238,889
400,22	285,714
400,44	240,741
400,65	446,429
400,87	208,824
401,08	217,143
401,30	191,304
401,51	294,737
401,72	315,385
401,94	231,646
402,15	470,000
402,37	151,261
402,58	694,444
402,80	194,286
403,01	219,718
403,22	1090,909
403,44	172,464
403,65	212,500
403,87	170,000
404,08	400,000
404,30	156,471
404,51	-2800,000
404,72	191,429
404,94	118,627
405,15	274,000
405,37	198,734
405,58	160,000
405,79	190,244
406,01	346,341
406,22	258,621
406,44	240,426
406,65	261,404
406,86	183,333
407,08	140,506
407,29	146,602
407,51	165,854
407,72	131,481
407,93	115,217
408,15	105,128
408,36	209,302
408,58	138,144
408,79	70,000
409,00	167,708
409,22	185,714
409,43	141,772
409,64	84,472
409,86	91,195
410,07	99,231
410,29	68,657
410,50	114,184
410,71	100,893
410,93	57,962
411,14	147,287
411,35	79,167
411,57	93,421
411,78	92,188
412,00	78,981
412,21	77,419
412,42	75,661
412,64	42,918
412,85	51,031
413,06	56,098
413,28	54,054
413,49	45,972
413,70	66,667
413,92	51,383
414,13	29,876
414,34	51,724
414,56	45,105
414,77	63,291
414,98	38,591
415,20	46,713
415,41	44,476
415,63	41,045
415,84	46,944
416,05	31,044
416,27	37,726
416,48	38,483
416,69	36,947
416,91	23,514
417,12	32,620
417,33	31,368
417,55	31,992
417,76	34,702
417,97	23,444
418,19	26,441
418,40	22,340
418,61	23,519
418,83	18,727
419,04	19,716
419,25	19,626
419,46	22,105
419,68	24,762
419,89	14,158
420,10	16,463
420,32	9,340
420,53	13,815
420,74	16,137
420,96	13,625
421,17	13,741
421,38	10,446
421,60	11,479
421,81	7,745
422,02	12,539
422,23	11,362
422,45	10,120
422,66	11,893
422,87	11,247
423,09	11,755
423,30	12,036
423,51	11,732
423,73	9,827
423,94	10,434
424,15	8,776
424,36	11,111
424,58	9,875
424,79	8,682
425,00	6,625
425,22	5,542
425,43	7,739
425,64	6,667
425,85	6,148
426,07	5,443
426,28	3,706
426,49	5,821
426,71	6,688
426,92	3,186
427,13	5,670
427,34	3,849
427,56	5,464
427,77	4,565
427,98	6,602
428,19	4,389
428,41	5,113
428,62	4,472
428,83	5,864
429,04	6,138
429,26	4,682
429,47	5,038
429,68	2,258
429,89	3,662
430,11	4,385
430,32	4,231
430,53	3,938
430,74	3,048
430,96	3,811
431,17	3,128
431,38	3,254
431,59	2,854
431,81	4,285
432,02	2,970
432,23	3,583
432,44	3,677
432,66	3,593
432,87	3,681
433,08	2,970
433,29	3,234
433,51	2,687
433,72	3,235
433,93	1,624
434,14	3,488
434,35	1,763
434,57	2,263
434,78	1,919
434,99	2,170
435,20	1,893
435,42	1,857
435,63	2,124
435,84	2,394
436,05	2,636
436,26	2,118
436,48	1,837
436,69	1,335
436,90	1,680
437,11	1,606
437,32	2,038
437,54	2,092
437,75	1,747
437,96	2,122
438,17	1,394
438,38	2,289
438,60	1,267
438,81	1,347
439,02	1,523
439,23	1,350
439,44	1,433
439,66	1,618
439,87	1,470
440,08	1,129
440,29	1,359
440,50	1,128
440,72	1,155
440,93	1,222
441,14	1,423
441,35	1,843
441,56	1,108
441,77	1,200
441,99	1,035
442,20	0,981
442,41	0,903
442,62	1,064
442,83	1,399
443,04	0,948
443,26	1,153
443,47	1,323
443,68	1,212
443,89	1,214
444,10	0,952
444,31	1,302
444,53	1,337
444,74	1,093
444,95	1,332
445,16	1,212
445,37	1,396
445,58	1,485
445,80	1,267
446,01	1,607
446,22	1,585
446,43	1,316
446,64	1,409
446,85	1,438
447,06	1,374
447,28	1,471
447,49	1,451
447,70	1,904
447,91	2,009
448,12	1,581
448,33	2,306
448,54	2,635
448,76	3,991
448,97	5,737
449,18	9,271
449,39	16,795
449,60	27,030
449,81	40,758
450,02	56,221
450,23	69,708
450,45	79,878
450,66	84,744
450,87	89,184
451,08	90,286
451,29	91,619
451,50	92,510
451,71	92,754
451,92	92,506
452,13	93,030
452,35	94,461
452,56	94,698
452,77	94,085
452,98	95,724
453,19	97,578
453,40	96,495
453,61	97,901
453,82	96,821
454,03	97,719
454,25	97,020
454,46	96,879
454,67	96,152
454,88	96,030
455,09	96,859
455,30	96,409
455,51	97,219
455,72	96,537
455,93	96,905
456,14	95,450
456,35	97,468
456,56	95,714
456,78	96,762
456,99	98,002
457,20	98,163
457,41	96,187
457,62	97,800
457,83	95,546
458,04	96,869
458,25	97,631
458,46	96,246
458,67	96,543
458,88	96,366
459,09	96,237
459,30	95,004
459,51	96,825
459,73	97,290
459,94	96,638
460,15	96,089
460,36	96,625
460,57	96,064
460,78	96,389
460,99	95,417
461,20	95,443
461,41	95,008
461,62	95,149
461,83	94,619
462,04	96,070
462,25	95,502
462,46	94,636
462,67	96,816
462,88	96,123
463,09	96,127
463,30	97,652
463,51	98,043
463,72	96,173
463,93	96,132
464,15	96,484
464,36	96,393
464,57	96,219
464,78	94,493
464,99	93,595
465,20	93,571
465,41	91,552
465,62	91,045
465,83	89,414
466,04	90,050
466,25	89,223
466,46	90,316
466,67	89,670
466,88	90,558
467,09	91,283
467,30	91,872
467,51	92,628
467,72	93,209
467,93	94,119
468,14	94,875
468,35	94,157
468,56	96,423
468,77	96,594
468,98	96,377
469,19	96,507
469,40	95,563
469,61	95,714
469,82	93,479
470,03	93,696
470,24	92,791
470,45	91,953
470,66	91,587
470,87	92,412
471,08	91,601
471,29	92,588
471,50	93,122
471,71	92,580
471,92	93,085
472,13	95,275
472,34	94,956
472,55	96,513
472,76	97,040
472,97	97,001
473,18	96,526
473,39	96,132
473,60	96,511
473,81	95,969
474,01	95,347
474,22	95,674
474,43	94,723
474,64	94,926
474,85	94,089
475,06	94,586
475,27	96,323
475,48	95,192
475,69	95,648
475,90	96,098
476,11	97,026
476,32	96,371
476,53	96,918
476,74	96,417
476,95	96,069
477,16	95,007
477,37	93,228
477,58	92,801
477,79	91,930
478,00	91,659
478,21	91,366
478,41	91,956
478,62	92,341
478,83	89,570
479,04	86,692
479,25	77,922
479,46	66,552
479,67	52,625
479,88	38,444
480,09	26,736
480,30	17,890
480,51	12,211
480,72	8,028
480,93	5,413
481,14	3,570
481,34	2,626
481,55	2,132
481,76	1,505
481,97	1,626
482,18	1,204
482,39	1,138
482,60	1,042
482,81	1,070
483,02	0,828
483,23	1,108
483,44	0,838
483,65	1,046
483,85	0,770
484,06	1,019
484,27	0,794
484,48	0,685
484,69	0,919
484,90	0,950
485,11	0,840
485,32	0,776
485,53	0,943
485,73	0,968
485,94	0,718
486,15	0,798
486,36	0,690
486,57	0,920
486,78	0,854
486,99	0,841
487,20	0,658
487,41	0,725
487,61	0,719
487,82	0,730
488,03	0,843
488,24	0,845
488,45	0,534
488,66	0,966
488,87	0,576
489,08	0,769
489,28	0,708
489,49	0,950
489,70	0,515
489,91	0,695
490,12	0,814
490,33	0,663
490,54	0,605
490,74	0,785
490,95	0,711
491,16	0,612
491,37	0,826
491,58	0,669
491,79	0,525
492,00	0,662
492,20	0,599
492,41	0,785
492,62	0,585
492,83	0,741
493,04	0,609
493,25	0,659
493,45	0,615
493,66	0,758
493,87	0,668
494,08	0,477
494,29	0,561
494,50	0,571
494,70	0,680
494,91	0,629
495,12	0,711
495,33	0,617
495,54	0,712
495,75	0,642
495,95	0,588
496,16	0,770
496,37	0,493
496,58	0,793
496,79	0,727
496,99	0,383
497,20	0,634
497,41	0,695
497,62	0,595
497,83	0,762
498,04	0,780
498,24	0,507
498,45	0,534
498,66	0,775
498,87	0,710
499,08	0,601
499,28	0,695
499,49	0,605
499,70	0,654
499,91	0,559
500,12	0,522
500,32	0,485
500,53	0,572
500,74	0,675
500,95	0,600
501,15	0,569
501,36	0,634
501,57	0,436
501,78	0,597
501,99	0,718
502,19	0,415
502,40	0,552
502,61	0,550
502,82	0,662
503,02	0,578
503,23	0,753
503,44	0,543
503,65	0,714
503,86	0,569
504,06	0,599
504,27	0,658
504,48	0,615
504,69	0,781
504,89	0,682
505,10	0,728
505,31	0,696
505,52	0,755
505,72	0,533
505,93	0,735
506,14	0,670
506,35	0,643
506,55	0,555
506,76	0,515
506,97	0,550
507,18	0,785
507,38	0,666
507,59	0,666
507,80	0,637
508,01	0,699
508,21	0,599
508,42	0,701
508,63	0,727
508,84	0,591
509,04	0,595
509,25	0,619
509,46	0,697
509,67	0,727
509,87	0,621
510,08	0,807
510,29	0,811
510,49	0,685
510,70	0,779
510,91	0,748
511,12	0,640
511,32	0,534
511,53	0,955
511,74	0,705
511,94	0,790
512,15	0,497
512,36	0,930
512,57	0,755
512,77	0,620
512,98	0,639
513,19	0,662
513,39	0,748
513,60	0,613
513,81	0,756
514,01	0,898
514,22	0,843
514,43	0,920
514,64	0,823
514,84	0,761
515,05	0,734
515,26	0,632
515,46	0,840
515,67	0,730
515,88	0,685
516,08	0,742
516,29	0,820
516,50	0,911
516,70	0,658
516,91	0,879
517,12	0,814
517,32	0,884
517,53	0,812
517,74	0,854
517,95	0,633
518,15	0,879
518,36	0,858
518,57	0,678
518,77	0,736
518,98	0,778
519,19	0,673
519,39	0,958
519,60	0,873
519,80	1,012
520,01	0,865
520,22	1,086
520,42	1,085
520,63	1,129
520,84	0,921
521,04	1,197
521,25	1,457
521,46	1,242
521,66	0,991
521,87	1,013
522,08	1,216
522,28	1,282
522,49	1,189
522,70	1,299
522,90	1,535
523,11	1,567
523,31	2,122
523,52	2,951
523,73	5,451
523,93	9,710
524,14	17,100
524,35	26,453
524,55	37,447
524,76	47,470
524,97	55,816
525,17	61,343
525,38	65,154
525,58	71,139
525,79	78,075
526,00	83,563
526,20	87,411
526,41	90,705
526,61	92,748
526,82	93,248
527,03	92,129
527,23	91,476
527,44	91,809
527,64	92,649
527,85	93,874
528,06	93,222
528,26	94,483
528,47	95,042
528,68	96,787
528,88	96,290
529,09	96,939
529,29	97,308
529,50	98,016
529,70	99,003
529,91	97,482
530,12	98,714
530,32	97,698
530,53	98,708
530,73	98,081
530,94	98,926
531,15	98,691
531,35	98,826
531,56	99,044
531,76	98,062
531,97	98,636
532,17	98,611
532,38	96,853
532,59	98,584
532,79	98,158
533,00	97,483
533,20	97,775
533,41	99,002
533,61	98,209
533,82	99,651
534,03	98,576
534,23	100,135
534,44	100,735
534,64	100,204
534,85	99,610
535,05	100,988
535,26	100,857
535,46	100,585
535,67	100,675
535,88	100,989
536,08	101,264
536,29	101,096
536,49	100,335
536,70	100,481
536,90	100,285
537,11	101,262
537,31	100,028
537,52	101,316
537,72	101,138
537,93	99,834
538,13	100,232
538,34	100,692
538,55	101,556
538,75	100,056
538,96	99,882
539,16	99,742
539,37	99,781
539,57	100,816
539,78	99,891
539,98	99,737
540,19	100,281
540,39	99,960
540,60	98,924
540,80	98,565
541,01	99,197
541,21	99,715
541,42	99,053
541,62	97,950
541,83	98,343
542,03	99,084
542,24	98,615
542,44	98,845
542,65	98,253
542,85	99,114
543,06	98,440
543,26	98,813
543,47	100,789
543,67	99,752
543,88	100,831
544,08	100,762
544,29	100,792
544,49	100,168
544,70	99,702
544,90	100,425
545,11	99,960
545,31	99,020
545,52	98,586
545,72	98,358
545,93	97,814
546,13	97,595
546,34	98,652
546,54	97,481
546,75	98,266
546,95	97,547
547,15	98,320
547,36	98,623
547,56	96,992
547,77	98,106
547,97	99,377
548,18	98,435
548,38	98,887
548,59	98,846
548,79	98,674
549,00	99,614
549,20	100,448
549,41	100,186
549,61	100,597
549,81	100,596
550,02	98,975
550,22	99,176
550,43	99,736
550,63	98,786
550,84	97,969
551,04	98,327
551,25	97,766
551,45	97,003
551,65	96,722
551,86	97,692
552,06	96,847
552,27	97,349
552,47	96,537
552,68	97,594
552,88	96,358
553,08	96,634
553,29	96,630
553,49	96,159
553,70	96,611
553,90	96,850
554,11	97,661
554,31	97,222
554,51	96,993
554,72	97,288
554,92	96,370
555,13	96,287
555,33	96,121
555,53	95,803
555,74	94,279
555,94	93,347
556,15	93,350
556,35	92,241
556,56	91,675
556,76	91,327
556,96	92,043
557,17	91,689
557,37	93,335
557,58	94,276
557,78	93,552
557,98	93,167
558,19	90,683
558,39	86,601
558,59	80,624
558,80	73,025
559,00	64,171
559,21	54,504
559,41	45,222
559,61	35,800
559,82	27,126
560,02	19,546
560,23	13,783
560,43	9,682
560,63	6,671
560,84	4,530
561,04	3,179
561,24	2,229
561,45	1,605
561,65	1,315
561,85	1,475
562,06	0,945
562,26	0,861
562,47	0,889
562,67	0,715
562,87	0,872
563,08	0,689
563,28	0,695
563,48	0,763
563,69	0,818
563,89	0,854
564,09	0,885
564,30	0,673
564,50	0,814
564,70	0,665
564,91	0,761
565,11	0,587
565,31	0,684
565,52	0,699
565,72	0,695
565,92	0,829
566,13	0,564
566,33	0,648
566,53	0,529
566,74	0,731
566,94	0,588
567,14	0,623
567,35	0,517
567,55	0,550
567,75	0,720
567,96	0,619
568,16	0,502
568,36	0,566
568,57	0,564
568,77	0,491
568,97	0,717
569,18	0,695
569,38	0,655
569,58	0,503
569,79	0,686
569,99	0,655
570,19	0,571
570,39	0,748
570,60	0,488
570,80	0,574
571,00	0,544
571,21	0,572
571,41	0,496
571,61	0,650
571,82	0,640
572,02	0,552
572,22	0,666
572,42	0,490
572,63	0,766
572,83	0,547
573,03	0,702
573,24	0,597
573,44	0,487
573,64	0,741
573,84	0,740
574,05	0,586
574,25	0,649
574,45	0,551
574,66	0,619
574,86	0,732
575,06	0,594
575,26	0,330
575,47	0,599
575,67	0,676
575,87	0,432
576,07	0,558
576,28	0,698
576,48	0,539
576,68	0,523
576,88	0,380
577,09	0,446
577,29	0,423
577,49	0,588
577,69	0,619
577,90	0,646
578,10	0,443
578,30	0,479
578,50	0,485
578,71	0,692
578,91	0,424
579,11	0,526
579,31	0,553
579,52	0,521
579,72	0,632
579,92	0,467
580,12	0,441
580,33	0,603
580,53	0,558
580,73	0,584
580,93	0,473
581,13	0,489
581,34	0,529
581,54	0,564
581,74	0,360
581,94	0,793
582,15	0,433
582,35	0,304
582,55	0,550
582,75	0,568
582,95	0,570
583,16	0,420
583,36	0,595
583,56	0,466
583,76	0,519
583,96	0,652
584,17	0,511
584,37	0,645
584,57	0,499
584,77	0,451
584,97	0,578
585,18	0,528
585,38	0,591
585,58	0,484
585,78	0,519
585,98	0,527
586,19	0,611
586,39	0,534
586,59	0,498
586,79	0,393
586,99	0,611
587,20	0,524
587,40	0,495
587,60	0,467
587,80	0,609
588,00	0,440
588,20	0,405
588,41	0,581
588,61	0,463
588,81	0,557
589,01	0,568
589,21	0,437
589,41	0,662
589,62	0,521
589,82	0,387
590,02	0,436
590,22	0,608
590,42	0,392
590,62	0,399
590,83	0,363
591,03	0,559
591,23	0,218
591,43	0,725
591,63	0,551
591,83	0,436
592,03	0,638
592,24	0,563
592,44	0,534
592,64	0,460
592,84	0,506
593,04	0,507
593,24	0,450
593,44	0,626
593,65	0,464
593,85	0,517
594,05	0,298
594,25	0,749
594,45	0,571
594,65	0,515
594,85	0,561
595,06	0,523
595,26	0,586
595,46	0,345
595,66	0,471
595,86	0,647
596,06	0,584
596,26	0,523
596,46	0,505
596,66	0,504
596,87	0,570
597,07	0,501
597,27	0,477
597,47	0,592
597,67	0,874
597,87	0,626
598,07	0,335
598,27	0,555
598,47	0,505
598,67	0,525
598,88	0,555
599,08	0,494
599,28	0,589
599,48	0,486
599,68	0,605
599,88	0,486
600,08	0,638
600,28	0,718
600,48	0,454
600,68	0,697
600,88	0,612
601,09	0,539
601,29	0,635
601,49	0,656
601,69	0,725
601,89	0,633
602,09	0,548
602,29	0,707
602,49	0,638
602,69	0,537
602,89	0,675
603,09	0,622
603,29	0,605
603,49	0,664
603,69	0,708
603,90	0,823
604,10	0,644
604,30	0,593
604,50	0,618
604,70	0,632
604,90	0,530
605,10	0,712
605,30	0,516
605,50	0,589
605,70	0,588
605,90	0,576
606,10	0,612
606,30	0,580
606,50	0,588
606,70	0,550
606,90	0,671
607,10	0,691
607,30	0,517
607,50	0,713
607,70	0,715
607,90	0,663
608,10	0,596
608,30	0,704
608,50	0,851
608,70	0,723
608,90	0,717
609,11	0,945
609,31	0,890
609,51	0,713
609,71	0,981
609,91	0,672
610,11	0,922
610,31	0,781
610,51	1,042
610,71	0,819
610,91	0,787
611,11	1,219
611,31	1,269
611,51	1,269
611,71	1,567
611,91	1,812
612,11	2,279
612,31	3,431
612,51	4,720
612,71	7,343
612,91	10,424
613,11	15,553
613,31	21,519
613,51	27,461
613,71	34,229
613,91	41,464
614,11	47,308
614,31	51,778
614,50	57,386
614,70	61,629
614,90	66,211
615,10	69,907
615,30	73,893
615,50	77,167
615,70	79,304
615,90	82,471
616,10	83,709
616,30	85,582
616,50	86,710
616,70	86,797
616,90	88,885
617,10	88,536
617,30	89,599
617,50	91,485
617,70	92,567
617,90	94,643
618,10	93,896
618,30	95,483
618,50	95,793
618,70	97,556
618,90	98,173
619,10	98,115
619,30	98,253
619,49	98,603
619,69	97,612
619,89	97,462
620,09	98,268
620,29	98,552
620,49	96,810
620,69	97,831
620,89	98,658
621,09	97,372
621,29	97,341
621,49	98,305
621,69	97,892
621,89	97,944
622,09	97,840
622,29	97,673
622,48	98,976
622,68	97,409
622,88	97,386
623,08	96,472
623,28	96,567
623,48	96,176
623,68	96,352
623,88	95,720
624,08	95,645
624,28	95,395
624,48	94,957
624,67	94,784
624,87	94,918
625,07	94,425
625,27	95,033
625,47	95,550
625,67	96,194
625,87	95,145
626,07	95,973
626,27	95,717
626,47	96,520
626,66	95,685
626,86	96,724
627,06	97,223
627,26	96,737
627,46	97,810
627,66	97,900
627,86	98,320
628,06	98,527
628,25	97,235
628,45	97,908
628,65	98,725
628,85	96,908
629,05	98,265
629,25	97,364
629,45	97,092
629,65	97,801
629,84	97,230
630,04	97,649
630,24	97,558
630,44	97,176
630,64	98,955
630,84	98,879
631,04	99,338
631,23	99,422
631,43	100,008
631,63	99,513
631,83	101,196
632,03	100,241
632,23	101,105
632,42	101,001
632,62	101,920
632,82	101,053
633,02	101,151
633,22	100,872
633,42	101,438
633,62	100,992
633,81	102,241
634,01	101,076
634,21	101,267
634,41	101,104
634,61	99,843
634,80	100,065
635,00	101,140
635,20	100,996
635,40	99,145
635,60	100,553
635,80	99,733
635,99	100,485
636,19	99,833
636,39	99,944
636,59	99,451
636,79	99,866
636,98	100,540
637,18	100,646
637,38	100,475
637,58	101,560
637,78	99,200
637,97	101,126
638,17	101,567
638,37	101,144
638,57	101,038
638,77	101,504
638,96	101,408
639,16	101,303
639,36	100,628
639,56	101,848
639,76	101,713
639,95	102,485
640,15	100,372
640,35	101,353
640,55	101,386
640,75	100,288
640,94	101,406
641,14	100,320
641,34	100,408
641,54	100,266
641,73	99,142
641,93	99,162
642,13	100,052
642,33	100,249
642,53	99,915
642,72	99,673
642,92	99,492
643,12	99,053
643,32	99,960
643,51	101,331
643,71	101,102
643,91	99,158
644,11	101,515
644,30	99,210
644,50	100,411
644,70	100,056
644,90	100,007
645,09	99,936
645,29	100,846
645,49	99,038
645,69	98,710
645,88	99,993
646,08	100,007
646,28	100,705
646,48	99,685
646,67	100,029
646,87	98,924
647,07	100,119
647,26	100,022
647,46	99,393
647,66	100,407
647,86	100,713
648,05	99,924
648,25	100,613
648,45	100,244
648,65	98,984
648,84	101,148
649,04	102,249
649,24	99,722
649,43	99,649
649,63	100,606
649,83	99,953
650,03	100,887
650,22	100,016
650,42	99,582
650,62	100,712
650,81	100,040
651,01	100,369
651,21	99,122
651,40	99,968
651,60	100,210
651,80	101,134
652,00	99,200
652,19	98,219
652,39	101,048
652,59	97,348
652,78	98,795
652,98	99,352
653,18	99,785
653,37	99,799
653,57	98,828
653,77	99,298
653,96	99,622
654,16	98,656
654,36	99,890
654,55	99,386
654,75	99,587
654,95	98,358
655,14	98,653
655,34	99,317
655,54	97,135
655,73	97,458
655,93	99,408
656,13	97,097
656,32	97,647
656,52	98,576
656,72	97,485
656,91	97,296
657,11	96,811
657,31	95,236
657,50	96,992
657,70	95,967
657,90	95,343
658,09	97,061
658,29	97,280
658,49	95,815
658,68	96,006
658,88	96,210
659,07	95,991
659,27	94,965
659,47	93,711
659,66	95,108
659,86	95,336
660,06	94,826
660,25	94,628
660,45	95,720
660,64	93,820
660,84	93,385
661,04	92,794
661,23	92,929
661,43	91,845
661,63	93,737
661,82	92,614
662,02	93,193
662,21	91,802
662,41	90,894
662,61	90,298
662,80	91,150
663,00	88,678
663,19	87,729
663,39	86,082
663,59	83,269
663,78	79,538
663,98	74,209
664,17	69,848
664,37	63,715
664,57	58,111
664,76	51,934
664,96	45,423
665,15	38,752
665,35	34,634
665,55	28,097
665,74	23,250
665,94	19,738
666,13	16,560
666,33	14,049
666,53	11,524
666,72	9,590
666,92	7,933
667,11	7,116
667,31	5,496
667,50	4,871
667,70	4,453
667,90	3,981
668,09	3,365
668,29	2,867
668,48	2,467
668,68	2,339
668,87	2,545
669,07	2,293
669,26	2,601
669,46	2,018
669,66	2,143
669,85	1,836
670,05	1,645
670,24	1,708
670,44	1,353
670,63	1,236
670,83	1,330
671,02	1,466
671,22	1,638
671,42	1,297
671,61	1,187
671,81	1,141
672,00	1,242
672,20	1,113
672,39	0,971
672,59	0,867
672,78	0,901
672,98	0,823
673,17	0,986
673,37	0,995
673,56	1,001
673,76	0,927
673,95	1,020
674,15	0,361
674,34	0,707
674,54	0,993
674,73	0,881
674,93	1,057
675,13	0,820
675,32	1,036
675,52	1,122
675,71	0,942
675,91	0,773
676,10	0,670
676,30	0,708
676,49	0,808
676,69	1,115
676,88	1,018
677,08	0,812
677,27	0,735
677,47	0,707
677,66	0,942
677,86	0,743
678,05	0,922
678,24	0,610
678,44	1,209
678,63	0,725
678,83	0,845
679,02	0,802
679,22	0,405
679,41	0,932
679,61	0,603
679,80	0,659
680,00	0,529
680,19	0,760
680,39	0,819
680,58	0,490
680,78	0,768
680,97	0,682
681,17	0,808
681,36	0,742
681,56	0,512
681,75	0,789
681,94	0,719
682,14	0,712
682,33	0,602
682,53	0,820
682,72	0,715
682,92	0,772
683,11	0,838
683,31	0,557
683,50	0,630
683,69	0,617
683,89	0,353
684,08	0,395
684,28	0,517
684,47	0,712
684,67	0,493
684,86	0,246
685,06	0,445
685,25	0,569
685,44	0,485
685,64	0,549
685,83	0,579
686,03	0,272
686,22	0,465
686,42	0,592
686,61	0,311
686,80	0,479
687,00	0,593
687,19	0,741
687,39	0,300
687,58	0,501
687,77	0,437
687,97	0,568
688,16	0,301
688,36	0,326
688,55	0,402
688,74	0,557
688,94	0,343
689,13	0,515
689,33	0,533
689,52	0,354
689,71	0,527
689,91	0,398
690,10	0,399
690,30	0,364
690,49	0,526
690,68	0,453
690,88	0,491
691,07	0,346
691,27	0,270
691,46	0,296
691,65	0,560
691,85	0,475
692,04	0,319
692,23	0,348
692,43	0,412
692,62	0,594
692,82	0,526
693,01	0,401
693,20	0,498
693,40	0,307
693,59	0,339
693,78	0,501
693,98	0,275
694,17	0,253
694,36	0,505
694,56	0,583
694,75	0,243
694,94	0,514
695,14	0,674
695,33	0,320
695,53	0,301
695,72	0,422
695,91	0,470
696,11	0,416
696,30	0,246
696,49	0,358
696,69	0,373
696,88	0,619
697,07	0,427
697,27	0,383
697,46	0,451
697,65	0,625
697,85	0,446
698,04	0,697
698,23	0,536
698,43	0,598
698,62	0,378
698,81	0,503
699,01	1,040
699,20	0,419
699,39	0,848
699,58	0,656
699,78	0,880
699,97	0,719
700,16	1,068
700,36	1,060
700,55	1,143
700,74	0,956
700,94	0,973
701,13	1,022
701,32	0,885
701,52	1,539
701,71	0,719
701,90	1,059
702,09	1,093
702,29	1,343
702,48	1,594
702,67	1,504
702,87	1,077
703,06	1,096
703,25	1,300
703,44	1,229
703,64	1,859
703,83	1,800
704,02	1,192
704,22	1,663
704,41	0,884
704,60	2,070
704,79	1,405
704,99	2,336
705,18	1,544
705,37	1,589
705,56	2,634
705,76	2,686
705,95	1,088
706,14	1,562
706,33	3,116
706,53	2,098
706,72	1,687
706,91	2,908
707,11	2,420
707,30	2,596
707,49	3,107
707,68	1,359
707,88	1,919
708,07	1,650
708,26	3,538
708,45	2,637
708,64	3,520
708,84	4,268
709,03	2,218
709,22	2,076
709,41	2,574
709,61	3,302
709,80	3,531
709,99	3,571
710,18	4,396
710,38	4,315
710,57	3,638
710,76	3,533
710,95	2,782
711,14	5,486
711,34	3,799
711,53	4,758
711,72	3,784
711,91	3,924
712,11	4,834
712,30	5,703
712,49	5,683
712,68	3,048
712,87	6,014
713,07	8,525
713,26	3,991
713,45	5,058
713,64	2,851
713,83	4,381
714,03	7,015
714,22	3,718
714,41	5,582
714,60	5,015
714,79	3,097
714,99	3,888
715,18	4,259
715,37	6,228
715,56	4,119
715,75	5,282
715,94	5,324
716,14	5,839
716,33	5,496
716,52	4,631
716,71	5,475
716,90	5,722
717,10	3,980
717,29	5,771
717,48	7,787
717,67	3,295
717,86	4,883
718,05	2,098
718,24	7,609
718,44	7,060
718,63	4,554
718,82	6,486
719,01	9,046
719,20	5,318
719,39	7,201
719,59	6,009
719,78	5,819
719,97	9,763
720,16	6,169
720,35	9,340
720,54	7,757
720,73	6,934
720,93	10,036
721,12	4,797
721,31	8,836
721,50	6,083
721,69	6,517
721,88	9,804
722,07	7,110
722,27	9,187
722,46	7,183
722,65	5,478
722,84	6,358
723,03	6,507
723,22	10,619
723,41	7,245
723,60	9,273
723,79	7,893
723,99	10,395
724,18	10,027
724,37	10,362
724,56	13,024
724,75	7,308
724,94	15,083
725,13	16,176
725,32	8,365
725,51	11,424
725,71	6,913
725,90	8,263
726,09	10,422
726,28	12,861
726,47	7,031
726,66	10,140
726,85	9,836
727,04	8,307
727,23	9,742
727,42	12,293
727,61	4,233
727,81	10,323
728,00	12,893
728,19	6,751
728,38	6,263
728,57	9,644
728,76	14,092
728,95	16,071
729,14	8,834
729,33	17,014
729,52	14,623
729,71	13,203
729,90	9,644
730,09	9,463
730,28	18,245
730,48	8,005
730,67	18,259
730,86	6,219
731,05	10,748
731,24	13,586
731,43	11,572
731,62	16,792
731,81	12,834
732,00	12,961
732,19	10,983
732,38	10,733
732,57	11,580
732,76	15,714
732,95	10,667
733,14	10,403
733,33	10,577
733,52	14,407
733,71	13,793
733,90	18,252
734,09	7,116
734,28	19,724
734,47	14,605
734,66	18,046
734,85	16,454
735,04	17,439
735,23	16,534
735,42	13,545
735,61	17,867
735,81	13,241
736,00	18,675
736,19	16,124
736,38	20,000
736,57	19,499
736,76	12,868
736,95	16,970
737,14	17,629
737,33	17,817
737,52	19,155
737,71	9,936
737,90	17,852
738,09	15,491
738,28	19,617
738,47	16,340
738,66	12,031
738,85	8,935
739,04	20,713
739,22	17,399
739,41	19,516
739,60	11,371
739,79	10,788
739,98	11,252
740,17	25,170
740,36	23,036
740,55	26,984
740,74	15,826
740,93	31,707
741,12	22,059
741,31	15,074
741,50	11,488
741,69	11,852
741,88	16,200
742,07	15,523
742,26	16,105
742,45	9,289
742,64	24,820
742,83	15,745
743,02	18,378
743,21	28,571
743,40	22,265
743,59	21,721
743,78	20,524
743,97	17,105
744,16	18,182
744,34	24,409
744,53	19,672
744,72	25,988
744,91	14,526
745,10	22,199
745,29	22,459
745,48	18,591
745,67	23,014
745,86	5,634
746,05	24,201
746,24	22,658
746,43	29,078
746,62	13,364
746,81	23,288
747,00	17,745
747,18	31,429
747,37	23,667
747,56	16,854
747,75	32,604
747,94	31,072
748,13	34,932
748,32	29,274
748,51	27,088
748,70	25,899
748,89	14,734
749,08	29,429
749,26	17,184
749,45	27,765
749,64	17,618
749,83	19,847
750,02	17,403
750,21	19,062
750,40	23,698
750,59	30,425
750,78	27,219
750,96	23,464
751,15	22,131
751,34	33,508
751,53	36,207
751,72	22,911
751,91	26,575
752,10	18,210
752,29	29,379
752,47	21,067
752,66	31,549
752,85	16,718
753,04	36,278
753,23	4,967
753,42	32,219
753,61	31,699
753,80	34,417
753,98	17,544
754,17	36,503
754,36	27,119
754,55	15,987
754,74	28,035
754,93	30,548
755,12	28,000
755,30	26,039
755,49	35,168
755,68	46,974
755,87	23,724
756,06	41,061
756,25	34,921
756,43	26,207
756,62	29,377
756,81	19,802
757,00	39,130
757,19	33,904
757,38	35,331
757,56	30,323
757,75	36,601
757,94	30,599
758,13	26,948
758,32	47,348
758,51	40,809
758,69	22,400
758,88	36,937
759,07	30,824
759,26	35,814
759,45	27,948
759,63	56,877
759,82	23,232
760,01	25,753
760,20	35,798
760,39	42,910
760,57	54,545
760,76	34,685
760,95	41,204
761,14	49,796
761,33	35,000
761,51	44,803
761,70	46,207
761,89	52,049
762,08	46,047
762,27	38,462
762,45	38,521
762,64	29,304
762,83	32,301
763,02	39,070
763,21	31,466
763,39	25,306
763,58	35,094
763,77	43,243
763,96	48,193
764,14	52,917
764,33	38,828
764,52	50,644
764,71	49,327
764,89	41,667
765,08	53,879
765,27	49,442
765,46	42,391
765,65	36,681
765,83	39,827
766,02	51,489
766,21	37,017
766,40	43,333
766,58	26,016
766,77	58,706
766,96	53,182
767,15	56,039
767,33	46,784
767,52	51,220
767,71	58,261
767,90	24,719
768,08	58,366
768,27	45,500
768,46	46,094
768,64	62,694
768,83	56,250
769,02	53,000
769,21	57,205
769,39	52,907
769,58	57,803
769,77	57,854
769,96	59,162
770,14	45,578
770,33	45,327
770,52	58,730
770,70	36,667
770,89	70,470
771,08	74,576
771,27	80,412
771,45	67,105
771,64	75,521
771,83	51,869
772,01	57,831
772,20	75,377
772,39	58,000
772,57	35,659
772,76	51,111
772,95	73,759
773,14	68,817
773,32	84,516
773,51	70,149
773,70	75,000
773,88	81,421
774,07	37,696
774,26	82,979
774,44	66,463
774,63	62,437
774,82	51,220
775,00	50,000
775,19	45,600
775,38	61,850
775,56	64,583
775,75	68,675
775,94	70,253
776,12	42,541
776,31	74,118
776,50	61,932
776,68	56,316
776,87	57,386
777,06	71,724
777,24	72,778
777,43	58,333
777,62	81,618
777,80	68,243
777,99	61,143
778,18	62,376
778,36	52,800
778,55	66,942
778,74	56,944
778,92	59,172
779,11	89,167
779,29	66,667
779,48	69,388
779,67	51,163
779,85	82,927
780,04	69,730
780,23	74,101
780,41	80,469
780,60	33,158
780,79	58,192
780,97	63,158
781,16	81,212
781,34	108,247
781,53	83,761
781,72	91,971
781,90	76,562
782,09	51,613
782,28	67,153
782,46	62,222
782,65	70,000
782,83	111,236
783,02	83,750
783,21	112,667
783,39	115,652
783,58	80,473
783,76	89,385
783,95	93,333
784,14	106,623
784,32	77,852
784,51	93,103
784,69	61,864
784,88	86,486
785,06	65,546
785,25	83,439
785,44	82,014
785,62	75,000
785,81	161,972
785,99	97,122
786,18	83,784
786,37	94,815
786,55	56,881
786,74	69,737
786,92	75,781
787,11	73,333
787,29	73,881
787,48	80,000
787,67	127,711
787,85	113,793
788,04	91,584
788,22	83,607
788,41	61,176
788,59	118,349
788,78	60,606
788,96	75,472
789,15	126,316
789,34	99,091
789,52	107,965
789,71	90,698
789,89	117,021
790,08	85,616
790,26	78,571
790,45	71,212
790,63	86,111
790,82	90,303
791,00	65,972
791,19	122,581
791,38	111,806
791,56	84,211
791,75	111,927
791,93	72,414
792,12	88,166
792,30	92,000
792,49	68,067
792,67	82,090
792,86	92,248
793,04	100,000
793,23	81,667
793,41	139,241
793,60	142,424
793,78	69,298
793,97	133,333
794,15	98,182
794,34	75,824
794,52	122,078
794,71	120,988
794,89	101,111
795,08	120,388
795,26	74,444
795,45	164,179
795,63	119,697
795,82	84,112
796,00	95,413
796,19	106,667
796,37	95,620
796,56	124,731
796,74	89,381
796,93	98,876
797,11	118,987
797,30	110,833
797,48	91,034
797,67	112,500
797,85	88,776
798,04	122,917
798,22	77,778
798,41	98,039
798,59	89,474
798,77	130,769
798,96	125,806
799,14	104,310
799,33	106,870
799,51	91,538
799,70	94,631
799,88	143,939
800,07	75,658
800,25	75,172
800,44	82,828
800,62	115,294
800,80	82,609
800,99	138,095
801,17	97,414
801,36	82,759
801,54	122,917
801,73	89,899
801,91	67,213
802,10	107,143
802,28	118,692
802,46	120,988
802,65	86,207
802,83	139,326
803,02	115,789
803,20	114,844
803,39	79,310
803,57	116,867
803,75	71,622
803,94	104,202
804,12	64,167
804,31	90,265
804,49	92,308
804,67	82,400
804,86	85,714
805,04	92,568
805,23	82,069
805,41	106,557
805,59	85,246
805,78	112,879
805,96	89,103
806,15	91,406
806,33	96,639
806,51	96,460
806,70	156,667
806,88	80,488
807,07	76,984
807,25	76,101
807,43	78,146
807,62	82,114
807,80	122,581
807,99	80,159
808,17	115,603
808,35	100,877
808,54	108,602
808,72	108,000
808,90	88,158
809,09	81,667
809,27	102,703
809,46	125,000
809,64	86,275
809,82	74,713
810,01	106,061
810,19	111,000
810,37	94,615
810,56	152,439
810,74	72,848
810,92	99,242
811,11	141,176
811,29	92,199
811,48	107,071
811,66	91,473
811,84	123,853
812,03	87,273
812,21	65,385
812,39	120,339
812,58	104,902
812,76	88,785
812,94	128,667
813,13	54,762
813,31	82,500
813,49	128,261
813,68	79,130
813,86	114,286
814,04	127,184
814,23	129,293
814,41	85,294
814,59	80,791
814,78	98,529
814,96	119,820
815,14	116,667
815,33	92,754
815,51	89,630
815,69	86,420
815,87	100,870
816,06	113,750
816,24	103,974
816,42	61,538
816,61	105,932
816,79	146,988
816,97	47,748
817,16	62,581
817,34	113,793
817,52	87,586
817,70	110,317
817,89	68,595
818,07	104,310
818,25	72,072
818,44	87,209
818,62	113,793
818,80	129,371
818,98	84,762
819,17	80,000
819,35	75,294
819,53	90,099
819,72	64,535
819,90	86,228
820,08	51,948
820,26	99,123
820,45	103,012
820,63	78,646
820,81	81,208
820,99	101,504
821,18	28,889
821,36	76,667
821,54	61,628
821,73	68,649
821,91	60,638
822,09	82,353
822,27	64,467
822,46	90,625
822,64	62,914
822,82	60,000
823,00	74,775
823,19	71,970
823,37	102,857
823,55	92,353
823,73	57,333
823,91	32,044
824,10	84,916
824,28	70,370
824,46	44,767
824,64	57,843
824,83	39,024
825,01	54,348
825,19	74,286
825,37	55,208
825,56	66,875
825,74	72,381
825,92	74,719
826,10	86,957
826,28	63,087
826,47	44,715
826,65	68,243
826,83	51,075
827,01	37,879
827,19	96,203
827,38	82,902
827,56	65,385
827,74	61,789
827,92	70,244
828,10	70,109
828,29	73,810
828,47	60,965
828,65	61,081
828,83	66,667
829,01	68,667
829,20	68,354
829,38	55,187
829,56	71,660
829,74	98,485
829,92	55,670
830,10	63,964
830,29	68,649
830,47	67,187
830,65	33,929
830,83	63,429
831,01	42,500
831,20	59,901
831,38	51,707
831,56	49,393
831,74	70,286
831,92	55,682
832,10	58,636
832,29	48,815
832,47	46,460
832,65	54,043
832,83	53,023
833,01	41,502
833,19	45,249
833,37	57,037
833,56	46,948
833,74	46,154
833,92	47,788
834,10	79,188
834,28	58,077
834,46	51,557
834,64	53,906
834,83	39,932
835,01	52,918
835,19	58,294
835,37	66,932
835,55	54,152
835,73	58,088
835,91	50,579
836,09	44,398
836,28	66,031
836,46	45,263
836,64	63,525
836,82	41,045
837,00	40,136
837,18	47,036
837,36	62,032
837,54	29,167
837,72	36,653
837,91	30,924
838,09	28,800
838,27	64,103
838,45	44,013
838,63	34,237
838,81	51,974
838,99	41,812
839,17	39,482
839,35	40,370
839,53	46,309
839,72	24,153
839,90	38,906
840,08	41,346
840,26	44,164
840,44	26,852
840,62	38,047
840,80	39,506
840,98	39,879
841,16	22,420
841,34	41,739
841,52	51,118
841,70	34,343
841,89	38,387
842,07	43,243
842,25	42,532
842,43	30,323
842,61	44,236
842,79	27,439
842,97	27,744
843,15	47,278
843,33	33,254
843,51	40,811
843,69	30,556
843,87	30,997
844,05	39,892
844,23	29,459
844,41	31,407
844,59	25,852
844,77	31,988
844,95	27,184
845,13	34,153
845,31	28,771
845,50	35,825
845,68	36,269
845,86	27,594
846,04	29,877
846,22	37,947
846,40	10,761
846,58	24,129
846,76	29,426
846,94	22,837
847,12	27,962
847,30	29,493
847,48	32,614
847,66	34,878
847,84	36,294
848,02	29,314
848,20	39,514
848,38	25,210
848,56	34,624
848,74	28,926
848,92	17,954
849,10	35,268
849,28	32,244
849,46	19,159
849,64	16,905
849,82	25,000
850,00	24,435
850,18	24,249
850,36	24,561
850,54	25,561
850,72	24,324
850,90	21,168
851,08	18,930
851,26	25,506
851,44	24,297
851,62	18,985
851,80	25,249
851,98	21,811
852,16	28,601
852,34	29,791
852,52	19,483
852,70	16,867
852,87	19,810
853,05	26,854
853,23	30,000
853,41	21,063
853,59	21,132
853,77	26,190
853,95	20,763
854,13	21,553
854,31	24,782
854,49	16,032
854,67	21,617
854,85	23,304
855,03	22,605
855,21	23,350
855,39	17,953
855,57	30,072
855,75	24,621
855,93	17,314
856,11	25,997
856,28	24,132
856,46	15,850
856,64	23,301
856,82	15,009
857,00	21,972
857,18	24,413
857,36	17,479
857,54	17,399
857,72	28,548
857,90	11,862
858,08	15,278
858,26	15,443
858,44	14,752
858,61	17,331
858,79	23,101
858,97	13,181
859,15	23,288
859,33	18,558
859,51	14,696
859,69	12,649
859,87	19,619
860,05	23,013
860,23	5,152
860,40	19,969
860,58	15,230
860,76	22,316
860,94	12,824
861,12	11,048
861,30	15,732
861,48	20,397
861,66	15,899
861,84	20,670
862,01	19,519
862,19	18,564
862,37	14,286
862,55	11,838
862,73	16,712
862,91	14,076
863,09	16,385
863,27	5,989
863,44	13,510
863,62	12,903
863,80	11,990
863,98	16,858
864,16	10,727
864,34	8,571
864,52	15,604
864,69	14,578
864,87	15,018
865,05	13,514
865,23	13,164
865,41	11,800
865,59	15,822
865,76	14,083
865,94	9,700
866,12	14,383
866,30	9,202
866,48	15,711
866,66	14,642
866,83	11,269
867,01	16,407
867,19	16,685
867,37	12,725
867,55	13,392
867,73	11,162
867,90	12,440
868,08	6,754
868,26	9,692
868,44	11,803
868,62	11,703
868,79	3,030
868,97	11,194
869,15	9,766
869,33	12,900
869,51	13,694
869,69	11,783
869,86	9,231
870,04	12,804
870,22	9,573
870,40	11,818
870,57	12,000
870,75	11,494
870,93	14,256
871,11	12,920
871,29	14,228
871,46	10,574
871,64	11,474
871,82	14,439
872,00	13,947
872,18	15,096
872,35	10,339
872,53	7,089
872,71	9,625
872,89	12,048
873,06	10,609
873,24	9,375
873,42	10,036
873,60	6,520
873,77	10,320
873,95	10,239
874,13	11,270
874,31	8,824
874,49	11,072
874,66	7,732
874,84	3,552
875,02	12,286
875,20	9,669
875,37	9,114
875,55	3,302
875,73	7,506
875,91	8,750
876,08	9,873
876,26	7,744
876,44	7,348
876,61	9,466
876,79	12,383
876,97	6,127
877,15	12,595
877,32	8,268
877,50	10,619
877,68	7,617
877,86	7,533
878,03	10,975
878,21	7,227
878,39	8,667
878,56	9,292
878,74	5,929
878,92	8,531
879,10	9,246
879,27	7,143
879,45	11,654
879,63	6,560
879,80	7,138
879,98	5,196
880,16	6,050
880,34	5,267
880,51	6,777
880,69	8,132
880,87	5,155
881,04	7,092
881,22	7,905
881,40	5,649
881,57	6,386
881,75	7,334
881,93	8,250
882,10	7,367
882,28	4,978
882,46	8,507
882,63	10,930
882,81	5,115
882,99	6,791
883,16	6,770
883,34	6,628
883,52	4,824
883,69	5,201
883,87	7,397
884,05	2,541
884,22	5,737
884,40	5,029
884,58	5,978
884,75	5,694
884,93	8,639
885,11	6,692
885,28	6,349
885,46	6,079
885,64	4,817
885,81	6,589
885,99	3,555
886,17	5,520
886,34	6,555
886,52	4,972
886,70	5,969
886,87	7,975
887,05	4,929
887,22	4,049
887,40	6,285
887,58	6,119
887,75	5,583
887,93	7,423
888,11	3,312
888,28	3,983
888,46	3,411
888,63	6,845
888,81	6,946
888,99	4,739
889,16	4,042
889,34	5,417
889,51	5,288
889,69	5,501
889,87	4,840
890,04	3,004
890,22	5,060
890,39	4,423
890,57	6,545
890,75	5,857
890,92	5,796
891,10	6,447
891,27	4,376
891,45	4,625
891,63	6,028
891,80	4,658
891,98	4,774
892,15	3,553
892,33	2,306
892,51	4,867
892,68	3,215
892,86	4,607
893,03	3,902
893,21	4,336
893,38	5,010
893,56	4,257
893,74	4,182
893,91	5,045
894,09	4,491
894,26	4,545
894,44	3,316
894,61	5,199
894,79	3,973
894,96	3,687
895,14	4,350
895,32	3,885
895,49	5,078
895,67	2,725
895,84	5,983
896,02	4,744
896,19	2,852
896,37	4,227
896,54	4,750
896,72	4,164
896,89	5,017
897,07	3,597
897,25	5,293
897,42	2,764
897,60	3,292
897,77	4,969
897,95	4,374
898,12	3,149
898,30	2,988
898,47	3,521
898,65	3,404
898,82	2,745
899,00	4,815
899,17	3,813
899,35	3,292
899,52	4,297
899,70	2,974
899,87	4,569
900,05	4,664
900,22	3,471
900,40	3,916
900,57	5,310
900,75	1,766
900,92	3,494
901,10	4,784
901,27	2,802
901,45	4,526
901,62	3,630
901,80	4,382
901,97	3,375
902,15	4,872
902,32	4,476
902,50	3,202
902,67	2,915
902,85	3,610
903,02	5,308
903,20	4,684
903,37	4,040
903,54	4,863
903,72	3,159
903,89	4,087
904,07	3,978
904,24	3,769
904,42	3,391
904,59	2,623
904,77	3,278
904,94	4,057
905,12	2,605
905,29	4,502
905,47	3,978
905,64	4,786
905,81	3,948
905,99	4,490
906,16	4,415
906,34	4,889
906,51	2,884
906,69	2,111
906,86	3,686
907,03	2,597
907,21	1,985
907,38	3,501
907,56	1,838
907,73	4,372
907,91	3,640
908,08	3,174
908,25	2,073
908,43	3,195
908,60	2,613
908,78	4,610
908,95	4,285
909,13	3,908
909,30	1,793
909,47	3,143
909,65	4,776
909,82	5,881
910,00	3,733
910,17	2,092
910,34	3,146
910,52	1,823
910,69	3,370
910,87	3,633
911,04	2,824
911,21	3,660
911,39	3,345
911,56	2,969
911,73	2,279
911,91	4,468
912,08	3,900
912,26	2,568
912,43	2,544
912,60	3,341
912,78	2,405
912,95	3,813
913,13	3,854
913,30	3,246
913,47	3,007
913,65	2,345
913,82	2,682
913,99	2,548
914,17	3,752
914,34	4,328
914,51	3,959
914,69	2,982
914,86	4,034
915,03	3,296
915,21	2,810
915,38	2,138
915,56	2,623
915,73	2,824
915,90	4,276
916,08	2,951
916,25	2,553
916,42	1,722
916,60	2,813
916,77	2,379
916,94	2,490
917,12	3,528
917,29	3,768
917,46	2,252
917,64	2,596
917,81	2,713
917,98	2,236
918,16	2,729
918,33	2,491
918,50	2,721
918,67	1,667
918,85	2,202
919,02	3,347
919,19	3,746
919,37	3,115
919,54	2,218
919,71	3,266
919,89	2,976
920,06	1,409
920,23	1,883
920,41	2,474
920,58	2,874
920,75	2,767
920,92	1,704
921,10	2,643
921,27	2,056
921,44	3,003
921,62	1,023
921,79	2,996
921,96	2,212
922,13	2,139
922,31	2,001
922,48	2,126
922,65	2,267
922,82	2,229
923,00	3,284
923,17	0,770
923,34	2,568
923,52	2,019
923,69	1,821
923,86	1,243
924,03	1,693
924,21	1,713
924,38	3,479
924,55	3,254
924,72	2,022
924,90	2,337
925,07	1,945
925,24	1,725
925,41	2,244
925,59	1,454
925,76	1,796
925,93	2,264
926,10	2,758
926,28	2,082
926,45	3,532
926,62	2,211
926,79	1,822
926,96	2,439
927,14	2,568
927,31	2,058
927,48	2,689
927,65	1,505
927,83	1,711
928,00	1,799
928,17	2,172
928,34	2,720
928,51	2,391
928,69	2,010
928,86	2,411
929,03	3,307
929,20	1,413
929,37	2,603
929,55	1,661
929,72	2,938
929,89	2,166
930,06	1,833
930,23	2,007
930,41	1,971
930,58	2,979
930,75	2,293
930,92	1,565
931,09	1,720
931,27	1,020
931,44	1,981
931,61	2,970
931,78	2,285
931,95	1,877
932,12	2,650
932,30	1,896
932,47	2,204
932,64	2,742
932,81	3,505
932,98	1,022
933,16	1,456
933,33	1,520
933,50	2,001
933,67	2,817
933,84	2,016
934,01	1,669
934,18	1,545
934,36	2,394
934,53	1,411
934,70	2,090
934,87	2,241
935,04	3,223
935,21	1,772
935,38	2,444
935,56	1,181
935,73	1,454
935,90	1,363
936,07	2,399
936,24	1,795
936,41	1,679
936,58	1,232
936,76	2,359
936,93	1,712
937,10	1,861
937,27	2,107
937,44	2,044
937,61	2,329
937,78	1,945
937,95	1,361
938,13	1,758
938,30	1,595
938,47	2,832
938,64	1,836
938,81	1,556
938,98	2,709
939,15	2,413
939,32	1,767
939,49	2,388
939,66	2,748
939,84	1,595
940,01	2,877
940,18	1,663
940,35	1,341
940,52	1,097
940,69	2,733
940,86	1,607
941,03	1,221
941,20	3,284
941,37	2,384
941,54	1,008
941,71	1,603
941,89	2,296
942,06	1,449
942,23	2,360
942,40	1,556
942,57	2,165
942,74	2,274
942,91	1,013
943,08	2,809
943,25	1,536
943,42	2,607
943,59	1,800
943,76	3,016
943,93	2,752
944,10	1,779
944,27	1,903
944,44	2,629
944,61	1,186
944,79	2,417
944,96	2,893
945,13	2,602
945,30	0,845
945,47	2,480
945,64	2,630
945,81	2,915
945,98	3,140
946,15	3,306
946,32	2,091
946,49	3,265
946,66	2,537
946,83	3,051
947,00	2,297
947,17	3,303
947,34	3,138
947,51	1,722
947,68	3,533
947,85	2,094
948,02	2,776
948,19	4,663
948,36	3,552
948,53	3,395
948,70	4,345
948,87	3,168
949,04	2,357
949,21	2,152
949,38	3,445
949,55	3,786
949,72	3,998
949,89	1,826
950,06	2,292
950,23	4,847
950,40	3,692
950,57	2,270
950,74	4,629
950,91	3,025
951,08	3,058
951,25	3,973
951,42	3,632
951,59	2,341
951,76	3,785
951,93	4,941
952,10	3,813
952,27	3,069
952,44	1,687
952,61	3,163
952,77	4,261
952,94	5,457
953,11	5,853
953,28	5,305
953,45	4,798
953,62	5,060
953,79	4,495
953,96	4,175
954,13	5,277
954,30	5,096
954,47	4,071
954,64	2,608
954,81	4,045
954,98	5,190
955,15	4,528
955,32	4,765
955,49	4,711
955,65	6,944
955,82	8,531
955,99	7,620
956,16	8,147
956,33	6,555
956,50	5,792
956,67	8,333
956,84	6,370
957,01	7,722
957,18	8,098
957,35	7,686
957,52	7,383
957,68	7,417
957,85	9,277
958,02	11,542
958,19	8,703
958,36	12,589
958,53	10,507
958,70	10,226
958,87	10,959
959,04	12,409
959,21	11,414
959,37	12,662
959,54	11,025
959,71	8,342
959,88	8,452
960,05	13,355
960,22	6,509
960,39	16,533
960,56	7,722
960,72	13,049
960,89	20,659
961,06	18,089
961,23	17,322
961,40	12,266
961,57	10,984
961,74	10,127
961,90	17,500
962,07	14,764
962,24	21,626
962,41	11,390
962,58	14,458
962,75	13,451
962,92	20,748
963,08	12,727
963,25	14,595
963,42	17,633
963,59	21,694
963,76	28,989
963,93	17,391
964,10	25,054
964,26	28,070
964,43	25,840
964,60	26,943
964,77	34,217
964,94	24,432
965,10	35,714
965,27	35,509
965,44	33,506
965,61	36,364
965,78	26,198
965,95	31,138
966,11	39,628
966,28	38,290
966,45	39,252
966,62	44,615
966,79	33,878
966,95	30,746
967,12	34,700
967,29	30,556
967,46	40,530
967,63	37,358
967,79	51,351
967,96	36,797
968,13	29,500
968,30	29,032
968,47	63,230
968,63	49,550
968,80	61,927
968,97	50,000
969,14	60,465
969,31	33,889
969,47	53,529
969,64	79,293
969,81	65,285
969,98	68,681
970,14	50,920
970,31	55,346
970,48	64,167
970,65	65,089
970,81	90,411
970,98	91,241
971,15	114,286
971,32	36,719
971,48	119,048
971,65	60,769
971,82	96,078
971,99	113,793
972,15	86,620
972,32	107,207
972,49	72,028
972,66	127,273
972,82	102,326
972,99	74,797
973,16	108,046
973,33	123,214
973,49	97,895
973,66	143,011
973,83	87,379
974,00	125,581
974,16	135,294
974,33	108,772
974,50	129,474
974,67	185,263
974,83	130,952
975,00	145,263
975,17	119,780
975,33	98,876
975,50	150,746
975,67	230,612
975,84	214,925
976,00	146,067
976,17	186,885
976,34	114,000
976,50	150,562
976,67	118,447
976,84	3366,667
977,00	234,694
977,17	240,000
977,34	187,912
977,50	152,239
977,67	228,571
977,84	201,613
978,01	217,021
978,17	488,889
978,34	225,000
978,51	247,059
978,67	188,158
978,84	109,375
979,01	372,973
979,17	197,436
979,34	117,808
979,51	224,490
979,67	187,654
979,84	279,592
980,01	231,111
980,17	195,775
980,34	385,185
980,51	176,812
980,67	158,824
980,84	430,000
981,01	670,000
981,17	620,000
981,34	1011,111
981,50	233,824
981,67	232,203
981,84	2700,000
982,00	433,333
982,17	226,190
982,34	98,889
982,50	693,333
982,67	163,542
982,84	2980,000
983,00	1333,333
983,17	200,000
983,33	179,310
983,50	1600,000
983,67	-244,828
983,83	260,606
984,00	-1414,286
984,17	750,000
984,33	-6300,000
984,50	317,143
984,66	339,130
984,83	180,519
985,00	-445,833
985,16	475,862
985,33	564,706
985,49	650,000
985,66	402,941
985,83	591,304
985,99	423,077
986,16	-2225,000
986,32	900,000
986,49	8000,000
986,66	384,848
986,82	1008,333
986,99	256,604
987,15	-594,737
987,32	-142,857
987,49	232,000
987,65	4150,000
987,82	225,000
987,98	328,571
988,15	306,667
988,31	920,000
988,48	-1566,667
988,65	421,429
988,81	341,667
988,98	365,854
989,14	404,762
989,31	519,048
989,47	297,059
989,64	-769,231
989,80	731,250
989,97	310,811
990,14	-245,652
990,30	-413,636
990,47	326,531
990,63	363,889
990,80	268,000
990,96	-515,000
991,13	434,375
991,29	448,276
991,46	0,000
991,62	-861,538
991,79	816,667
991,95	7900,000
992,12	-1390,000
992,29	-725,000
992,45	116,471
992,62	297,674
992,78	309,091
992,95	-553,333
993,11	450,000
993,28	1270,000
993,44	-560,000
993,61	-562,500
993,77	-3100,000
993,94	-4166,667
994,10	-90,667
994,27	805,263
994,43	325,581
994,60	0,000
994,76	2575,000
994,93	635,000
995,09	-894,118
995,26	1311,111
995,42	247,059
995,59	571,429
995,75	984,615
995,92	1871,429
996,08	277,778
996,25	-900,000
996,41	-5700,000
996,58	773,333
996,74	268,182
996,91	393,103
997,07	0,000
997,23	12600,000
997,40	-16000,000
997,56	-1146,154
997,73	-1812,500
997,89	378,947
998,06	961,538
998,22	-655,556
998,39	540,000
998,55	1500,000
998,72	-1912,500
998,88	-336,667
999,05	-102,564
999,21	328,571
999,37	-606,667
999,54	-1066,667
999,70	-340,000
999,87	937,500
1000,03	302,564
1000,20	241,667
1000,36	0,000
1000,52	391,667
1000,69	-800,000
1000,85	-1080,000
1001,02	-441,667
1001,18	2650,000
1001,35	1023,077
1001,51	641,176
1001,67	-1069,231
1001,84	-1600,000
1002,00	327,027
1002,17	1036,364
1002,33	-3000,000
1002,50	457,143
1002,66	-1046,154
1002,82	215,000
1002,99	878,571
1003,15	-1228,571
1003,32	-1090,909
1003,48	435,714
1003,64	913,333
1003,81	525,926
1003,97	-6350,000
1004,14	990,909
1004,30	320,000
1004,46	-686,667
1004,63	892,857
1004,79	305,556
1004,95	773,333
1005,12	5500,000
1005,28	472,414
1005,45	397,297
1005,61	258,621
1005,77	-216,667
1005,94	-557,143
1006,10	-5350,000
1006,26	1238,462
1006,43	-338,462
1006,59	-1100,000
1006,76	814,286
1006,92	1188,889
1007,08	13000,000
1007,25	-300,000
1007,41	417,241
1007,57	4200,000
1007,74	940,000
1007,90	-389,655
1008,06	265,217
1008,23	1076,471
1008,39	-531,250
1008,55	-430,769
1008,72	-1314,286
1008,88	0,000
1009,04	317,073
1009,21	-284,211
1009,37	-675,000
1009,53	219,048
1009,70	3800,000
1009,86	-700,000
1010,02	4733,333
1010,19	1054,545
1010,35	250,000
1010,51	-7200,000
1010,68	-1525,000
1010,84	-247,727
1011,00	506,250
1011,17	-245,455
1011,33	0,000
1011,49	-833,333
1011,66	864,286
1011,82	477,419
1011,98	842,857
1012,14	-981,818
1012,31	392,308
1012,47	0,000
1012,63	1983,333
1012,80	685,714
1012,96	-575,000
1013,12	-1666,667
1013,29	661,111
1013,45	387,805
1013,61	4066,667
1013,77	-169,643
1013,94	2580,000
1014,10	189,831
1014,26	-3225,000
1014,43	-252,000
1014,59	625,000
1014,75	-611,111
1014,91	-660,000
1015,08	455,556
1015,24	10600,000
1015,40	594,118
1015,56	-11400,000
1015,73	219,048
1015,89	1036,364
1016,05	3450,000
1016,21	-937,500
1016,38	863,158
1016,54	1223,077
1016,70	-2733,333
1016,86	434,375
1017,03	868,750
1017,19	-684,615
1017,35	-805,882
1017,51	-1780,000
1017,68	-1110,000
1017,84	-1600,000
1018,00	354,762
1018,16	423,077
1018,33	-1171,429
1018,49	-783,333
1018,65	-348,649
1018,81	315,385
1018,97	-1685,714
1019,14	-3400,000
1019,30	-279,487
1019,46	0,000
1019,62	-317,647
1019,79	-4433,333
1019,95	1050,000
1020,11	5400,000
1020,27	-381,481
1020,43	-442,308
1020,60	1866,667
1020,76	611,111
1020,92	740,000
1021,08	735,000
1021,24	1410,000
1021,41	877,778
1021,57	1612,500
1021,73	800,000
1021,89	2240,000
1022,05	-442,857
1022,21	540,000
1022,38	-725,000
1022,54	-2033,333
1022,70	428,889
1022,86	-1725,000
1023,02	433,333
1023,19	3080,000
1023,35	4766,667
1023,51	641,667
1023,67	374,074
1023,83	-581,250
1023,99	234,211
1024,16	-342,308
1024,32	-1222,222
1024,48	-540,000
1024,64	366,667
1024,80	556,522
1024,96	448,718
1025,12	571,429
1025,29	528,571
1025,45	236,842
1025,61	627,778
1025,77	-2480,000
1025,93	-9800,000
1026,09	-1457,143
1026,26	908,333
1026,42	593,750
1026,58	293,939
1026,74	1183,333
1026,90	392,000
1027,06	414,286
1027,22	935,714
1027,38	319,231
1027,55	3933,333
1027,71	1700,000
1027,87	-472,000
1028,03	910,000
1028,19	390,625
1028,35	490,000
1028,51	1160,000
1028,67	1108,333
1028,83	-2125,000
1029,00	-280,952
1029,16	1220,000
1029,32	-307,143
1029,48	295,556
1029,64	375,000
1029,80	6000,000
1029,96	853,333
1030,12	413,043
1030,28	-3166,667
1030,44	-700,000
1030,61	-433,333
1030,77	-228,571
1030,93	-786,667
1031,09	1500,000
1031,25	-12000,000
1031,41	-240,000
1031,57	526,923
1031,73	712,500
1031,89	-1181,818
1032,05	-381,481
1032,21	1063,636
1032,37	-187,037
1032,53	-900,000
1032,69	-170,833
1032,86	270,370
1033,02	-227,500
1033,18	-706,250
1033,34	400,000
1033,50	-5100,000
1033,66	-241,463
1033,82	430,435
1033,98	-603,704
1034,14	147,436
1034,30	374,194
1034,46	-3300,000
1034,62	605,000
1034,78	-680,952
1034,94	310,526
1035,10	-730,769
1035,26	-144,186
1035,42	-272,414
1035,58	-650,000
1035,74	1150,000
1035,90	-738,462
1036,06	-1516,667
1036,22	1900,000
1036,38	-476,471
1036,54	-445,833
1036,70	-221,212
1036,86	8700,000
1037,02	544,444
1037,18	794,737
1037,34	162,857
1037,50	-187,805
1037,66	-476,471
1037,82	2340,000
1037,98	-477,778
1038,14	-400,000
1038,30	-1025,000
1038,46	-785,714
1038,62	569,565
1038,78	-2933,333
1038,94	-426,316
1039,10	559,091
1039,26	414,815
1039,42	-733,333
1039,58	1757,143
1039,74	-405,263
1039,90	325,000
1040,06	-357,692
>>>>>End Processed Spectral Data<<<<<
