SpectraSuite Data File
++++++++++++++++++++++++++++++++++++
Date: Wed Feb 01 16:12:54 EET 2017
User: optolab
Dark Spectrum Present: Yes
Reference Spectrum Present: Yes
Number of Sampled Component Spectra: 1
Spectrometers: USB4C02475
Integration Time (usec): 100000 (USB4C02475)
Spectra Averaged: 1 (USB4C02475)
Boxcar Smoothing: 0 (USB4C02475)
Correct for Electrical Dark: No (USB4C02475)
Strobe/Lamp Enabled: No (USB4C02475)
Correct for Detector Non-linearity: No (USB4C02475)
Correct for Stray Light: No (USB4C02475)
Number of Pixels in Processed Spectrum: 3648
>>>>>Begin Processed Spectral Data<<<<<
344,91	4250,000
345,13	4250,000
345,35	4250,000
345,57	0,000
345,79	510,526
346,00	-1933,333
346,22	-2342,857
346,44	402,941
346,66	-583,333
346,87	-11600,000
347,09	330,303
347,31	-404,545
347,53	-243,590
347,74	264,615
347,96	445,455
348,18	831,579
348,40	503,226
348,61	1041,176
348,83	416,667
349,05	272,549
349,27	-4350,000
349,48	592,308
349,70	-324,138
349,92	390,323
350,14	275,472
350,35	328,000
350,57	3075,000
350,79	696,000
351,01	-919,048
351,22	327,778
351,44	492,308
351,66	-316,000
351,87	-480,952
352,09	280,769
352,31	213,115
352,53	243,750
352,74	408,333
352,96	193,506
353,18	763,158
353,40	548,000
353,61	315,556
353,83	300,000
354,05	781,818
354,26	1533,333
354,48	220,000
354,70	396,970
354,92	-355,172
355,13	252,525
355,35	329,545
355,57	550,000
355,78	209,639
356,00	-2700,000
356,22	403,846
356,44	6350,000
356,65	390,909
356,87	576,923
357,09	679,167
357,30	313,333
357,52	263,793
357,74	665,000
357,95	274,359
358,17	262,295
358,39	306,452
358,60	462,162
358,82	395,833
359,04	507,407
359,26	534,286
359,47	10000,000
359,69	365,000
359,91	393,939
360,12	461,905
360,34	770,833
360,56	-153,704
360,77	2925,000
360,99	523,810
361,21	286,000
361,42	4800,000
361,64	267,347
361,86	206,154
362,07	-587,097
362,29	180,000
362,51	-758,824
362,72	592,000
362,94	329,412
363,16	337,209
363,37	-800,000
363,59	503,846
363,81	415,909
364,02	711,111
364,24	666,667
364,46	2766,667
364,67	1145,455
364,89	2585,714
365,11	181,429
365,32	455,172
365,54	352,778
365,76	326,531
365,97	385,294
366,19	232,759
366,41	672,727
366,62	625,926
366,84	300,000
367,05	306,122
367,27	2433,333
367,49	-476,923
367,70	723,529
367,92	281,967
368,14	297,917
368,35	-9100,000
368,57	512,000
368,79	475,862
369,00	336,957
369,22	-1287,500
369,43	240,000
369,65	259,677
369,87	445,946
370,08	201,205
370,30	255,357
370,51	249,180
370,73	235,556
370,95	225,806
371,16	230,952
371,38	343,333
371,60	1925,000
371,81	217,188
372,03	846,667
372,24	500,000
372,46	269,811
372,68	185,714
372,89	400,000
373,11	415,385
373,32	386,364
373,54	-1015,385
373,76	776,923
373,97	713,333
374,19	590,909
374,40	268,750
374,62	-4566,667
374,84	5150,000
375,05	607,143
375,27	320,000
375,48	-11500,000
375,70	196,000
375,92	312,500
376,13	428,125
376,35	242,466
376,56	806,250
376,78	273,611
376,99	525,000
377,21	287,500
377,43	222,727
377,64	159,420
377,86	493,103
378,07	284,615
378,29	-1437,500
378,51	474,194
378,72	337,500
378,94	-933,333
379,15	327,273
379,37	894,118
379,58	263,077
379,80	773,333
380,01	975,000
380,23	282,353
380,45	2380,000
380,66	4233,333
380,88	297,727
381,09	221,429
381,31	202,222
381,52	345,098
381,74	1344,444
381,95	763,636
382,17	473,077
382,39	680,952
382,60	281,633
382,82	387,179
383,03	388,462
383,25	451,613
383,46	352,273
383,68	477,778
383,89	515,000
384,11	383,871
384,32	-3000,000
384,54	644,444
384,76	-3000,000
384,97	451,515
385,19	375,862
385,40	339,216
385,62	201,754
385,83	302,381
386,05	260,784
386,26	310,000
386,48	209,195
386,69	331,250
386,91	500,000
387,12	237,288
387,34	220,690
387,55	243,548
387,77	459,375
387,98	596,154
388,20	191,304
388,41	385,294
388,63	9700,000
388,84	188,525
389,06	302,381
389,27	836,842
389,49	419,444
389,70	228,571
389,92	253,333
390,13	263,265
390,35	305,882
390,56	298,148
390,78	714,815
390,99	1320,000
391,21	789,474
391,42	251,111
391,64	302,439
391,85	208,621
392,07	320,455
392,28	166,667
392,50	375,758
392,71	-812,500
392,93	226,923
393,14	436,111
393,36	226,531
393,57	148,872
393,79	1022,222
394,00	312,766
394,22	191,781
394,43	207,229
394,65	348,837
394,86	1487,500
395,08	528,571
395,29	183,019
395,50	530,769
395,72	750,000
395,93	833,333
396,15	149,296
396,36	192,647
396,58	255,000
396,79	302,500
397,01	198,000
397,22	366,667
397,44	242,424
397,65	222,807
397,87	388,095
398,08	228,571
398,29	396,875
398,51	278,571
398,72	341,463
398,94	181,538
399,15	402,857
399,37	263,158
399,58	178,022
399,80	622,727
400,01	248,148
400,22	342,857
400,44	196,296
400,65	582,143
400,87	166,176
401,08	221,429
401,30	180,435
401,51	215,789
401,72	226,923
401,94	131,646
402,15	550,000
402,37	168,067
402,58	566,667
402,80	248,571
403,01	191,549
403,22	1481,818
403,44	173,913
403,65	248,214
403,87	222,857
404,08	335,897
404,30	157,647
404,51	-3566,667
404,72	202,857
404,94	125,490
405,15	196,000
405,37	201,266
405,58	170,588
405,79	141,463
406,01	234,146
406,22	222,414
406,44	282,979
406,65	254,386
406,86	175,000
407,08	141,772
407,29	126,214
407,51	182,927
407,72	177,778
407,93	161,957
408,15	96,581
408,36	202,326
408,58	161,856
408,79	93,333
409,00	151,042
409,22	187,302
409,43	148,101
409,64	78,882
409,86	87,421
410,07	95,385
410,29	82,836
410,50	114,894
410,71	99,107
410,93	58,599
411,14	110,853
411,35	83,333
411,57	93,421
411,78	77,344
412,00	98,726
412,21	81,290
412,42	69,312
412,64	51,502
412,85	50,515
413,06	61,585
413,28	35,135
413,49	65,403
413,70	71,377
413,92	44,664
414,13	31,535
414,34	61,303
414,56	34,615
414,77	53,586
414,98	41,611
415,20	35,640
415,41	41,926
415,63	33,333
415,84	41,944
416,05	33,516
416,27	32,041
416,48	33,989
416,69	30,088
416,91	31,351
417,12	31,818
417,33	28,421
417,55	25,151
417,76	30,801
417,97	25,519
418,19	14,513
418,40	21,915
418,61	25,741
418,83	18,182
419,04	15,142
419,25	21,807
419,46	22,406
419,68	18,254
419,89	18,033
420,10	17,415
420,32	15,318
420,53	19,265
420,74	17,281
420,96	15,250
421,17	15,473
421,38	15,669
421,60	13,687
421,81	10,251
422,02	11,494
422,23	12,019
422,45	10,212
422,66	12,060
422,87	12,031
423,09	12,232
423,30	13,273
423,51	9,213
423,73	14,104
423,94	11,555
424,15	10,612
424,36	9,494
424,58	9,875
424,79	9,681
425,00	8,607
425,22	8,434
425,43	8,241
425,64	9,086
425,85	4,244
426,07	9,228
426,28	6,691
426,49	6,413
426,71	6,871
426,92	4,602
427,13	4,220
427,34	3,342
427,56	6,946
427,77	4,487
427,98	7,992
428,19	4,465
428,41	5,551
428,62	4,435
428,83	5,458
429,04	5,599
429,26	5,292
429,47	6,020
429,68	3,526
429,89	3,851
430,11	5,102
430,32	4,491
430,53	4,671
430,74	3,775
430,96	3,863
431,17	3,026
431,38	3,635
431,59	3,727
431,81	3,424
432,02	3,735
432,23	3,030
432,44	3,374
432,66	4,018
432,87	2,846
433,08	3,859
433,29	3,121
433,51	2,169
433,72	2,498
433,93	1,350
434,14	3,215
434,35	2,212
434,57	2,360
434,78	2,017
434,99	2,297
435,20	2,432
435,42	1,991
435,63	2,283
435,84	2,237
436,05	2,539
436,26	1,756
436,48	2,423
436,69	1,449
436,90	2,286
437,11	1,856
437,32	2,014
437,54	2,226
437,75	1,725
437,96	2,385
438,17	1,153
438,38	2,372
438,60	1,558
438,81	1,859
439,02	2,063
439,23	1,666
439,44	1,763
439,66	2,118
439,87	2,044
440,08	1,780
440,29	1,897
440,50	1,701
440,72	1,753
440,93	1,880
441,14	1,924
441,35	2,197
441,56	1,637
441,77	2,272
441,99	1,971
442,20	1,822
442,41	2,241
442,62	2,736
442,83	3,653
443,04	4,857
443,26	6,080
443,47	8,583
443,68	11,206
443,89	14,584
444,10	18,546
444,31	22,908
444,53	26,902
444,74	31,716
444,95	34,959
445,16	39,375
445,37	42,022
445,58	43,610
445,80	46,573
446,01	47,616
446,22	50,258
446,43	53,423
446,64	57,581
446,85	63,328
447,06	69,037
447,28	73,446
447,49	79,460
447,70	83,178
447,91	86,908
448,12	88,574
448,33	90,157
448,54	91,725
448,76	91,075
448,97	92,430
449,18	92,242
449,39	91,547
449,60	92,361
449,81	91,183
450,02	93,277
450,23	91,716
450,45	93,576
450,66	93,187
450,87	94,166
451,08	94,030
451,29	94,958
451,50	95,088
451,71	95,406
451,92	95,312
452,13	96,225
452,35	96,556
452,56	97,388
452,77	97,271
452,98	97,575
453,19	98,288
453,40	97,199
453,61	97,062
453,82	97,700
454,03	97,936
454,25	97,682
454,46	98,112
454,67	97,099
454,88	96,970
455,09	97,668
455,30	96,526
455,51	97,930
455,72	96,486
455,93	97,059
456,14	96,630
456,35	96,305
456,56	95,056
456,78	95,149
456,99	96,972
457,20	95,445
457,41	95,146
457,62	95,138
457,83	94,024
458,04	95,080
458,25	95,919
458,46	96,164
458,67	95,778
458,88	96,220
459,09	95,843
459,30	95,228
459,51	94,641
459,73	95,033
459,94	94,799
460,15	93,199
460,36	93,192
460,57	92,856
460,78	92,108
460,99	91,501
461,20	91,737
461,41	92,038
461,62	91,495
461,83	91,705
462,04	91,804
462,25	92,471
462,46	91,963
462,67	93,325
462,88	93,809
463,09	93,787
463,30	94,657
463,51	95,447
463,72	94,629
463,93	94,051
464,15	94,075
464,36	94,354
464,57	94,039
464,78	93,491
464,99	93,069
465,20	93,170
465,41	93,207
465,62	91,879
465,83	91,411
466,04	92,664
466,25	92,431
466,46	93,111
466,67	93,521
466,88	94,213
467,09	94,137
467,30	95,045
467,51	95,124
467,72	95,786
467,93	95,270
468,14	93,790
468,35	93,804
468,56	93,706
468,77	93,755
468,98	93,574
469,19	93,714
469,40	93,557
469,61	93,829
469,82	92,373
470,03	93,322
470,24	93,325
470,45	94,190
470,66	94,377
470,87	95,624
471,08	94,555
471,29	95,316
471,50	95,579
471,71	93,909
471,92	93,544
472,13	94,302
472,34	92,853
472,55	91,907
472,76	91,990
472,97	89,346
473,18	87,597
473,39	85,248
473,60	81,775
473,81	79,112
474,01	74,289
474,22	70,166
474,43	63,876
474,64	58,304
474,85	50,249
475,06	43,080
475,27	35,955
475,48	29,391
475,69	22,936
475,90	17,014
476,11	12,763
476,32	9,416
476,53	6,748
476,74	5,067
476,95	3,375
477,16	2,433
477,37	1,909
477,58	1,578
477,79	1,830
478,00	1,166
478,21	1,105
478,41	1,323
478,62	0,971
478,83	1,116
479,04	1,017
479,25	0,772
479,46	0,804
479,67	1,202
479,88	1,015
480,09	0,857
480,30	1,125
480,51	1,116
480,72	0,933
480,93	1,052
481,14	0,970
481,34	0,823
481,55	0,643
481,76	0,704
481,97	0,992
482,18	0,774
482,39	0,860
482,60	0,638
482,81	0,832
483,02	0,709
483,23	0,979
483,44	0,984
483,65	0,990
483,85	0,675
484,06	0,864
484,27	0,756
484,48	0,796
484,69	0,806
484,90	0,917
485,11	0,798
485,32	0,814
485,53	0,661
485,73	0,809
485,94	0,735
486,15	0,851
486,36	0,832
486,57	0,846
486,78	1,003
486,99	0,971
487,20	0,731
487,41	0,564
487,61	0,687
487,82	0,831
488,03	0,610
488,24	0,788
488,45	0,746
488,66	0,834
488,87	0,593
489,08	0,801
489,28	0,892
489,49	1,042
489,70	0,634
489,91	0,857
490,12	0,675
490,33	0,695
490,54	0,726
490,74	0,526
490,95	0,660
491,16	0,719
491,37	0,950
491,58	0,532
491,79	0,513
492,00	0,755
492,20	0,622
492,41	0,640
492,62	0,441
492,83	0,684
493,04	0,635
493,25	0,832
493,45	0,619
493,66	0,810
493,87	0,672
494,08	0,617
494,29	0,484
494,50	0,648
494,70	0,802
494,91	0,614
495,12	0,803
495,33	0,591
495,54	0,723
495,75	0,704
495,95	0,603
496,16	0,598
496,37	0,592
496,58	0,892
496,79	0,746
496,99	0,752
497,20	0,638
497,41	0,710
497,62	0,500
497,83	0,748
498,04	0,635
498,24	0,762
498,45	0,897
498,66	0,778
498,87	0,836
499,08	0,535
499,28	0,739
499,49	0,652
499,70	0,680
499,91	0,792
500,12	0,641
500,32	0,638
500,53	0,580
500,74	0,745
500,95	0,810
501,15	0,770
501,36	0,755
501,57	0,706
501,78	0,779
501,99	0,744
502,19	0,440
502,40	0,669
502,61	0,755
502,82	0,843
503,02	0,597
503,23	0,886
503,44	0,603
503,65	0,847
503,86	0,628
504,06	0,822
504,27	0,895
504,48	0,709
504,69	0,777
504,89	0,724
505,10	0,754
505,31	0,700
505,52	0,884
505,72	0,739
505,93	0,762
506,14	0,751
506,35	0,681
506,55	0,921
506,76	0,764
506,97	0,694
507,18	0,743
507,38	0,841
507,59	0,858
507,80	0,714
508,01	0,780
508,21	0,841
508,42	0,837
508,63	0,914
508,84	0,782
509,04	0,713
509,25	0,734
509,46	0,814
509,67	0,770
509,87	0,869
510,08	0,878
510,29	0,894
510,49	0,815
510,70	0,938
510,91	0,844
511,12	0,934
511,32	0,765
511,53	0,947
511,74	0,689
511,94	0,973
512,15	0,892
512,36	0,790
512,57	0,716
512,77	0,717
512,98	0,854
513,19	0,787
513,39	0,892
513,60	0,757
513,81	0,840
514,01	1,010
514,22	1,203
514,43	1,076
514,64	1,154
514,84	1,005
515,05	0,984
515,26	1,074
515,46	1,127
515,67	1,115
515,88	1,270
516,08	1,351
516,29	1,290
516,50	1,295
516,70	1,177
516,91	1,392
517,12	1,476
517,32	1,939
517,53	2,349
517,74	3,111
517,95	3,920
518,15	5,930
518,36	8,170
518,57	11,578
518,77	16,278
518,98	21,838
519,19	28,910
519,39	36,731
519,60	45,444
519,80	53,626
520,01	62,361
520,22	70,159
520,42	75,916
520,63	81,415
520,84	85,705
521,04	88,249
521,25	89,354
521,46	90,507
521,66	91,402
521,87	90,807
522,08	90,677
522,28	91,596
522,49	91,654
522,70	93,188
522,90	92,417
523,11	94,934
523,31	96,281
523,52	96,871
523,73	97,436
523,93	96,810
524,14	97,882
524,35	99,197
524,55	98,515
524,76	98,638
524,97	99,018
525,17	99,254
525,38	98,518
525,58	97,781
525,79	97,986
526,00	99,030
526,20	98,019
526,41	97,693
526,61	97,939
526,82	97,459
527,03	97,260
527,23	97,531
527,44	96,285
527,64	97,833
527,85	98,173
528,06	97,433
528,26	96,786
528,47	97,723
528,68	97,708
528,88	97,885
529,09	97,295
529,29	98,383
529,50	98,376
529,70	98,856
529,91	98,285
530,12	98,552
530,32	98,031
530,53	99,312
530,73	97,393
530,94	99,174
531,15	98,448
531,35	98,673
531,56	99,544
531,76	98,895
531,97	99,435
532,17	99,877
532,38	98,886
532,59	99,825
532,79	98,940
533,00	100,057
533,20	100,198
533,41	100,168
533,61	99,687
533,82	99,578
534,03	99,468
534,23	100,486
534,44	100,981
534,64	99,833
534,85	99,996
535,05	100,787
535,26	100,152
535,46	100,741
535,67	100,442
535,88	100,000
536,08	100,272
536,29	101,994
536,49	100,898
536,70	101,375
536,90	101,231
537,11	100,686
537,31	101,064
537,52	101,133
537,72	99,959
537,93	99,923
538,13	98,061
538,34	100,000
538,55	98,996
538,75	98,403
538,96	98,558
539,16	97,677
539,37	96,818
539,57	97,622
539,78	97,313
539,98	96,851
540,19	95,797
540,39	96,025
540,60	96,011
540,80	96,333
541,01	96,137
541,21	97,178
541,42	95,952
541,62	96,316
541,83	97,344
542,03	97,155
542,24	97,412
542,44	97,337
542,65	96,666
542,85	97,758
543,06	97,938
543,26	97,818
543,47	98,747
543,67	98,535
543,88	99,249
544,08	99,379
544,29	97,609
544,49	98,195
544,70	97,622
544,90	98,402
545,11	99,582
545,31	97,519
545,52	98,065
545,72	99,099
545,93	97,514
546,13	98,443
546,34	98,200
546,54	97,814
546,75	98,294
546,95	98,590
547,15	99,082
547,36	99,253
547,56	98,420
547,77	99,438
547,97	99,957
548,18	99,600
548,38	98,758
548,59	98,510
548,79	99,214
549,00	99,030
549,20	99,362
549,41	98,424
549,61	97,237
549,81	96,774
550,02	96,065
550,22	95,037
550,43	95,709
550,63	94,278
550,84	93,049
551,04	93,902
551,25	93,122
551,45	92,319
551,65	90,745
551,86	91,331
552,06	88,342
552,27	86,165
552,47	82,100
552,68	78,925
552,88	71,647
553,08	66,259
553,29	59,949
553,49	51,659
553,70	44,514
553,90	37,122
554,11	30,152
554,31	23,932
554,51	18,499
554,72	13,716
554,92	10,208
555,13	7,361
555,33	5,453
555,53	3,857
555,74	2,832
555,94	2,354
556,15	1,663
556,35	1,459
556,56	1,168
556,76	1,053
556,96	0,852
557,17	0,900
557,37	0,948
557,58	0,865
557,78	0,639
557,98	0,876
558,19	0,728
558,39	0,819
558,59	0,665
558,80	0,992
559,00	0,839
559,21	0,583
559,41	0,616
559,61	0,574
559,82	0,610
560,02	0,639
560,23	0,894
560,43	0,653
560,63	0,674
560,84	0,742
561,04	0,567
561,24	0,678
561,45	0,780
561,65	0,693
561,85	0,728
562,06	0,698
562,26	0,538
562,47	0,647
562,67	0,573
562,87	0,579
563,08	0,640
563,28	0,695
563,48	0,696
563,69	0,567
563,89	0,693
564,09	0,721
564,30	0,550
564,50	0,874
564,70	0,733
564,91	0,773
565,11	0,542
565,31	0,647
565,52	0,751
565,72	0,565
565,92	0,773
566,13	0,489
566,33	0,603
566,53	0,638
566,74	0,646
566,94	0,637
567,14	0,533
567,35	0,532
567,55	0,543
567,75	0,548
567,96	0,734
568,16	0,621
568,36	0,536
568,57	0,666
568,77	0,569
568,97	0,635
569,18	0,613
569,38	0,727
569,58	0,551
569,79	0,615
569,99	0,756
570,19	0,594
570,39	0,673
570,60	0,514
570,80	0,596
571,00	0,536
571,21	0,501
571,41	0,705
571,61	0,584
571,82	0,580
572,02	0,674
572,22	0,611
572,42	0,542
572,63	0,539
572,83	0,569
573,03	0,605
573,24	0,553
573,44	0,450
573,64	0,700
573,84	0,692
574,05	0,538
574,25	0,713
574,45	0,514
574,66	0,641
574,86	0,662
575,06	0,605
575,26	0,433
575,47	0,500
575,67	0,705
575,87	0,487
576,07	0,437
576,28	0,709
576,48	0,671
576,68	0,603
576,88	0,489
577,09	0,655
577,29	0,434
577,49	0,569
577,69	0,554
577,90	0,646
578,10	0,588
578,30	0,588
578,50	0,528
578,71	0,630
578,91	0,453
579,11	0,687
579,31	0,659
579,52	0,521
579,72	0,607
579,92	0,585
580,12	0,481
580,33	0,628
580,53	0,634
580,73	0,482
580,93	0,607
581,13	0,558
581,34	0,590
581,54	0,510
581,74	0,538
581,94	0,873
582,15	0,415
582,35	0,249
582,55	0,579
582,75	0,756
582,95	0,577
583,16	0,456
583,36	0,563
583,56	0,557
583,76	0,566
583,96	0,565
584,17	0,492
584,37	0,706
584,57	0,423
584,77	0,531
584,97	0,542
585,18	0,767
585,38	0,508
585,58	0,452
585,78	0,533
585,98	0,646
586,19	0,629
586,39	0,495
586,59	0,613
586,79	0,515
586,99	0,492
587,20	0,467
587,40	0,607
587,60	0,564
587,80	0,754
588,00	0,559
588,20	0,488
588,41	0,697
588,61	0,553
588,81	0,445
589,01	0,597
589,21	0,744
589,41	0,708
589,62	0,630
589,82	0,445
590,02	0,483
590,22	0,677
590,42	0,414
590,62	0,417
590,83	0,685
591,03	0,628
591,23	0,451
591,43	0,722
591,63	0,511
591,83	0,400
592,03	0,659
592,24	0,639
592,44	0,696
592,64	0,510
592,84	0,608
593,04	0,654
593,24	0,564
593,44	0,644
593,65	0,568
593,85	0,585
594,05	0,467
594,25	0,806
594,45	0,531
594,65	0,636
594,85	0,590
595,06	0,670
595,26	0,757
595,46	0,525
595,66	0,450
595,86	0,697
596,06	0,789
596,26	0,656
596,46	0,462
596,66	0,741
596,87	0,653
597,07	0,743
597,27	0,495
597,47	0,589
597,67	0,737
597,87	0,633
598,07	0,605
598,27	0,762
598,47	0,770
598,67	0,656
598,88	0,639
599,08	0,548
599,28	0,607
599,48	0,741
599,68	0,679
599,88	0,625
600,08	0,763
600,28	0,835
600,48	0,709
600,68	0,686
600,88	0,737
601,09	0,757
601,29	0,730
601,49	0,834
601,69	0,765
601,89	0,696
602,09	0,787
602,29	0,903
602,49	0,757
602,69	0,711
602,89	0,903
603,09	0,852
603,29	0,917
603,49	0,809
603,69	0,997
603,90	1,051
604,10	1,159
604,30	1,261
604,50	1,397
604,70	1,708
604,90	1,800
605,10	2,280
605,30	2,727
605,50	3,344
605,70	4,550
605,90	5,874
606,10	7,215
606,30	9,477
606,50	12,150
606,70	15,011
606,90	18,646
607,10	23,037
607,30	27,131
607,50	31,761
607,70	37,993
607,90	43,559
608,10	49,957
608,30	56,667
608,50	62,821
608,70	68,082
608,90	74,174
609,11	79,705
609,31	82,834
609,51	86,293
609,71	88,760
609,91	91,128
610,11	91,709
610,31	94,017
610,51	93,701
610,71	95,389
610,91	95,492
611,11	95,357
611,31	97,089
611,51	97,926
611,71	98,228
611,91	98,231
612,11	99,504
612,31	99,077
612,51	98,765
612,71	99,921
612,91	98,924
613,11	98,784
613,31	98,148
613,51	98,499
613,71	97,435
613,91	97,871
614,11	98,742
614,31	97,288
614,50	97,580
614,70	97,602
614,90	97,635
615,10	97,587
615,30	98,198
615,50	96,886
615,70	97,307
615,90	98,094
616,10	98,084
616,30	97,412
616,50	97,205
616,70	96,541
616,90	98,219
617,10	96,779
617,30	96,867
617,50	96,770
617,70	97,193
617,90	97,286
618,10	96,157
618,30	97,036
618,50	95,680
618,70	96,555
618,90	97,230
619,10	97,104
619,30	96,620
619,49	97,965
619,69	97,655
619,89	96,342
620,09	97,879
620,29	99,427
620,49	98,484
620,69	98,664
620,89	99,075
621,09	98,729
621,29	99,375
621,49	99,003
621,69	98,172
621,89	99,229
622,09	98,457
622,29	97,849
622,48	99,035
622,68	98,115
622,88	96,724
623,08	96,368
623,28	97,460
623,48	97,496
623,68	98,082
623,88	97,777
624,08	97,420
624,28	98,469
624,48	96,878
624,67	96,668
624,87	97,510
625,07	96,233
625,27	96,811
625,47	96,900
625,67	97,200
625,87	96,780
626,07	95,626
626,27	96,450
626,47	95,891
626,66	96,094
626,86	96,067
627,06	96,195
627,26	94,767
627,46	95,424
627,66	95,560
627,86	96,018
628,06	95,743
628,25	95,050
628,45	96,037
628,65	95,696
628,85	95,997
629,05	96,111
629,25	96,145
629,45	95,847
629,65	96,320
629,84	96,499
630,04	97,749
630,24	98,344
630,44	98,149
630,64	100,038
630,84	99,103
631,04	98,914
631,23	100,612
631,43	100,799
631,63	101,154
631,83	102,685
632,03	101,711
632,23	101,897
632,42	102,566
632,62	101,650
632,82	102,812
633,02	102,854
633,22	104,251
633,42	104,160
633,62	103,269
633,81	103,891
634,01	103,268
634,21	103,498
634,41	103,879
634,61	102,658
634,80	103,046
635,00	103,878
635,20	103,847
635,40	103,378
635,60	102,792
635,80	103,148
635,99	103,986
636,19	103,406
636,39	103,849
636,59	102,223
636,79	101,916
636,98	101,357
637,18	101,780
637,38	102,103
637,58	102,142
637,78	101,470
637,97	101,625
638,17	101,423
638,37	100,852
638,57	101,268
638,77	100,524
638,96	100,454
639,16	98,813
639,36	99,814
639,56	99,776
639,76	99,870
639,95	100,330
640,15	98,895
640,35	98,775
640,55	98,589
640,75	98,192
640,94	99,121
641,14	98,896
641,34	98,418
641,54	99,500
641,73	98,729
641,93	98,579
642,13	100,052
642,33	101,727
642,53	99,025
642,72	100,118
642,92	99,544
643,12	100,734
643,32	100,521
643,51	101,195
643,71	101,435
643,91	101,055
644,11	101,398
644,30	99,060
644,50	101,087
644,70	101,195
644,90	100,381
645,09	101,038
645,29	100,473
645,49	99,476
645,69	98,252
645,88	99,432
646,08	99,088
646,28	99,332
646,48	100,051
646,67	99,230
646,87	98,755
647,07	99,545
647,26	98,780
647,46	98,763
647,66	100,023
647,86	100,053
648,05	99,002
648,25	99,004
648,45	99,870
648,65	98,961
648,84	99,814
649,04	100,381
649,24	98,708
649,43	100,250
649,63	100,134
649,83	97,843
650,03	99,715
650,22	99,682
650,42	98,239
650,62	99,880
650,81	99,354
651,01	97,324
651,21	96,276
651,40	96,421
651,60	97,161
651,80	97,601
652,00	95,126
652,19	94,312
652,39	94,957
652,59	92,264
652,78	91,862
652,98	92,017
653,18	90,810
653,37	91,424
653,57	88,393
653,77	88,521
653,96	86,405
654,16	84,490
654,36	84,119
654,55	82,668
654,75	79,929
654,95	77,696
655,14	75,559
655,34	74,462
655,54	70,996
655,73	68,572
655,93	67,820
656,13	64,078
656,32	62,001
656,52	59,212
656,72	57,048
656,91	53,737
657,11	51,433
657,31	47,258
657,50	44,389
657,70	40,909
657,90	38,430
658,09	34,161
658,29	31,895
658,49	28,081
658,68	25,242
658,88	22,053
659,07	19,448
659,27	16,932
659,47	15,026
659,66	13,091
659,86	11,003
660,06	9,466
660,25	7,886
660,45	7,203
660,64	5,487
660,84	5,564
661,04	4,381
661,23	4,153
661,43	3,814
661,63	3,449
661,82	2,318
662,02	3,214
662,21	2,634
662,41	2,151
662,61	2,391
662,80	1,904
663,00	2,175
663,19	1,852
663,39	2,012
663,59	1,968
663,78	1,514
663,98	1,290
664,17	1,622
664,37	1,190
664,57	1,399
664,76	1,616
664,96	1,524
665,15	0,859
665,35	1,295
665,55	1,094
665,74	1,000
665,94	1,380
666,13	1,376
666,33	0,741
666,53	1,436
666,72	1,141
666,92	1,281
667,11	1,364
667,31	0,949
667,50	1,290
667,70	1,095
667,90	0,862
668,09	0,796
668,29	1,003
668,48	1,114
668,68	0,888
668,87	1,069
669,07	1,398
669,26	1,064
669,46	0,973
669,66	0,983
669,85	1,140
670,05	0,879
670,24	1,052
670,44	0,876
670,63	1,006
670,83	0,892
671,02	1,427
671,22	1,123
671,42	1,019
671,61	0,706
671,81	0,771
672,00	0,929
672,20	0,783
672,39	0,728
672,59	0,628
672,78	1,058
672,98	0,875
673,17	0,831
673,37	0,785
673,56	0,765
673,76	0,941
673,95	0,977
674,15	0,620
674,34	0,650
674,54	0,878
674,73	0,668
674,93	0,750
675,13	0,664
675,32	1,134
675,52	1,150
675,71	0,729
675,91	0,808
676,10	0,717
676,30	0,715
676,49	0,509
676,69	0,828
676,88	0,979
677,08	0,877
677,27	0,642
677,47	0,953
677,66	0,994
677,86	0,667
678,05	0,909
678,24	0,604
678,44	0,842
678,63	0,800
678,83	0,523
679,02	0,777
679,22	0,579
679,41	0,816
679,61	0,633
679,80	0,567
680,00	0,631
680,19	0,404
680,39	0,813
680,58	0,586
680,78	0,616
680,97	0,629
681,17	0,633
681,36	0,584
681,56	0,830
681,75	0,568
681,94	0,753
682,14	0,746
682,33	0,574
682,53	0,975
682,72	0,765
682,92	0,854
683,11	0,811
683,31	0,476
683,50	0,588
683,69	0,623
683,89	0,501
684,08	0,459
684,28	0,470
684,47	0,620
684,67	0,447
684,86	0,332
685,06	0,395
685,25	0,509
685,44	0,490
685,64	0,428
685,83	0,516
686,03	0,277
686,22	0,365
686,42	0,368
686,61	0,565
686,80	0,512
687,00	0,541
687,19	0,604
687,39	0,419
687,58	0,396
687,77	0,346
687,97	0,590
688,16	0,229
688,36	0,388
688,55	0,291
688,74	0,570
688,94	0,567
689,13	0,619
689,33	0,503
689,52	0,476
689,71	0,456
689,91	0,473
690,10	0,445
690,30	0,501
690,49	0,431
690,68	0,405
690,88	0,755
691,07	0,338
691,27	0,500
691,46	0,405
691,65	0,540
691,85	0,455
692,04	0,460
692,23	0,308
692,43	0,375
692,62	0,606
692,82	0,522
693,01	0,369
693,20	0,581
693,40	0,348
693,59	0,443
693,78	0,480
693,98	0,427
694,17	0,265
694,36	0,548
694,56	0,578
694,75	0,238
694,94	0,358
695,14	0,376
695,33	0,417
695,53	0,338
695,72	0,480
695,91	0,547
696,11	0,401
696,30	0,368
696,49	0,430
696,69	0,565
696,88	0,337
697,07	0,366
697,27	0,558
697,46	0,380
697,65	0,606
697,85	0,489
698,04	0,772
698,23	0,602
698,43	0,833
698,62	0,512
698,81	0,740
699,01	1,173
699,20	0,686
699,39	0,755
699,58	0,802
699,78	1,207
699,97	0,649
700,16	1,175
700,36	0,914
700,55	0,824
700,74	0,647
700,94	1,311
701,13	0,692
701,32	1,665
701,52	1,518
701,71	0,832
701,90	1,164
702,09	1,220
702,29	1,307
702,48	1,821
702,67	1,466
702,87	1,386
703,06	1,356
703,25	1,571
703,44	1,329
703,64	2,056
703,83	1,644
704,02	1,749
704,22	1,515
704,41	1,751
704,60	2,255
704,79	1,651
704,99	2,086
705,18	2,004
705,37	1,034
705,56	2,401
705,76	2,785
705,95	2,116
706,14	1,957
706,33	2,348
706,53	3,287
706,72	1,840
706,91	2,450
707,11	2,514
707,30	3,292
707,49	3,058
707,68	2,064
707,88	2,277
708,07	1,729
708,26	2,554
708,45	2,446
708,64	2,200
708,84	3,314
709,03	2,766
709,22	2,377
709,41	3,018
709,61	3,149
709,80	3,562
709,99	3,603
710,18	3,887
710,38	3,883
710,57	2,231
710,76	2,070
710,95	3,616
711,14	6,092
711,34	3,871
711,53	4,136
711,72	3,410
711,91	4,079
712,11	4,834
712,30	4,950
712,49	4,192
712,68	4,843
712,87	4,913
713,07	6,699
713,26	3,863
713,45	6,010
713,64	5,122
713,83	4,202
714,03	6,602
714,22	4,862
714,41	4,597
714,60	4,674
714,79	3,687
714,99	7,037
715,18	3,643
715,37	3,494
715,56	6,100
715,75	5,282
715,94	4,906
716,14	5,944
716,33	6,897
716,52	6,003
716,71	6,313
716,90	4,816
717,10	7,220
717,29	4,629
717,48	7,377
717,67	3,783
717,86	3,399
718,05	3,417
718,24	5,333
718,44	5,959
718,63	6,766
718,82	7,116
719,01	7,112
719,20	4,990
719,39	3,736
719,59	4,254
719,78	5,954
719,97	6,067
720,16	6,991
720,35	9,831
720,54	7,546
720,73	9,364
720,93	9,391
721,12	4,059
721,31	8,405
721,50	4,228
721,69	8,689
721,88	11,011
722,07	7,187
722,27	7,724
722,46	6,699
722,65	6,787
722,84	7,457
723,03	5,223
723,22	8,286
723,41	8,762
723,60	9,774
723,79	6,551
723,99	9,021
724,18	9,490
724,37	7,730
724,56	11,151
724,75	12,121
724,94	11,421
725,13	12,284
725,32	9,791
725,51	9,402
725,71	5,966
725,90	7,324
726,09	13,836
726,28	11,090
726,47	7,520
726,66	13,302
726,85	8,709
727,04	7,580
727,23	13,419
727,42	11,024
727,61	5,714
727,81	12,304
728,00	9,239
728,19	11,670
728,38	6,156
728,57	17,191
728,76	12,630
728,95	10,268
729,14	6,455
729,33	18,332
729,52	13,611
729,71	13,548
729,90	9,070
730,09	10,514
730,28	18,360
730,48	10,209
730,67	16,324
730,86	10,697
731,05	13,551
731,24	10,771
731,43	11,950
731,62	16,792
731,81	9,276
732,00	13,469
732,19	12,771
732,38	10,209
732,57	16,485
732,76	19,881
732,95	7,867
733,14	12,744
733,33	13,462
733,52	14,286
733,71	7,280
733,90	25,964
734,09	8,489
734,28	15,310
734,47	11,711
734,66	18,182
734,85	18,723
735,04	15,395
735,23	13,360
735,42	15,850
735,61	20,533
735,81	15,310
736,00	18,223
736,19	19,379
736,38	13,926
736,57	20,752
736,76	10,078
736,95	13,939
737,14	11,854
737,33	17,335
737,52	20,362
737,71	13,141
737,90	21,483
738,09	20,859
738,28	15,789
738,47	19,118
738,66	16,875
738,85	11,684
739,04	24,278
739,22	20,270
739,41	15,161
739,60	10,033
739,79	13,527
739,98	13,249
740,17	14,796
740,36	19,286
740,55	22,928
740,74	15,478
740,93	11,585
741,12	19,485
741,31	13,787
741,50	11,111
741,69	15,000
741,88	11,200
742,07	15,162
742,26	16,667
742,45	16,601
742,64	20,683
742,83	16,383
743,02	21,261
743,21	23,139
743,40	28,791
743,59	20,492
743,78	21,397
743,97	26,880
744,16	11,308
744,34	23,622
744,53	20,902
744,72	30,146
744,91	16,632
745,10	25,370
745,29	23,641
745,48	14,873
745,67	21,589
745,86	11,502
746,05	20,091
746,24	21,569
746,43	26,241
746,62	10,138
746,81	20,091
747,00	21,086
747,18	31,868
747,37	23,028
747,56	18,652
747,75	26,696
747,94	27,790
748,13	24,201
748,32	36,538
748,51	20,090
748,70	23,741
748,89	27,053
749,08	23,429
749,26	29,117
749,45	23,765
749,64	22,084
749,83	20,102
750,02	24,862
750,21	19,355
750,40	30,729
750,59	25,236
750,78	30,769
750,96	21,229
751,15	17,486
751,34	42,932
751,53	25,862
751,72	23,450
751,91	23,562
752,10	25,309
752,29	34,746
752,47	23,876
752,66	32,958
752,85	27,864
753,04	32,492
753,23	31,788
753,42	24,620
753,61	21,895
753,80	28,997
753,98	22,807
754,17	34,049
754,36	38,418
754,55	29,781
754,74	37,283
754,93	30,548
755,12	29,867
755,30	26,039
755,49	33,028
755,68	48,415
755,87	27,628
756,06	24,860
756,25	35,873
756,43	37,241
756,62	32,344
756,81	27,723
757,00	37,391
757,19	38,356
757,38	35,331
757,56	36,452
757,75	31,046
757,94	35,962
758,13	28,896
758,32	49,621
758,51	36,397
758,69	29,200
758,88	36,937
759,07	27,240
759,26	28,372
759,45	43,231
759,63	44,610
759,82	24,916
760,01	23,411
760,20	45,136
760,39	48,507
760,57	42,149
760,76	31,982
760,95	44,444
761,14	34,286
761,33	29,375
761,51	40,143
761,70	54,138
761,89	50,820
762,08	36,744
762,27	36,630
762,45	38,521
762,64	31,502
762,83	38,938
763,02	49,302
763,21	25,000
763,39	53,061
763,58	28,679
763,77	42,085
763,96	60,643
764,14	54,583
764,33	47,619
764,52	60,515
764,71	39,910
764,89	31,863
765,08	40,948
765,27	43,494
765,46	63,587
765,65	51,965
765,83	44,156
766,02	35,319
766,21	38,122
766,40	59,524
766,58	42,683
766,77	49,254
766,96	62,727
767,15	57,005
767,33	19,298
767,52	69,512
767,71	51,304
767,90	36,517
768,08	31,128
768,27	35,000
768,46	48,437
768,64	62,176
768,83	46,354
769,02	64,000
769,21	44,105
769,39	61,047
769,58	50,867
769,77	78,544
769,96	72,775
770,14	59,864
770,33	38,318
770,52	46,561
770,70	68,000
770,89	52,349
771,08	60,593
771,27	70,103
771,45	47,807
771,64	64,583
771,83	64,953
772,01	43,976
772,20	65,327
772,39	55,333
772,57	54,264
772,76	55,556
772,95	35,461
773,14	66,667
773,32	75,484
773,51	63,184
773,70	53,750
773,88	83,060
774,07	38,220
774,26	53,901
774,44	44,512
774,63	63,959
774,82	68,293
775,00	80,000
775,19	62,400
775,38	63,006
775,56	58,333
775,75	68,675
775,94	71,519
776,12	51,381
776,31	87,647
776,50	60,227
776,68	41,579
776,87	64,773
777,06	87,586
777,24	74,444
777,43	79,487
777,62	74,265
777,80	58,784
777,99	52,571
778,18	59,406
778,36	68,800
778,55	51,240
778,74	76,389
778,92	59,172
779,11	103,333
779,29	61,006
779,48	55,782
779,67	77,519
779,85	68,293
780,04	51,351
780,23	71,223
780,41	60,156
780,60	42,105
780,79	68,927
780,97	81,579
781,16	72,121
781,34	104,124
781,53	98,291
781,72	68,613
781,90	46,094
782,09	83,226
782,28	78,102
782,46	65,926
782,65	55,714
782,83	92,135
783,02	76,250
783,21	99,333
783,39	100,870
783,58	75,148
783,76	68,715
783,95	70,303
784,14	70,861
784,32	101,342
784,51	82,759
784,69	96,610
784,88	97,297
785,06	56,303
785,25	87,898
785,44	79,137
785,62	89,286
785,81	138,028
785,99	107,914
786,18	90,541
786,37	77,037
786,55	99,083
786,74	62,500
786,92	108,594
787,11	81,667
787,29	46,269
787,48	66,000
787,67	132,530
787,85	130,172
788,04	77,723
788,22	76,230
788,41	115,294
788,59	123,853
788,78	60,000
788,96	125,472
789,15	84,211
789,34	126,364
789,52	63,717
789,71	100,775
789,89	117,021
790,08	96,575
790,26	75,714
790,45	44,697
790,63	75,926
790,82	102,424
791,00	46,528
791,19	95,699
791,38	110,417
791,56	83,333
791,75	124,771
791,93	55,172
792,12	66,864
792,30	102,400
792,49	84,874
792,67	100,000
792,86	93,023
793,04	112,150
793,23	50,000
793,41	132,911
793,60	129,293
793,78	139,474
793,97	185,897
794,15	129,091
794,34	127,473
794,52	135,065
794,71	119,753
794,89	100,000
795,08	96,117
795,26	87,222
795,45	129,851
795,63	84,848
795,82	98,131
796,00	101,835
796,19	89,167
796,37	106,569
796,56	132,258
796,74	105,310
796,93	119,101
797,11	86,076
797,30	87,500
797,48	70,345
797,67	99,167
797,85	95,918
798,04	110,417
798,22	102,381
798,41	92,157
798,59	148,421
798,77	109,231
798,96	82,796
799,14	81,034
799,33	108,397
799,51	81,538
799,70	95,973
799,88	160,606
800,07	92,763
800,25	69,655
800,44	90,909
800,62	107,059
800,80	155,072
800,99	123,810
801,17	118,966
801,36	87,586
801,54	133,333
801,73	87,879
801,91	83,607
802,10	103,571
802,28	121,495
802,46	74,074
802,65	90,805
802,83	138,202
803,02	147,368
803,20	109,375
803,39	62,069
803,57	139,759
803,75	72,297
803,94	103,361
804,12	72,500
804,31	92,035
804,49	69,231
804,67	94,400
804,86	58,036
805,04	91,216
805,23	86,207
805,41	121,311
805,59	93,443
805,78	87,121
805,96	81,410
806,15	104,687
806,33	115,126
806,51	87,611
806,70	165,000
806,88	78,049
807,07	73,810
807,25	70,440
807,43	84,768
807,62	68,293
807,80	120,430
807,99	85,714
808,17	100,000
808,35	112,281
808,54	124,731
808,72	122,400
808,90	134,211
809,09	96,667
809,27	88,288
809,46	111,607
809,64	59,804
809,82	65,517
810,01	97,727
810,19	101,000
810,37	73,846
810,56	187,805
810,74	70,861
810,92	77,273
811,11	98,039
811,29	106,383
811,48	97,980
811,66	65,891
811,84	100,917
812,03	98,182
812,21	107,692
812,39	89,831
812,58	78,431
812,76	89,720
812,94	93,333
813,13	92,857
813,31	93,333
813,49	127,174
813,68	111,304
813,86	113,265
814,04	117,476
814,23	122,222
814,41	72,059
814,59	82,486
814,78	77,941
814,96	72,973
815,14	138,889
815,33	86,232
815,51	78,519
815,69	116,049
815,87	95,652
816,06	86,875
816,24	75,497
816,42	37,179
816,61	116,949
816,79	156,627
816,97	100,901
817,16	61,290
817,34	83,448
817,52	104,138
817,70	123,016
817,89	51,240
818,07	107,759
818,25	106,306
818,44	81,395
818,62	86,207
818,80	85,315
818,98	89,524
819,17	90,769
819,35	61,765
819,53	101,980
819,72	59,884
819,90	85,030
820,08	64,286
820,26	135,965
820,45	83,735
820,63	67,708
820,81	74,497
820,99	86,466
821,18	56,296
821,36	89,524
821,54	46,512
821,73	75,135
821,91	62,766
822,09	80,588
822,27	48,731
822,46	74,375
822,64	76,821
822,82	57,073
823,00	68,468
823,19	87,879
823,37	54,286
823,55	78,824
823,73	40,667
823,91	43,646
824,10	92,737
824,28	88,148
824,46	77,907
824,64	66,667
824,83	66,667
825,01	75,362
825,19	83,429
825,37	60,938
825,56	52,500
825,74	67,143
825,92	59,551
826,10	83,230
826,28	85,906
826,47	49,593
826,65	77,027
826,83	53,226
827,01	23,485
827,19	63,924
827,38	62,694
827,56	70,673
827,74	59,350
827,92	78,049
828,10	62,500
828,29	66,667
828,47	70,175
828,65	32,432
828,83	82,828
829,01	46,667
829,20	42,405
829,38	51,867
829,56	65,182
829,74	68,939
829,92	54,639
830,10	46,396
830,29	40,000
830,47	54,688
830,65	41,964
830,83	58,286
831,01	40,417
831,20	40,099
831,38	35,610
831,56	65,182
831,74	74,857
831,92	67,614
832,10	83,182
832,29	60,190
832,47	51,327
832,65	72,340
832,83	52,093
833,01	45,850
833,19	52,489
833,37	41,111
833,56	56,808
833,74	56,680
833,92	53,540
834,10	62,944
834,28	41,923
834,46	52,941
834,64	59,375
834,83	47,440
835,01	52,918
835,19	59,242
835,37	43,426
835,55	44,765
835,73	52,574
835,91	38,996
836,09	52,282
836,28	43,130
836,46	36,491
836,64	46,721
836,82	35,448
837,00	55,782
837,18	57,312
837,36	66,845
837,54	32,197
837,72	45,020
837,91	41,365
838,09	39,600
838,27	55,311
838,45	39,806
838,63	37,966
838,81	53,618
838,99	45,645
839,17	55,663
839,35	31,111
839,53	49,664
839,72	14,407
839,90	25,836
840,08	43,910
840,26	45,741
840,44	14,506
840,62	36,027
840,80	33,951
840,98	36,254
841,16	21,352
841,34	31,014
841,52	19,169
841,70	42,088
841,89	44,194
842,07	39,459
842,25	40,260
842,43	40,323
842,61	39,410
842,79	43,902
842,97	38,110
843,15	41,834
843,33	36,105
843,51	34,845
843,69	30,833
843,87	37,736
844,05	28,302
844,23	35,676
844,41	29,146
844,59	37,216
844,77	37,752
844,95	38,592
845,13	38,525
845,31	25,419
845,50	35,825
845,68	26,425
845,86	35,142
846,04	36,790
846,22	32,220
846,40	27,034
846,58	18,767
846,76	23,691
846,94	28,606
847,12	27,251
847,30	27,189
847,48	31,655
847,66	33,659
847,84	19,036
848,02	32,017
848,20	29,581
848,38	34,454
848,56	33,333
848,74	24,380
848,92	22,756
849,10	32,589
849,28	35,294
849,46	24,766
849,64	25,476
849,82	16,106
850,00	14,579
850,18	26,097
850,36	24,123
850,54	33,857
850,72	28,067
850,90	31,873
851,08	23,663
851,26	30,567
851,44	18,474
851,62	23,400
851,80	23,260
851,98	24,897
852,16	34,362
852,34	30,171
852,52	29,821
852,70	13,655
852,87	25,905
853,05	24,449
853,23	18,824
853,41	15,133
853,59	26,981
853,77	27,778
853,95	29,025
854,13	17,087
854,31	26,876
854,49	14,830
854,67	23,496
854,85	15,826
855,03	16,475
855,21	20,643
855,39	21,309
855,57	26,449
855,75	21,079
855,93	19,258
856,11	23,604
856,28	20,312
856,46	12,418
856,64	18,447
856,82	20,070
857,00	17,301
857,18	20,970
857,36	18,319
857,54	19,595
857,72	16,861
857,90	17,463
858,08	15,895
858,26	10,245
858,44	11,025
858,61	17,504
858,79	22,171
858,97	20,201
859,15	14,612
859,33	13,344
859,51	17,572
859,69	12,351
859,87	22,255
860,05	21,060
860,23	13,333
860,40	17,512
860,58	14,368
860,76	20,904
860,94	9,924
861,12	18,130
861,30	15,458
861,48	17,139
861,66	19,316
861,84	17,458
862,01	18,048
862,19	20,325
862,37	13,703
862,55	15,599
862,73	15,897
862,91	14,321
863,09	18,596
863,27	13,510
863,44	15,762
863,62	14,867
863,80	9,642
863,98	14,815
864,16	11,344
864,34	15,325
864,52	14,123
864,69	15,422
864,87	17,282
865,05	13,256
865,23	13,527
865,41	13,826
865,59	16,811
865,76	12,145
865,94	13,048
866,12	16,421
866,30	15,092
866,48	10,973
866,66	21,909
866,83	11,488
867,01	15,808
867,19	15,566
867,37	9,844
867,55	14,380
867,73	13,098
867,90	6,643
868,08	19,063
868,26	12,087
868,44	10,837
868,62	15,465
868,79	10,823
868,97	13,006
869,15	11,677
869,33	8,049
869,51	13,694
869,69	9,489
869,86	10,769
870,04	13,862
870,22	7,076
870,40	9,091
870,57	15,700
870,75	11,686
870,93	12,591
871,11	8,444
871,29	10,467
871,46	9,970
871,64	10,979
871,82	11,610
872,00	14,441
872,18	12,168
872,35	12,923
872,53	11,909
872,71	7,603
872,89	12,975
873,06	12,823
873,24	12,408
873,42	9,498
873,60	6,520
873,77	8,630
873,95	7,267
874,13	11,181
874,31	11,319
874,49	8,457
874,66	6,529
874,84	9,769
875,02	12,612
875,20	10,413
875,37	7,922
875,55	6,943
875,73	7,334
875,91	10,313
876,08	10,032
876,26	9,992
876,44	4,952
876,61	9,924
876,79	10,358
876,97	9,662
877,15	9,924
877,32	9,921
877,50	8,785
877,68	10,729
877,86	9,377
878,03	9,670
878,21	6,785
878,39	5,556
878,56	10,546
878,74	7,592
878,92	8,828
879,10	7,988
879,27	9,639
879,45	9,980
879,63	6,894
879,80	8,906
879,98	6,690
880,16	6,662
880,34	3,984
880,51	9,767
880,69	8,640
880,87	3,436
881,04	8,188
881,22	8,762
881,40	2,720
881,57	7,337
881,75	7,462
881,93	6,788
882,10	9,994
882,28	4,231
882,46	6,365
882,63	7,915
882,81	8,103
882,99	6,854
883,16	8,135
883,34	6,398
883,52	4,765
883,69	8,452
883,87	7,110
884,05	4,846
884,22	5,450
884,40	5,778
884,58	6,983
884,75	4,643
884,93	8,272
885,11	4,679
885,28	6,897
885,46	5,187
885,64	5,864
885,81	7,907
885,99	3,856
886,17	5,917
886,34	7,184
886,52	6,422
886,70	5,311
886,87	7,457
887,05	5,640
887,22	4,511
887,40	6,690
887,58	7,910
887,75	5,633
887,93	8,866
888,11	3,905
888,28	6,259
888,46	2,966
888,63	7,173
888,81	5,852
888,99	2,417
889,16	4,803
889,34	5,324
889,51	6,193
889,69	3,808
889,87	4,887
890,04	4,081
890,22	5,617
890,39	3,052
890,57	6,459
890,75	5,130
890,92	5,350
891,10	5,594
891,27	3,466
891,45	4,167
891,63	3,903
891,80	3,700
891,98	5,438
892,15	4,569
892,33	3,732
892,51	4,867
892,68	2,432
892,86	3,177
893,03	4,691
893,21	6,245
893,38	4,928
893,56	4,912
893,74	5,177
893,91	3,942
894,09	4,050
894,26	5,878
894,44	5,462
894,61	6,026
894,79	4,616
894,96	4,186
895,14	5,219
895,32	5,356
895,49	3,915
895,67	3,503
895,84	4,496
896,02	4,213
896,19	3,037
896,37	4,826
896,54	4,418
896,72	3,500
896,89	4,316
897,07	3,374
897,25	6,081
897,42	3,354
897,60	6,082
897,77	5,248
897,95	4,554
898,12	2,548
898,30	4,077
898,47	4,851
898,65	4,099
898,82	3,706
899,00	4,815
899,17	4,672
899,35	3,503
899,52	3,881
899,70	3,354
899,87	4,569
900,05	6,344
900,22	3,127
900,40	4,086
900,57	3,710
900,75	2,735
900,92	3,220
901,10	3,379
901,27	4,119
901,45	3,766
901,62	3,025
901,80	2,932
901,97	3,409
902,15	5,359
902,32	3,879
902,50	3,842
902,67	3,886
902,85	4,150
903,02	5,496
903,20	4,215
903,37	3,539
903,54	4,897
903,72	2,797
903,89	4,384
904,07	4,304
904,24	3,509
904,42	4,342
904,59	3,135
904,77	2,889
904,94	4,252
905,12	1,451
905,29	3,863
905,47	4,524
905,64	3,074
905,81	2,300
905,99	2,889
906,16	3,475
906,34	3,206
906,51	3,621
906,69	2,701
906,86	3,527
907,03	3,391
907,21	2,169
907,38	2,365
907,56	3,495
907,73	4,645
907,91	3,463
908,08	3,937
908,25	2,103
908,43	3,865
908,60	3,063
908,78	3,812
908,95	4,525
909,13	4,356
909,30	1,945
909,47	3,731
909,65	4,486
909,82	4,028
910,00	2,916
910,17	3,250
910,34	2,482
910,52	3,097
910,69	5,069
910,87	3,747
911,04	3,022
911,21	3,493
911,39	3,345
911,56	4,426
911,73	2,734
911,91	3,913
912,08	3,287
912,26	3,098
912,43	1,943
912,60	3,559
912,78	3,170
912,95	3,565
913,13	2,543
913,30	2,713
913,47	4,199
913,65	1,786
913,82	3,346
913,99	2,942
914,17	3,292
914,34	3,916
914,51	3,830
914,69	3,644
914,86	3,546
915,03	3,399
915,21	3,241
915,38	2,291
915,56	2,926
915,73	3,027
915,90	3,176
916,08	3,051
916,25	2,991
916,42	2,546
916,60	2,525
916,77	2,779
916,94	2,953
917,12	2,915
917,29	3,181
917,46	2,545
917,64	1,953
917,81	2,761
917,98	2,332
918,16	2,565
918,33	3,036
918,50	2,817
918,67	2,382
918,85	3,126
919,02	2,920
919,19	3,769
919,37	2,620
919,54	2,835
919,71	3,174
919,89	2,724
920,06	2,501
920,23	2,586
920,41	2,769
920,58	2,172
920,75	2,362
920,92	2,862
921,10	2,195
921,27	1,416
921,44	3,748
921,62	2,113
921,79	2,996
921,96	2,611
922,13	2,161
922,31	1,583
922,48	3,385
922,65	2,138
922,82	2,615
923,00	3,456
923,17	1,667
923,34	2,420
923,52	2,148
923,69	2,690
923,86	2,317
924,03	2,079
924,21	2,179
924,38	2,892
924,55	3,568
924,72	3,299
924,90	1,600
925,07	2,483
925,24	2,440
925,41	2,057
925,59	2,723
925,76	2,341
925,93	2,658
926,10	2,552
926,28	2,327
926,45	2,042
926,62	2,355
926,79	2,334
926,96	1,951
927,14	2,745
927,31	1,900
927,48	2,648
927,65	2,629
927,83	1,187
928,00	1,995
928,17	1,939
928,34	1,429
928,51	2,411
928,69	1,659
928,86	2,586
929,03	2,889
929,20	2,158
929,37	1,976
929,55	2,208
929,72	2,881
929,89	1,859
930,06	2,349
930,23	1,496
930,41	3,196
930,58	2,788
930,75	2,197
930,92	1,867
931,09	2,293
931,27	1,852
931,44	2,245
931,61	2,456
931,78	2,228
931,95	1,647
932,12	1,549
932,30	2,995
932,47	2,109
932,64	2,686
932,81	2,262
932,98	2,409
933,16	1,624
933,33	2,597
933,50	1,927
933,67	3,362
933,84	1,493
934,01	1,926
934,18	2,159
934,36	2,468
934,53	1,881
934,70	2,015
934,87	1,830
935,04	2,704
935,21	1,883
935,38	2,242
935,56	1,494
935,73	1,454
935,90	0,755
936,07	2,657
936,24	2,784
936,41	2,048
936,58	0,699
936,76	2,764
936,93	1,178
937,10	2,192
937,27	1,722
937,44	1,442
937,61	2,126
937,78	2,017
937,95	1,454
938,13	1,552
938,30	1,944
938,47	2,795
938,64	1,892
938,81	1,760
938,98	1,548
939,15	1,301
939,32	2,128
939,49	2,182
939,66	2,767
939,84	1,932
940,01	1,995
940,18	1,933
940,35	1,609
940,52	1,116
940,69	3,034
940,86	1,897
941,03	2,016
941,20	3,150
941,37	2,785
941,54	0,968
941,71	0,811
941,89	2,630
942,06	2,263
942,23	2,120
942,40	1,981
942,57	2,224
942,74	1,751
942,91	1,240
943,08	2,871
943,25	1,515
943,42	2,270
943,59	2,400
943,76	3,016
943,93	1,575
944,10	2,181
944,27	2,253
944,44	2,229
944,61	1,855
944,79	1,969
944,96	2,781
945,13	2,176
945,30	1,301
945,47	2,116
945,64	2,353
945,81	3,119
945,98	3,257
946,15	2,284
946,32	2,281
946,49	3,073
946,66	1,921
946,83	3,151
947,00	2,246
947,17	2,393
947,34	2,032
947,51	2,211
947,68	3,693
947,85	2,711
948,02	2,831
948,19	3,212
948,36	2,775
948,53	3,005
948,70	4,543
948,87	4,053
949,04	2,298
949,21	1,763
949,38	3,176
949,55	2,726
949,72	3,998
949,89	4,100
950,06	2,325
950,23	3,462
950,40	3,104
950,57	1,999
950,74	6,494
950,91	3,988
951,08	3,932
951,25	3,400
951,42	7,007
951,59	2,492
951,76	2,563
951,93	3,961
952,10	3,813
952,27	4,583
952,44	2,868
952,61	3,953
952,77	4,005
952,94	4,303
953,11	5,133
953,28	3,490
953,45	4,374
953,62	6,458
953,79	6,121
953,96	5,697
954,13	5,484
954,30	6,004
954,47	4,178
954,64	4,258
954,81	6,348
954,98	6,306
955,15	4,919
955,32	4,229
955,49	5,842
955,65	7,669
955,82	7,285
955,99	5,615
956,16	8,541
956,33	5,788
956,50	6,525
956,67	7,423
956,84	6,148
957,01	6,708
957,18	7,652
957,35	6,444
957,52	8,977
957,68	8,667
957,85	9,277
958,02	7,063
958,19	10,009
958,36	11,791
958,53	11,152
958,70	7,964
958,87	7,926
959,04	12,774
959,21	12,626
959,37	10,714
959,54	12,018
959,71	11,230
959,88	9,001
960,05	14,128
960,22	11,834
960,39	14,267
960,56	5,696
960,72	12,547
960,89	19,265
961,06	14,268
961,23	17,031
961,40	20,202
961,57	12,268
961,74	9,335
961,90	15,000
962,07	22,222
962,24	21,138
962,41	12,060
962,58	19,449
962,75	19,292
962,92	24,486
963,08	22,182
963,25	19,459
963,42	22,222
963,59	21,488
963,76	28,764
963,93	20,137
964,10	22,912
964,26	20,833
964,43	32,041
964,60	22,798
964,77	24,819
964,94	23,011
965,10	21,726
965,27	30,026
965,44	34,545
965,61	26,722
965,78	28,435
965,95	32,635
966,11	31,889
966,28	23,792
966,45	33,333
966,62	27,692
966,79	41,633
966,95	44,179
967,12	32,177
967,29	36,806
967,46	37,121
967,63	40,000
967,79	75,676
967,96	43,723
968,13	34,500
968,30	51,210
968,47	55,670
968,63	69,369
968,80	45,413
968,97	44,231
969,14	55,814
969,31	51,111
969,47	62,941
969,64	66,667
969,81	56,995
969,98	70,330
970,14	47,853
970,31	74,843
970,48	40,833
970,65	86,391
970,81	78,767
970,98	69,343
971,15	80,612
971,32	37,500
971,48	93,197
971,65	47,692
971,82	95,098
971,99	108,046
972,15	84,507
972,32	117,117
972,49	67,133
972,66	115,455
972,82	108,140
972,99	105,691
973,16	113,793
973,33	73,214
973,49	85,263
973,66	145,161
973,83	77,670
974,00	140,698
974,16	147,059
974,33	168,421
974,50	77,895
974,67	136,842
974,83	107,143
975,00	111,579
975,17	112,088
975,33	126,966
975,50	167,164
975,67	212,245
975,84	159,701
976,00	116,854
976,17	122,951
976,34	120,000
976,50	187,640
976,67	118,447
976,84	2500,000
977,00	195,918
977,17	275,556
977,34	182,418
977,50	135,821
977,67	300,000
977,84	174,194
978,01	155,319
978,17	788,889
978,34	266,667
978,51	261,765
978,67	177,632
978,84	117,969
979,01	310,811
979,17	166,667
979,34	102,055
979,51	177,551
979,67	171,605
979,84	226,531
980,01	213,333
980,17	223,944
980,34	337,037
980,51	160,870
980,67	149,412
980,84	443,333
981,01	660,000
981,17	576,000
981,34	566,667
981,50	208,824
981,67	201,695
981,84	3500,000
982,00	360,000
982,17	223,810
982,34	193,333
982,50	680,000
982,67	152,083
982,84	2360,000
983,00	1516,667
983,17	141,791
983,33	153,448
983,50	1580,000
983,67	-296,552
983,83	424,242
984,00	-1600,000
984,17	644,444
984,33	-4600,000
984,50	431,429
984,66	328,261
984,83	194,805
985,00	-395,833
985,16	444,828
985,33	664,706
985,49	450,000
985,66	361,765
985,83	382,609
985,99	376,923
986,16	-3425,000
986,32	485,714
986,49	12300,000
986,66	363,636
986,82	841,667
986,99	298,113
987,15	-500,000
987,32	-196,429
987,49	192,000
987,65	6900,000
987,82	408,333
987,98	269,388
988,15	346,667
988,31	1200,000
988,48	-2050,000
988,65	333,333
988,81	372,222
988,98	358,537
989,14	292,857
989,31	652,381
989,47	376,471
989,64	-530,769
989,80	831,250
989,97	348,649
990,14	-230,435
990,30	-531,818
990,47	326,531
990,63	194,444
990,80	294,000
990,96	-445,000
991,13	378,125
991,29	462,069
991,46	0,000
991,62	-892,308
991,79	808,333
991,95	11200,000
992,12	-1420,000
992,29	-618,750
992,45	163,529
992,62	306,977
992,78	259,091
992,95	-420,000
993,11	475,000
993,28	1070,000
993,44	-1190,000
993,61	-712,500
993,77	-3300,000
993,94	-4666,667
994,10	-110,667
994,27	663,158
994,43	290,698
994,60	0,000
994,76	2950,000
994,93	515,000
995,09	-752,941
995,26	1144,444
995,42	270,588
995,59	619,048
995,75	515,385
995,92	2257,143
996,08	330,556
996,25	-1225,000
996,41	-6200,000
996,58	693,333
996,74	343,182
996,91	544,828
997,07	0,000
997,23	12300,000
997,40	-16200,000
997,56	-1169,231
997,73	-1400,000
997,89	465,789
998,06	761,538
998,22	-505,556
998,39	700,000
998,55	1566,667
998,72	-1575,000
998,88	-326,667
999,05	-129,487
999,21	340,476
999,37	-700,000
999,54	-1133,333
999,70	-420,000
999,87	987,500
1000,03	482,051
1000,20	281,250
1000,36	0,000
1000,52	395,833
1000,69	-661,905
1000,85	-800,000
1001,02	-325,000
1001,18	2500,000
1001,35	900,000
1001,51	411,765
1001,67	-830,769
1001,84	-2620,000
1002,00	324,324
1002,17	1390,909
1002,33	-2900,000
1002,50	538,095
1002,66	-861,538
1002,82	262,500
1002,99	914,286
1003,15	-1400,000
1003,32	-909,091
1003,48	182,143
1003,64	1006,667
1003,81	537,037
1003,97	-5900,000
1004,14	1218,182
1004,30	366,667
1004,46	-766,667
1004,63	807,143
1004,79	300,000
1004,95	900,000
1005,12	4550,000
1005,28	655,172
1005,45	408,108
1005,61	441,379
1005,77	-245,833
1005,94	-514,286
1006,10	-5900,000
1006,26	438,462
1006,43	-315,385
1006,59	-936,364
1006,76	650,000
1006,92	1544,444
1007,08	11800,000
1007,25	-337,037
1007,41	410,345
1007,57	3700,000
1007,74	810,000
1007,90	-386,207
1008,06	306,522
1008,23	882,353
1008,39	-662,500
1008,55	-442,308
1008,72	-1442,857
1008,88	0,000
1009,04	385,366
1009,21	-252,632
1009,37	-883,333
1009,53	240,476
1009,70	2833,333
1009,86	-771,429
1010,02	4366,667
1010,19	1336,364
1010,35	247,059
1010,51	-4650,000
1010,68	-1312,500
1010,84	-188,636
1011,00	362,500
1011,17	-390,909
1011,33	0,000
1011,49	-886,667
1011,66	835,714
1011,82	535,484
1011,98	935,714
1012,14	-609,091
1012,31	317,949
1012,47	0,000
1012,63	1750,000
1012,80	657,143
1012,96	-687,500
1013,12	-1900,000
1013,29	444,444
1013,45	421,951
1013,61	4566,667
1013,77	-44,643
1013,94	2260,000
1014,10	191,525
1014,26	-2125,000
1014,43	-460,000
1014,59	610,000
1014,75	-733,333
1014,91	-553,333
1015,08	444,444
1015,24	9200,000
1015,40	394,118
1015,56	-10000,000
1015,73	250,000
1015,89	854,545
1016,05	4125,000
1016,21	-1212,500
1016,38	678,947
1016,54	1292,308
1016,70	-3366,667
1016,86	440,625
1017,03	750,000
1017,19	-892,308
1017,35	-752,941
1017,51	-2360,000
1017,68	-1110,000
1017,84	-1642,857
1018,00	283,333
1018,16	480,769
1018,33	-1485,714
1018,49	-950,000
1018,65	-302,703
1018,81	338,462
1018,97	-1142,857
1019,14	-3100,000
1019,30	-320,513
1019,46	0,000
1019,62	-588,235
1019,79	-3433,333
1019,95	1291,667
1020,11	6550,000
1020,27	-533,333
1020,43	-357,692
1020,60	1833,333
1020,76	816,667
1020,92	700,000
1021,08	620,000
1021,24	1090,000
1021,41	1266,667
1021,57	1225,000
1021,73	1030,769
1021,89	3060,000
1022,05	-271,429
1022,21	755,000
1022,38	-741,667
1022,54	-2366,667
1022,70	297,778
1022,86	-1487,500
1023,02	495,833
1023,19	2160,000
1023,35	5700,000
1023,51	458,333
1023,67	529,630
1023,83	-731,250
1023,99	276,316
1024,16	-323,077
1024,32	-977,778
1024,48	-920,000
1024,64	350,000
1024,80	565,217
1024,96	438,462
1025,12	576,190
1025,29	633,333
1025,45	339,474
1025,61	744,444
1025,77	-2240,000
1025,93	-15600,000
1026,09	-1642,857
1026,26	841,667
1026,42	543,750
1026,58	345,455
1026,74	1300,000
1026,90	344,000
1027,06	357,143
1027,22	1242,857
1027,38	267,308
1027,55	3766,667
1027,71	1433,333
1027,87	-232,000
1028,03	1140,000
1028,19	359,375
1028,35	585,000
1028,51	1520,000
1028,67	808,333
1028,83	-2125,000
1029,00	-285,714
1029,16	1220,000
1029,32	-257,143
1029,48	284,444
1029,64	302,778
1029,80	5050,000
1029,96	853,333
1030,12	552,174
1030,28	-3333,333
1030,44	-530,769
1030,61	-512,500
1030,77	-197,143
1030,93	-753,333
1031,09	1966,667
1031,25	-11900,000
1031,41	-240,000
1031,57	369,231
1031,73	943,750
1031,89	-1354,545
1032,05	-277,778
1032,21	881,818
1032,37	-155,556
1032,53	-771,429
1032,69	-250,000
1032,86	340,741
1033,02	-207,500
1033,18	-587,500
1033,34	484,211
1033,50	-5100,000
1033,66	-236,585
1033,82	460,870
1033,98	-470,370
1034,14	178,205
1034,30	332,258
1034,46	-2600,000
1034,62	550,000
1034,78	-585,714
1034,94	326,316
1035,10	-630,769
1035,26	-232,558
1035,42	-306,897
1035,58	-477,778
1035,74	900,000
1035,90	-900,000
1036,06	-1533,333
1036,22	2000,000
1036,38	-658,824
1036,54	-500,000
1036,70	-200,000
1036,86	10700,000
1037,02	544,444
1037,18	726,316
1037,34	198,095
1037,50	-119,512
1037,66	-605,882
1037,82	2640,000
1037,98	-474,074
1038,14	-392,000
1038,30	-575,000
1038,46	-735,714
1038,62	726,087
1038,78	-3366,667
1038,94	-552,632
1039,10	595,455
1039,26	403,704
1039,42	-816,667
1039,58	1800,000
1039,74	-531,579
1039,90	518,750
1040,06	-296,154
>>>>>End Processed Spectral Data<<<<<
