SpectraSuite Data File
++++++++++++++++++++++++++++++++++++
Date: Wed Feb 01 16:14:03 EET 2017
User: optolab
Dark Spectrum Present: Yes
Reference Spectrum Present: Yes
Number of Sampled Component Spectra: 1
Spectrometers: USB4C02475
Integration Time (usec): 100000 (USB4C02475)
Spectra Averaged: 1 (USB4C02475)
Boxcar Smoothing: 0 (USB4C02475)
Correct for Electrical Dark: No (USB4C02475)
Strobe/Lamp Enabled: No (USB4C02475)
Correct for Detector Non-linearity: No (USB4C02475)
Correct for Stray Light: No (USB4C02475)
Number of Pixels in Processed Spectrum: 3648
>>>>>Begin Processed Spectral Data<<<<<
344,91	4300,000
345,13	4300,000
345,35	4300,000
345,57	0,000
345,79	505,263
346,00	-2033,333
346,22	-1885,714
346,44	329,412
346,66	-425,000
346,87	-14000,000
347,09	481,818
347,31	-545,455
347,53	-328,205
347,74	204,615
347,96	393,939
348,18	794,737
348,40	367,742
348,61	758,824
348,83	390,476
349,05	225,490
349,27	-6750,000
349,48	711,538
349,70	-396,552
349,92	464,516
350,14	313,208
350,35	268,000
350,57	3175,000
350,79	704,000
351,01	-742,857
351,22	283,333
351,44	469,231
351,66	-456,000
351,87	-709,524
352,09	219,231
352,31	188,525
352,53	167,188
352,74	369,444
352,96	300,000
353,18	1105,263
353,40	356,000
353,61	297,778
353,83	391,176
354,05	963,636
354,26	2333,333
354,48	266,000
354,70	469,697
354,92	-337,931
355,13	243,434
355,35	363,636
355,57	462,500
355,78	227,711
356,00	-4400,000
356,22	350,000
356,44	6900,000
356,65	384,091
356,87	492,308
357,09	658,333
357,30	360,000
357,52	296,552
357,74	965,000
357,95	376,923
358,17	272,131
358,39	225,806
358,60	337,838
358,82	504,167
359,04	374,074
359,26	514,286
359,47	5200,000
359,69	387,500
359,91	454,545
360,12	695,238
360,34	633,333
360,56	-127,778
360,77	3325,000
360,99	523,810
361,21	312,000
361,42	6150,000
361,64	277,551
361,86	233,846
362,07	-603,226
362,29	178,667
362,51	-588,235
362,72	544,000
362,94	382,353
363,16	272,093
363,37	-842,857
363,59	492,308
363,81	345,455
364,02	883,333
364,24	683,333
364,46	4133,333
364,67	1027,273
364,89	2285,714
365,11	172,857
365,32	524,138
365,54	372,222
365,76	291,837
365,97	420,588
366,19	251,724
366,41	704,545
366,62	485,185
366,84	309,302
367,05	361,224
367,27	1600,000
367,49	-638,462
367,70	611,765
367,92	204,918
368,14	312,500
368,35	-10900,000
368,57	568,000
368,79	417,241
369,00	339,130
369,22	-1437,500
369,43	216,471
369,65	301,613
369,87	413,514
370,08	177,108
370,30	289,286
370,51	277,049
370,73	275,556
370,95	266,129
371,16	316,667
371,38	290,000
371,60	1687,500
371,81	182,812
372,03	873,333
372,24	473,333
372,46	203,774
372,68	177,143
372,89	375,758
373,11	561,538
373,32	413,636
373,54	-907,692
373,76	800,000
373,97	780,000
374,19	559,091
374,40	264,062
374,62	-3333,333
374,84	4300,000
375,05	421,429
375,27	298,000
375,48	-12200,000
375,70	206,667
375,92	264,286
376,13	450,000
376,35	191,781
376,56	968,750
376,78	254,167
376,99	450,000
377,21	302,083
377,43	225,758
377,64	236,232
377,86	524,138
378,07	338,462
378,29	-1275,000
378,51	548,387
378,72	335,417
378,94	-1422,222
379,15	366,667
379,37	764,706
379,58	272,308
379,80	886,667
380,01	1075,000
380,23	321,569
380,45	1980,000
380,66	3700,000
380,88	252,273
381,09	245,714
381,31	154,444
381,52	254,902
381,74	1377,778
381,95	545,455
382,17	565,385
382,39	547,619
382,60	212,245
382,82	433,333
383,03	332,692
383,25	474,194
383,46	290,909
383,68	437,037
383,89	640,000
384,11	335,484
384,32	-4000,000
384,54	411,111
384,76	-3633,333
384,97	415,152
385,19	551,724
385,40	252,941
385,62	242,105
385,83	361,905
386,05	305,882
386,26	296,000
386,48	197,701
386,69	262,500
386,91	635,000
387,12	264,407
387,34	217,241
387,55	214,516
387,77	359,375
387,98	426,923
388,20	198,913
388,41	364,706
388,63	11600,000
388,84	200,000
389,06	335,714
389,27	742,105
389,49	422,222
389,70	283,673
389,92	333,333
390,13	218,367
390,35	292,157
390,56	277,778
390,78	533,333
390,99	1000,000
391,21	331,579
391,42	375,556
391,64	348,780
391,85	260,345
392,07	290,909
392,28	192,000
392,50	290,909
392,71	-825,000
392,93	219,231
393,14	513,889
393,36	332,653
393,57	127,820
393,79	1300,000
394,00	344,681
394,22	135,616
394,43	206,024
394,65	262,791
394,86	1450,000
395,08	547,619
395,29	215,094
395,50	546,154
395,72	611,111
395,93	719,048
396,15	174,648
396,36	200,000
396,58	266,667
396,79	290,000
397,01	282,000
397,22	355,556
397,44	218,182
397,65	184,211
397,87	335,714
398,08	220,408
398,29	406,250
398,51	228,571
398,72	317,073
398,94	201,538
399,15	362,857
399,37	238,596
399,58	186,813
399,80	500,000
400,01	216,667
400,22	361,905
400,44	285,185
400,65	539,286
400,87	223,529
401,08	231,429
401,30	204,348
401,51	233,333
401,72	303,846
401,94	198,734
402,15	425,000
402,37	128,571
402,58	822,222
402,80	297,143
403,01	246,479
403,22	1400,000
403,44	169,565
403,65	244,643
403,87	178,571
404,08	392,308
404,30	212,941
404,51	-2133,333
404,72	171,429
404,94	157,843
405,15	248,000
405,37	170,886
405,58	209,412
405,79	174,390
406,01	290,244
406,22	182,759
406,44	229,787
406,65	275,439
406,86	202,083
407,08	129,114
407,29	133,010
407,51	165,854
407,72	162,037
407,93	152,174
408,15	79,487
408,36	295,349
408,58	158,763
408,79	99,167
409,00	154,167
409,22	201,587
409,43	131,646
409,64	80,124
409,86	71,069
410,07	86,154
410,29	91,045
410,50	99,291
410,71	113,393
410,93	84,076
411,14	100,000
411,35	91,071
411,57	78,289
411,78	94,531
412,00	78,981
412,21	88,387
412,42	59,788
412,64	65,236
412,85	64,433
413,06	44,512
413,28	47,297
413,49	50,711
413,70	56,159
413,92	74,704
414,13	31,535
414,34	45,594
414,56	31,119
414,77	67,932
414,98	42,953
415,20	42,561
415,41	44,193
415,63	46,269
415,84	38,333
416,05	35,989
416,27	21,447
416,48	30,337
416,69	34,956
416,91	29,189
417,12	28,877
417,33	33,684
417,55	25,352
417,76	34,086
417,97	23,444
418,19	29,821
418,40	18,298
418,61	21,296
418,83	21,273
419,04	15,615
419,25	16,044
419,46	20,301
419,68	18,413
419,89	21,162
420,10	14,014
420,32	13,076
420,53	22,814
420,74	17,535
420,96	18,000
421,17	12,933
421,38	16,104
421,60	14,238
421,81	10,934
422,02	10,240
422,23	12,770
422,45	13,707
422,66	14,405
422,87	14,385
423,09	13,900
423,30	13,273
423,51	8,346
423,73	11,853
423,94	10,084
424,15	10,408
424,36	7,173
424,58	9,438
424,79	9,869
425,00	5,573
425,22	7,108
425,43	7,405
425,64	8,817
425,85	6,039
426,07	10,575
426,28	7,051
426,49	9,719
426,71	6,551
426,92	4,381
427,13	6,110
427,34	3,553
427,56	5,210
427,77	4,720
427,98	7,027
428,19	5,146
428,41	6,026
428,62	5,691
428,83	4,407
429,04	5,835
429,26	5,292
429,47	5,355
429,68	3,217
429,89	3,598
430,11	4,385
430,32	4,260
430,53	4,726
430,74	4,083
430,96	3,522
431,17	4,462
431,38	3,660
431,59	3,397
431,81	4,190
432,02	3,411
432,23	3,119
432,44	4,348
432,66	3,741
432,87	2,932
433,08	3,960
433,29	3,613
433,51	2,745
433,72	3,235
433,93	2,390
434,14	3,899
434,35	2,488
434,57	2,035
434,78	2,214
434,99	2,489
435,20	2,801
435,42	2,303
435,63	2,240
435,84	2,878
436,05	2,858
436,26	1,984
436,48	2,423
436,69	2,034
436,90	2,533
437,11	2,392
437,32	2,619
437,54	2,395
437,75	2,378
437,96	3,019
438,17	2,222
438,38	3,574
438,60	3,669
438,81	4,386
439,02	5,756
439,23	6,711
439,44	8,928
439,66	11,349
439,87	14,483
440,08	16,786
440,29	19,756
440,50	24,218
440,72	27,381
440,93	31,059
441,14	34,530
441,35	38,199
441,56	39,131
441,77	41,606
441,99	42,718
442,20	44,163
442,41	45,021
442,62	46,080
442,83	45,675
443,04	46,112
443,26	46,600
443,47	46,314
443,68	46,992
443,89	47,344
444,10	48,730
444,31	52,661
444,53	55,965
444,74	59,492
444,95	65,698
445,16	72,233
445,37	76,491
445,58	82,355
445,80	86,148
446,01	88,529
446,22	90,600
446,43	90,890
446,64	90,634
446,85	91,028
447,06	90,042
447,28	89,301
447,49	89,200
447,70	89,012
447,91	89,113
448,12	88,180
448,33	89,324
448,54	89,806
448,76	90,332
448,97	90,463
449,18	91,280
449,39	90,234
449,60	91,424
449,81	92,367
450,02	94,870
450,23	94,104
450,45	94,577
450,66	95,574
450,87	95,992
451,08	95,794
451,29	97,211
451,50	96,995
451,71	97,018
451,92	96,687
452,13	97,154
452,35	96,459
452,56	95,941
452,77	96,320
452,98	94,909
453,19	95,973
453,40	93,184
453,61	94,654
453,82	93,478
454,03	92,889
454,25	95,167
454,46	94,064
454,67	93,685
454,88	94,551
455,09	94,824
455,30	95,746
455,51	96,422
455,72	95,431
455,93	95,473
456,14	94,820
456,35	96,661
456,56	94,640
456,78	94,558
456,99	93,548
457,20	94,116
457,41	91,451
457,62	92,938
457,83	91,068
458,04	91,978
458,25	92,309
458,46	92,838
458,67	91,216
458,88	93,622
459,09	93,000
459,30	93,098
459,51	93,087
459,73	94,406
459,94	94,469
460,15	92,676
460,36	92,731
460,57	92,824
460,78	91,633
460,99	91,506
461,20	91,228
461,41	90,148
461,62	90,839
461,83	91,349
462,04	90,284
462,25	91,397
462,46	90,425
462,67	91,529
462,88	91,255
463,09	91,636
463,30	92,552
463,51	93,493
463,72	92,412
463,93	92,895
464,15	92,911
464,36	92,925
464,57	93,118
464,78	92,118
464,99	91,532
465,20	91,797
465,41	91,213
465,62	90,245
465,83	90,766
466,04	91,195
466,25	90,869
466,46	91,826
466,67	91,463
466,88	92,117
467,09	91,905
467,30	92,272
467,51	92,302
467,72	91,432
467,93	91,376
468,14	90,068
468,35	90,266
468,56	88,593
468,77	88,698
468,98	87,060
469,19	84,980
469,40	83,577
469,61	81,077
469,82	76,830
470,03	75,539
470,24	70,854
470,45	66,705
470,66	63,434
470,87	59,407
471,08	54,798
471,29	50,435
471,50	46,028
471,71	40,609
471,92	35,414
472,13	31,048
472,34	26,665
472,55	21,909
472,76	17,745
472,97	14,029
473,18	11,051
473,39	8,627
473,60	6,351
473,81	4,947
474,01	3,674
474,22	2,700
474,43	2,245
474,64	1,765
474,85	1,248
475,06	1,064
475,27	1,088
475,48	0,902
475,69	0,880
475,90	0,875
476,11	1,004
476,32	0,906
476,53	0,903
476,74	0,984
476,95	0,894
477,16	0,615
477,37	0,729
477,58	0,719
477,79	1,103
478,00	1,021
478,21	0,736
478,41	0,810
478,62	0,719
478,83	0,838
479,04	0,981
479,25	0,727
479,46	0,773
479,67	0,895
479,88	0,926
480,09	0,714
480,30	0,903
480,51	1,053
480,72	0,844
480,93	0,893
481,14	0,820
481,34	0,836
481,55	0,536
481,76	0,753
481,97	0,739
482,18	0,600
482,39	0,864
482,60	0,825
482,81	0,771
483,02	0,491
483,23	0,802
483,44	0,838
483,65	0,831
483,85	0,640
484,06	0,833
484,27	0,672
484,48	0,702
484,69	0,931
484,90	0,750
485,11	0,693
485,32	0,713
485,53	0,607
485,73	0,704
485,94	0,510
486,15	0,802
486,36	0,603
486,57	0,661
486,78	0,866
486,99	0,796
487,20	0,707
487,41	0,749
487,61	0,597
487,82	0,738
488,03	0,610
488,24	0,641
488,45	0,620
488,66	0,890
488,87	0,564
489,08	0,833
489,28	0,744
489,49	0,799
489,70	0,685
489,91	0,723
490,12	0,656
490,33	0,707
490,54	0,590
490,74	0,832
490,95	0,722
491,16	0,692
491,37	0,717
491,58	0,604
491,79	0,544
492,00	0,620
492,20	0,641
492,41	0,602
492,62	0,607
492,83	0,695
493,04	0,658
493,25	0,719
493,45	0,634
493,66	0,676
493,87	0,706
494,08	0,643
494,29	0,462
494,50	0,538
494,70	0,869
494,91	0,577
495,12	0,682
495,33	0,676
495,54	0,741
495,75	0,824
495,95	0,588
496,16	0,788
496,37	0,636
496,58	0,775
496,79	0,636
496,99	0,586
497,20	0,424
497,41	0,692
497,62	0,752
497,83	0,906
498,04	0,744
498,24	0,817
498,45	0,759
498,66	0,928
498,87	0,746
499,08	0,513
499,28	0,812
499,49	0,594
499,70	0,694
499,91	0,646
500,12	0,822
500,32	0,711
500,53	0,616
500,74	0,730
500,95	0,680
501,15	0,624
501,36	0,883
501,57	0,691
501,78	0,728
501,99	0,903
502,19	0,638
502,40	0,724
502,61	0,751
502,82	0,751
503,02	0,604
503,23	0,812
503,44	0,835
503,65	0,792
503,86	0,636
504,06	0,744
504,27	0,823
504,48	0,822
504,69	0,826
504,89	0,671
505,10	0,833
505,31	0,874
505,52	0,797
505,72	0,708
505,93	0,762
506,14	0,854
506,35	0,651
506,55	0,822
506,76	0,783
506,97	0,783
507,18	0,797
507,38	0,748
507,59	0,793
507,80	0,749
508,01	0,749
508,21	0,811
508,42	0,887
508,63	0,821
508,84	0,821
509,04	0,764
509,25	0,663
509,46	0,810
509,67	0,774
509,87	0,916
510,08	0,838
510,29	0,890
510,49	1,028
510,70	0,850
510,91	1,049
511,12	1,053
511,32	1,120
511,53	1,124
511,74	1,164
511,94	1,096
512,15	1,105
512,36	1,107
512,57	1,178
512,77	1,482
512,98	1,561
513,19	1,573
513,39	2,123
513,60	2,679
513,81	3,506
514,01	4,617
514,22	6,315
514,43	8,189
514,64	10,635
514,84	13,522
515,05	17,555
515,26	21,996
515,46	27,810
515,67	33,936
515,88	39,472
516,08	46,874
516,29	54,243
516,50	60,522
516,70	66,027
516,91	72,151
517,12	76,702
517,32	81,007
517,53	83,660
517,74	85,265
517,95	87,149
518,15	87,596
518,36	88,912
518,57	88,113
518,77	89,875
518,98	91,481
519,19	92,133
519,39	93,456
519,60	93,578
519,80	94,860
520,01	95,485
520,22	97,255
520,42	96,834
520,63	97,446
520,84	97,458
521,04	98,483
521,25	97,735
521,46	97,457
521,66	97,383
521,87	96,905
522,08	97,062
522,28	96,603
522,49	96,404
522,70	95,721
522,90	96,047
523,11	96,260
523,31	95,581
523,52	95,670
523,73	95,972
523,93	95,191
524,14	95,345
524,35	95,135
524,55	94,451
524,76	94,879
524,97	94,677
525,17	95,250
525,38	94,713
525,58	94,498
525,79	95,147
526,00	96,377
526,20	95,380
526,41	95,943
526,61	97,058
526,82	96,315
527,03	97,427
527,23	97,059
527,44	97,438
527,64	97,238
527,85	98,242
528,06	97,816
528,26	97,856
528,47	98,288
528,68	97,907
528,88	97,805
529,09	97,749
529,29	97,597
529,50	99,012
529,70	99,171
529,91	97,397
530,12	97,844
530,32	96,646
530,53	97,020
530,73	96,966
530,94	97,844
531,15	97,179
531,35	96,793
531,56	98,425
531,76	97,010
531,97	97,781
532,17	98,237
532,38	96,889
532,59	97,503
532,79	97,199
533,00	96,986
533,20	98,090
533,41	97,868
533,61	97,481
533,82	97,439
534,03	95,601
534,23	96,632
534,44	97,241
534,64	95,283
534,85	94,712
535,05	93,948
535,26	93,819
535,46	92,433
535,67	92,715
535,88	93,239
536,08	92,539
536,29	92,781
536,49	91,919
536,70	92,615
536,90	92,763
537,11	92,878
537,31	94,219
537,52	94,614
537,72	94,868
537,93	94,983
538,13	94,016
538,34	96,257
538,55	96,533
538,75	96,834
538,96	97,772
539,16	97,681
539,37	97,085
539,57	97,540
539,78	97,637
539,98	98,286
540,19	98,819
540,39	98,091
540,60	98,823
540,80	98,811
541,01	98,825
541,21	99,381
541,42	98,222
541,62	98,486
541,83	98,600
542,03	99,035
542,24	99,046
542,44	98,428
542,65	98,321
542,85	98,829
543,06	97,533
543,26	97,790
543,47	99,047
543,67	97,748
543,88	97,902
544,08	98,234
544,29	97,601
544,49	97,561
544,70	96,479
544,90	96,659
545,11	97,111
545,31	95,447
545,52	94,677
545,72	94,747
545,93	92,319
546,13	92,029
546,34	91,626
546,54	89,639
546,75	90,028
546,95	89,138
547,15	88,523
547,36	87,237
547,56	84,448
547,77	82,263
547,97	80,409
548,18	77,596
548,38	73,893
548,59	70,162
548,79	65,751
549,00	60,534
549,20	56,008
549,41	50,340
549,61	44,038
549,81	38,898
550,02	33,253
550,22	27,817
550,43	23,124
550,63	18,703
550,84	14,774
551,04	11,438
551,25	8,780
551,45	6,409
551,65	4,807
551,86	3,572
552,06	2,772
552,27	2,005
552,47	1,831
552,68	1,369
552,88	1,102
553,08	0,973
553,29	1,025
553,49	0,947
553,70	0,877
553,90	0,773
554,11	0,787
554,31	0,680
554,51	0,880
554,72	0,758
554,92	0,798
555,13	0,805
555,33	0,908
555,53	0,835
555,74	0,636
555,94	0,942
556,15	0,707
556,35	0,534
556,56	0,619
556,76	0,641
556,96	0,635
557,17	0,668
557,37	0,704
557,58	0,663
557,78	0,528
557,98	0,563
558,19	0,558
558,39	0,663
558,59	0,814
558,80	0,785
559,00	0,634
559,21	0,438
559,41	0,555
559,61	0,563
559,82	0,690
560,02	0,616
560,23	0,803
560,43	0,634
560,63	0,644
560,84	0,437
561,04	0,582
561,24	0,493
561,45	0,597
561,65	0,614
561,85	0,814
562,06	0,650
562,26	0,549
562,47	0,601
562,67	0,603
562,87	0,579
563,08	0,532
563,28	0,612
563,48	0,621
563,69	0,545
563,89	0,693
564,09	0,553
564,30	0,647
564,50	0,611
564,70	0,687
564,91	0,698
565,11	0,542
565,31	0,580
565,52	0,699
565,72	0,639
565,92	0,765
566,13	0,382
566,33	0,517
566,53	0,611
566,74	0,519
566,94	0,611
567,14	0,425
567,35	0,418
567,55	0,658
567,75	0,533
567,96	0,634
568,16	0,532
568,36	0,596
568,57	0,598
568,77	0,353
568,97	0,650
569,18	0,677
569,38	0,584
569,58	0,584
569,79	0,559
569,99	0,767
570,19	0,575
570,39	0,494
570,60	0,525
570,80	0,522
571,00	0,604
571,21	0,416
571,41	0,522
571,61	0,520
571,82	0,442
572,02	0,452
572,22	0,655
572,42	0,531
572,63	0,755
572,83	0,514
573,03	0,463
573,24	0,652
573,44	0,610
573,64	0,723
573,84	0,700
574,05	0,465
574,25	0,716
574,45	0,503
574,66	0,582
574,86	0,529
575,06	0,473
575,26	0,403
575,47	0,489
575,67	0,730
575,87	0,521
576,07	0,488
576,28	0,573
576,48	0,627
576,68	0,544
576,88	0,387
577,09	0,534
577,29	0,412
577,49	0,569
577,69	0,517
577,90	0,562
578,10	0,414
578,30	0,385
578,50	0,609
578,71	0,769
578,91	0,358
579,11	0,574
579,31	0,444
579,52	0,451
579,72	0,599
579,92	0,643
580,12	0,521
580,33	0,548
580,53	0,547
580,73	0,544
580,93	0,571
581,13	0,431
581,34	0,729
581,54	0,528
581,74	0,546
581,94	0,811
582,15	0,473
582,35	0,443
582,55	0,634
582,75	0,688
582,95	0,675
583,16	0,420
583,36	0,693
583,56	0,386
583,76	0,534
583,96	0,681
584,17	0,613
584,37	0,637
584,57	0,608
584,77	0,653
584,97	0,592
585,18	0,680
585,38	0,577
585,58	0,625
585,78	0,508
585,98	0,541
586,19	0,564
586,39	0,739
586,59	0,588
586,79	0,530
586,99	0,579
587,20	0,574
587,40	0,600
587,60	0,496
587,80	0,692
588,00	0,620
588,20	0,398
588,41	0,719
588,61	0,568
588,81	0,499
589,01	0,557
589,21	0,694
589,41	0,629
589,62	0,648
589,82	0,365
590,02	0,331
590,22	0,681
590,42	0,509
590,62	0,494
590,83	0,587
591,03	0,577
591,23	0,378
591,43	0,750
591,63	0,649
591,83	0,598
592,03	0,598
592,24	0,757
592,44	0,620
592,64	0,577
592,84	0,651
593,04	0,725
593,24	0,632
593,44	0,687
593,65	0,676
593,85	0,653
594,05	0,553
594,25	0,796
594,45	0,657
594,65	0,611
594,85	0,612
595,06	0,723
595,26	0,782
595,46	0,579
595,66	0,557
595,86	0,764
596,06	0,670
596,26	0,552
596,46	0,699
596,66	0,741
596,87	0,704
597,07	0,735
597,27	0,734
597,47	0,552
597,67	0,881
597,87	0,741
598,07	0,778
598,27	0,911
598,47	0,828
598,67	1,035
598,88	0,832
599,08	1,140
599,28	0,986
599,48	1,311
599,68	1,530
599,88	1,671
600,08	2,189
600,28	2,600
600,48	3,207
600,68	3,937
600,88	4,851
601,09	5,883
601,29	7,402
601,49	9,379
601,69	11,035
601,89	13,287
602,09	16,331
602,29	18,975
602,49	22,919
602,69	25,618
602,89	29,728
603,09	33,904
603,29	37,248
603,49	41,591
603,69	45,747
603,90	50,161
604,10	54,845
604,30	58,825
604,50	63,615
604,70	67,554
604,90	73,255
605,10	77,526
605,30	81,723
605,50	84,810
605,70	88,151
605,90	91,164
606,10	92,223
606,30	93,669
606,50	96,238
606,70	95,852
606,90	96,435
607,10	96,732
607,30	98,091
607,50	96,715
607,70	97,638
607,90	96,648
608,10	97,215
608,30	96,896
608,50	97,328
608,70	97,022
608,90	98,128
609,11	97,539
609,31	96,958
609,51	97,642
609,71	97,299
609,91	97,891
610,11	96,705
610,31	97,701
610,51	97,385
610,71	98,547
610,91	98,135
611,11	98,405
611,31	98,779
611,51	98,177
611,71	99,078
611,91	98,925
612,11	99,162
612,31	98,718
612,51	97,706
612,71	97,699
612,91	97,449
613,11	96,755
613,31	97,421
613,51	97,061
613,71	96,817
613,91	96,813
614,11	97,232
614,31	95,852
614,50	97,457
614,70	96,711
614,90	98,185
615,10	97,563
615,30	97,205
615,50	96,534
615,70	97,171
615,90	98,232
616,10	96,790
616,30	97,807
616,50	97,361
616,70	96,444
616,90	99,064
617,10	97,813
617,30	97,922
617,50	98,589
617,70	99,248
617,90	98,688
618,10	97,618
618,30	98,309
618,50	97,742
618,70	98,345
618,90	99,157
619,10	98,415
619,30	97,790
619,49	98,666
619,69	97,994
619,89	97,659
620,09	97,610
620,29	98,902
620,49	98,086
620,69	98,295
620,89	97,761
621,09	97,387
621,29	97,475
621,49	96,957
621,69	96,900
621,89	96,715
622,09	96,219
622,29	96,717
622,48	97,581
622,68	96,078
622,88	95,382
623,08	95,208
623,28	96,278
623,48	95,714
623,68	97,180
623,88	95,178
624,08	96,257
624,28	96,803
624,48	96,560
624,67	95,440
624,87	95,599
625,07	95,587
625,27	95,604
625,47	96,946
625,67	97,519
625,87	96,293
626,07	96,130
626,27	96,121
626,47	97,045
626,66	96,566
626,86	97,043
627,06	97,952
627,26	96,697
627,46	97,272
627,66	97,752
627,86	97,093
628,06	97,116
628,25	97,519
628,45	97,570
628,65	97,539
628,85	97,109
629,05	98,056
629,25	97,073
629,45	97,597
629,65	98,670
629,84	98,206
630,04	98,326
630,24	100,134
630,44	98,731
630,64	100,519
630,84	100,424
631,04	100,306
631,23	100,700
631,43	101,863
631,63	100,105
631,83	101,911
632,03	100,836
632,23	101,483
632,42	101,889
632,62	101,675
632,82	102,517
633,02	101,467
633,22	102,786
633,42	102,158
633,62	102,150
633,81	103,696
634,01	101,533
634,21	100,316
634,41	101,256
634,61	99,515
634,80	99,911
635,00	100,667
635,20	101,257
635,40	99,279
635,60	99,437
635,80	100,520
635,99	99,707
636,19	99,590
636,39	99,883
636,59	99,266
636,79	99,917
636,98	98,475
637,18	99,025
637,38	99,434
637,58	99,516
637,78	99,546
637,97	101,087
638,17	101,167
638,37	100,561
638,57	99,383
638,77	100,707
638,96	100,350
639,16	99,308
639,36	100,186
639,56	99,765
639,76	100,006
639,95	100,954
640,15	99,514
640,35	99,375
640,55	99,025
640,75	99,056
640,94	98,805
641,14	98,093
641,34	97,439
641,54	98,581
641,73	98,291
641,93	97,837
642,13	98,170
642,33	99,287
642,53	96,802
642,72	96,891
642,92	96,290
643,12	97,138
643,32	97,347
643,51	98,737
643,71	98,110
643,91	98,747
644,11	97,509
644,30	96,294
644,50	96,997
644,70	98,777
644,90	97,302
645,09	97,512
645,29	97,094
645,49	97,905
645,69	95,617
645,88	95,822
646,08	95,504
646,28	95,990
646,48	93,337
646,67	92,592
646,87	91,192
647,07	90,991
647,26	88,643
647,46	87,485
647,66	86,366
647,86	84,223
648,05	81,711
648,25	79,369
648,45	79,007
648,65	75,422
648,84	74,144
649,04	73,031
649,24	71,019
649,43	67,631
649,63	65,971
649,83	63,788
650,03	62,943
650,22	61,026
650,42	59,048
650,62	57,877
650,81	56,491
651,01	54,967
651,21	52,072
651,40	51,378
651,60	50,040
651,80	48,813
652,00	46,763
652,19	45,448
652,39	44,360
652,59	42,037
652,78	40,920
652,98	38,636
653,18	36,024
653,37	34,146
653,57	31,246
653,77	28,601
653,96	26,181
654,16	24,349
654,36	21,760
654,55	19,324
654,75	17,035
654,95	15,703
655,14	12,699
655,34	12,298
655,54	10,073
655,73	9,081
655,93	8,491
656,13	6,576
656,32	5,852
656,52	5,329
656,72	4,917
656,91	4,976
657,11	3,860
657,31	3,407
657,50	2,870
657,70	2,883
657,90	2,514
658,09	2,234
658,29	2,563
658,49	1,894
658,68	2,174
658,88	1,886
659,07	1,750
659,27	1,670
659,47	1,876
659,66	1,097
659,86	1,805
660,06	1,047
660,25	1,314
660,45	1,400
660,64	1,091
660,84	1,154
661,04	1,364
661,23	1,286
661,43	1,277
661,63	1,071
661,82	0,752
662,02	1,307
662,21	1,144
662,41	0,852
662,61	1,291
662,80	1,075
663,00	0,970
663,19	1,475
663,39	1,081
663,59	1,393
663,78	1,147
663,98	1,090
664,17	0,999
664,37	1,190
664,57	0,878
664,76	1,147
664,96	1,221
665,15	0,559
665,35	0,930
665,55	0,829
665,74	1,111
665,94	0,888
666,13	1,351
666,33	0,879
666,53	1,149
666,72	0,784
666,92	1,056
667,11	1,390
667,31	0,650
667,50	1,007
667,70	0,872
667,90	0,895
668,09	0,845
668,29	1,019
668,48	0,957
668,68	0,709
668,87	1,028
669,07	1,146
669,26	1,056
669,46	0,852
669,66	1,031
669,85	0,857
670,05	0,903
670,24	0,696
670,44	0,931
670,63	0,982
670,83	0,860
671,02	1,168
671,22	1,310
671,42	0,587
671,61	0,729
671,81	0,724
672,00	1,196
672,20	0,990
672,39	0,774
672,59	0,710
672,78	1,058
672,98	0,636
673,17	0,564
673,37	0,942
673,56	0,684
673,76	0,891
673,95	0,853
674,15	0,462
674,34	0,744
674,54	0,770
674,73	0,746
674,93	0,750
675,13	0,678
675,32	0,945
675,52	1,150
675,71	0,702
675,91	0,390
676,10	0,744
676,30	0,748
676,49	0,679
676,69	0,841
676,88	0,866
677,08	0,661
677,27	0,596
677,47	0,577
677,66	0,935
677,86	0,993
678,05	0,871
678,24	0,546
678,44	0,867
678,63	0,775
678,83	0,517
679,02	0,708
679,22	0,467
679,41	0,521
679,61	0,529
679,80	0,610
680,00	0,487
680,19	0,766
680,39	0,831
680,58	0,454
680,78	0,528
680,97	0,641
681,17	0,593
681,36	0,508
681,56	0,614
681,75	0,670
681,94	0,589
682,14	0,593
682,33	0,624
682,53	0,709
682,72	0,550
682,92	0,772
683,11	0,548
683,31	0,405
683,50	0,673
683,69	0,702
683,89	0,353
684,08	0,459
684,28	0,319
684,47	0,579
684,67	0,303
684,86	0,166
685,06	0,516
685,25	0,314
685,44	0,425
685,64	0,491
685,83	0,511
686,03	0,408
686,22	0,355
686,42	0,220
686,61	0,513
686,80	0,441
687,00	0,569
687,19	0,540
687,39	0,369
687,58	0,341
687,77	0,364
687,97	0,475
688,16	0,202
688,36	0,463
688,55	0,291
688,74	0,527
688,94	0,466
689,13	0,705
689,33	0,397
689,52	0,552
689,71	0,544
689,91	0,506
690,10	0,247
690,30	0,381
690,49	0,407
690,68	0,477
690,88	0,507
691,07	0,298
691,27	0,463
691,46	0,381
691,65	0,492
691,85	0,306
692,04	0,319
692,23	0,200
692,43	0,363
692,62	0,428
692,82	0,502
693,01	0,482
693,20	0,515
693,40	0,336
693,59	0,348
693,78	0,606
693,98	0,368
694,17	0,274
694,36	0,604
694,56	0,617
694,75	0,234
694,94	0,460
695,14	0,638
695,33	0,436
695,53	0,494
695,72	0,638
695,91	0,368
696,11	0,436
696,30	0,450
696,49	0,461
696,69	0,421
696,88	0,462
697,07	0,355
697,27	0,513
697,46	0,515
697,65	0,418
697,85	0,379
698,04	0,659
698,23	0,785
698,43	0,799
698,62	0,533
698,81	0,316
699,01	0,929
699,20	0,541
699,39	0,700
699,58	0,972
699,78	0,738
699,97	0,961
700,16	0,870
700,36	0,895
700,55	1,077
700,74	0,608
700,94	1,043
701,13	1,043
701,32	1,264
701,52	1,400
701,71	0,708
701,90	1,001
702,09	1,036
702,29	1,440
702,48	1,568
702,67	0,982
702,87	1,009
703,06	1,753
703,25	1,371
703,44	1,500
703,64	1,693
703,83	1,691
704,02	1,797
704,22	1,235
704,41	1,785
704,60	2,272
704,79	1,036
704,99	1,569
705,18	1,912
705,37	1,972
705,56	2,479
705,76	2,271
705,95	2,197
706,14	1,666
706,33	2,028
706,53	2,422
706,72	1,884
706,91	2,930
707,11	3,055
707,30	3,100
707,49	3,523
707,68	1,661
707,88	2,712
708,07	1,964
708,26	3,139
708,45	3,126
708,64	3,163
708,84	3,903
709,03	2,420
709,22	2,437
709,41	3,432
709,61	4,219
709,80	3,531
709,99	3,885
710,18	3,345
710,38	3,916
710,57	2,642
710,76	2,748
710,95	3,164
711,14	5,023
711,34	3,763
711,53	3,477
711,72	3,784
711,91	4,623
712,11	4,447
712,30	4,396
712,49	4,192
712,68	6,180
712,87	3,981
713,07	5,959
713,26	3,734
713,45	4,842
713,64	3,474
713,83	4,157
714,03	7,199
714,22	5,338
714,41	4,081
714,60	7,254
714,79	4,081
714,99	4,970
715,18	3,540
715,37	6,228
715,56	6,204
715,75	4,289
715,94	6,315
716,14	5,839
716,33	6,088
716,52	4,345
716,71	6,034
716,90	6,629
717,10	6,310
717,29	4,286
717,48	7,201
717,67	5,552
717,86	3,337
718,05	1,799
718,24	7,250
718,44	7,513
718,63	6,051
718,82	6,549
719,01	4,616
719,20	4,137
719,39	4,552
719,59	5,739
719,78	4,804
719,97	8,368
720,16	7,402
720,35	5,056
720,54	6,700
720,73	3,503
720,93	7,599
721,12	3,838
721,31	6,681
721,50	6,751
721,69	8,545
721,88	8,296
722,07	5,505
722,27	6,992
722,46	5,650
722,65	6,460
722,84	7,692
723,03	5,993
723,22	9,252
723,41	7,751
723,60	12,281
723,79	10,182
723,99	5,756
724,18	11,549
724,37	11,431
724,56	11,864
724,75	11,586
724,94	10,288
725,13	13,927
725,32	7,605
725,51	8,612
725,71	8,049
725,90	8,451
726,09	15,454
726,28	9,972
726,47	10,156
726,66	9,581
726,85	6,557
727,04	7,788
727,23	10,537
727,42	13,171
727,61	6,032
727,81	12,304
728,00	12,792
728,19	10,526
728,38	9,611
728,57	12,474
728,76	17,850
728,95	11,607
729,14	5,889
729,33	14,380
729,52	15,186
729,71	18,255
729,90	7,577
730,09	11,916
730,28	15,820
730,48	12,297
730,67	13,906
730,86	10,572
731,05	11,449
731,24	14,933
731,43	12,201
731,62	17,293
731,81	10,292
732,00	13,977
732,19	10,089
732,38	5,759
732,57	8,174
732,76	10,476
732,95	12,667
733,14	7,802
733,33	12,912
733,52	13,801
733,71	7,152
733,90	18,252
734,09	5,993
734,28	13,379
734,47	8,158
734,66	12,890
734,85	14,894
735,04	11,308
735,23	21,296
735,42	17,291
735,61	17,067
735,81	14,345
736,00	18,524
736,19	17,899
736,38	12,000
736,57	22,841
736,76	11,473
736,95	15,758
737,14	17,933
737,33	17,175
737,52	17,496
737,71	12,821
737,90	15,431
738,09	14,571
738,28	13,397
738,47	13,399
738,66	15,469
738,85	18,385
739,04	21,222
739,22	19,088
739,41	15,645
739,60	14,047
739,79	19,349
739,98	9,074
740,17	17,857
740,36	25,000
740,55	19,048
740,74	17,739
740,93	17,480
741,12	18,015
741,31	15,625
741,50	17,326
741,69	19,444
741,88	8,000
742,07	22,022
742,26	7,303
742,45	11,462
742,64	31,295
742,83	13,830
743,02	16,577
743,21	24,145
743,40	21,881
743,59	17,828
743,78	18,341
743,97	22,368
744,16	19,956
744,34	19,882
744,53	20,902
744,72	24,948
744,91	13,263
745,10	26,850
745,29	18,203
745,48	14,873
745,67	24,644
745,86	16,667
746,05	17,580
746,24	22,658
746,43	25,768
746,62	15,899
746,81	25,114
747,00	19,415
747,18	35,824
747,37	18,550
747,56	24,719
747,75	21,225
747,94	37,856
748,13	19,178
748,32	33,974
748,51	28,668
748,70	33,094
748,89	26,087
749,08	9,143
749,26	24,344
749,45	30,353
749,64	24,566
749,83	19,847
750,02	33,978
750,21	28,446
750,40	30,729
750,59	30,425
750,78	32,544
750,96	28,492
751,15	25,137
751,34	31,937
751,53	36,453
751,72	27,493
751,91	17,534
752,10	32,099
752,29	25,706
752,47	27,528
752,66	38,310
752,85	22,601
753,04	37,539
753,23	19,205
753,42	40,729
753,61	25,163
753,80	32,791
753,98	34,386
754,17	29,448
754,36	24,859
754,55	14,734
754,74	39,017
754,93	24,207
755,12	32,533
755,30	25,208
755,49	30,581
755,68	27,666
755,87	28,228
756,06	28,492
756,25	30,794
756,43	37,241
756,62	37,685
756,81	25,743
757,00	30,435
757,19	39,726
757,38	32,492
757,56	43,548
757,75	39,869
757,94	35,647
758,13	34,740
758,32	36,364
758,51	37,868
758,69	19,600
758,88	39,640
759,07	30,108
759,26	34,884
759,45	25,764
759,63	35,688
759,82	34,343
760,01	38,127
760,20	43,580
760,39	36,194
760,57	36,364
760,76	42,793
760,95	31,944
761,14	37,143
761,33	33,438
761,51	38,351
761,70	46,897
761,89	42,213
762,08	27,907
762,27	39,560
762,45	37,743
762,64	49,817
762,83	34,071
763,02	45,581
763,21	42,241
763,39	42,041
763,58	43,019
763,77	45,560
763,96	58,635
764,14	32,500
764,33	35,165
764,52	47,639
764,71	34,529
764,89	17,647
765,08	53,448
765,27	28,996
765,46	50,000
765,65	33,624
765,83	42,424
766,02	52,766
766,21	53,039
766,40	58,571
766,58	44,715
766,77	42,289
766,96	65,000
767,15	57,488
767,33	56,140
767,52	51,220
767,71	56,957
767,90	51,685
768,08	39,300
768,27	52,500
768,46	50,000
768,64	56,477
768,83	30,729
769,02	69,000
769,21	32,751
769,39	49,419
769,58	53,179
769,77	56,705
769,96	54,450
770,14	45,578
770,33	53,738
770,52	42,328
770,70	46,667
770,89	65,101
771,08	41,949
771,27	82,990
771,45	53,509
771,64	58,854
771,83	55,607
772,01	40,964
772,20	53,769
772,39	49,333
772,57	69,767
772,76	68,889
772,95	45,390
773,14	67,742
773,32	78,065
773,51	69,652
773,70	50,000
773,88	85,792
774,07	45,550
774,26	47,518
774,44	58,537
774,63	83,249
774,82	75,000
775,00	86,000
775,19	57,600
775,38	94,220
775,56	61,979
775,75	71,687
775,94	85,443
776,12	70,718
776,31	45,882
776,50	57,955
776,68	48,421
776,87	38,068
777,06	78,621
777,24	65,556
777,43	68,590
777,62	89,706
777,80	95,946
777,99	81,143
778,18	74,257
778,36	68,800
778,55	86,777
778,74	69,444
778,92	60,947
779,11	80,000
779,29	50,943
779,48	51,701
779,67	79,070
779,85	78,049
780,04	52,973
780,23	66,906
780,41	74,219
780,60	57,368
780,79	98,305
780,97	91,447
781,16	71,515
781,34	86,598
781,53	64,957
781,72	83,942
781,90	39,844
782,09	58,065
782,28	82,482
782,46	62,963
782,65	92,857
782,83	94,382
783,02	83,750
783,21	88,667
783,39	81,739
783,58	71,598
783,76	84,358
783,95	53,333
784,14	74,834
784,32	95,973
784,51	60,345
784,69	94,068
784,88	86,486
785,06	67,227
785,25	63,694
785,44	102,158
785,62	85,714
785,81	97,183
785,99	97,122
786,18	81,757
786,37	92,593
786,55	54,128
786,74	57,237
786,92	83,594
787,11	69,167
787,29	70,149
787,48	74,667
787,67	68,675
787,85	115,517
788,04	73,762
788,22	62,295
788,41	112,941
788,59	125,688
788,78	69,091
788,96	90,566
789,15	140,000
789,34	98,182
789,52	100,885
789,71	72,093
789,89	131,915
790,08	78,082
790,26	68,571
790,45	84,091
790,63	91,667
790,82	90,909
791,00	70,833
791,19	77,419
791,38	121,528
791,56	105,263
791,75	119,266
791,93	105,747
792,12	81,657
792,30	107,200
792,49	62,185
792,67	67,164
792,86	88,372
793,04	94,393
793,23	76,667
793,41	87,342
793,60	91,919
793,78	122,807
793,97	111,538
794,15	87,273
794,34	102,198
794,52	87,013
794,71	109,877
794,89	108,889
795,08	106,796
795,26	80,000
795,45	108,955
795,63	104,545
795,82	94,393
796,00	103,670
796,19	70,000
796,37	116,058
796,56	124,731
796,74	76,106
796,93	102,247
797,11	79,747
797,30	72,500
797,48	73,793
797,67	97,500
797,85	94,898
798,04	136,458
798,22	96,825
798,41	132,353
798,59	115,789
798,77	116,923
798,96	148,387
799,14	103,448
799,33	103,817
799,51	74,615
799,70	95,973
799,88	112,121
800,07	86,184
800,25	81,379
800,44	121,212
800,62	130,588
800,80	166,667
800,99	131,746
801,17	69,828
801,36	105,517
801,54	112,500
801,73	101,010
801,91	81,148
802,10	95,238
802,28	132,710
802,46	87,654
802,65	108,046
802,83	153,933
803,02	126,316
803,20	112,500
803,39	82,759
803,57	118,072
803,75	100,000
803,94	82,353
804,12	36,667
804,31	99,115
804,49	83,654
804,67	108,000
804,86	92,857
805,04	77,027
805,23	105,517
805,41	109,016
805,59	67,213
805,78	98,485
805,96	84,615
806,15	85,156
806,33	124,370
806,51	94,690
806,70	138,333
806,88	68,293
807,07	80,952
807,25	83,648
807,43	89,404
807,62	92,683
807,80	122,581
807,99	91,270
808,17	112,766
808,35	114,035
808,54	88,172
808,72	77,600
808,90	122,368
809,09	90,833
809,27	146,847
809,46	120,536
809,64	71,569
809,82	103,448
810,01	90,152
810,19	92,000
810,37	53,077
810,56	106,098
810,74	60,265
810,92	103,030
811,11	113,725
811,29	107,801
811,48	119,192
811,66	96,124
811,84	108,257
812,03	85,455
812,21	107,692
812,39	76,271
812,58	110,784
812,76	86,916
812,94	104,000
813,13	71,429
813,31	100,000
813,49	163,043
813,68	88,696
813,86	144,898
814,04	127,184
814,23	133,333
814,41	80,147
814,59	73,446
814,78	88,235
814,96	57,658
815,14	122,222
815,33	90,580
815,51	94,074
815,69	92,593
815,87	115,652
816,06	98,125
816,24	101,325
816,42	41,667
816,61	90,678
816,79	159,036
816,97	119,820
817,16	66,452
817,34	92,414
817,52	80,000
817,70	89,683
817,89	79,339
818,07	112,931
818,25	101,802
818,44	53,488
818,62	112,069
818,80	117,483
818,98	74,286
819,17	76,923
819,35	85,294
819,53	94,059
819,72	66,860
819,90	98,204
820,08	66,234
820,26	120,175
820,45	92,169
820,63	81,250
820,81	66,443
820,99	76,692
821,18	60,741
821,36	80,476
821,54	76,163
821,73	61,622
821,91	67,021
822,09	72,353
822,27	66,497
822,46	66,875
822,64	86,755
822,82	70,244
823,00	44,144
823,19	59,848
823,37	88,571
823,55	70,000
823,73	84,000
823,91	72,928
824,10	77,654
824,28	82,963
824,46	72,674
824,64	70,588
824,83	50,407
825,01	68,841
825,19	85,143
825,37	62,500
825,56	91,875
825,74	78,571
825,92	71,348
826,10	72,671
826,28	67,114
826,47	64,228
826,65	90,541
826,83	54,839
827,01	64,394
827,19	53,165
827,38	77,202
827,56	62,981
827,74	63,821
827,92	74,634
828,10	59,239
828,29	64,762
828,47	72,807
828,65	57,297
828,83	77,273
829,01	66,000
829,20	72,785
829,38	41,909
829,56	56,275
829,74	75,758
829,92	40,206
830,10	65,766
830,29	47,568
830,47	62,500
830,65	54,464
830,83	67,429
831,01	42,917
831,20	55,446
831,38	62,439
831,56	64,372
831,74	84,571
831,92	44,318
832,10	60,000
832,29	70,142
832,47	57,965
832,65	64,681
832,83	55,349
833,01	51,383
833,19	56,109
833,37	56,667
833,56	67,606
833,74	56,680
833,92	39,823
834,10	34,518
834,28	37,308
834,46	58,131
834,64	48,047
834,83	41,297
835,01	52,140
835,19	55,924
835,37	50,598
835,55	46,209
835,73	62,500
835,91	46,718
836,09	47,718
836,28	49,237
836,46	43,860
836,64	44,262
836,82	34,701
837,00	39,116
837,18	59,289
837,36	57,219
837,54	32,197
837,72	41,833
837,91	28,514
838,09	40,400
838,27	54,945
838,45	57,929
838,63	42,034
838,81	49,671
838,99	48,780
839,17	48,220
839,35	35,185
839,53	45,302
839,72	26,695
839,90	32,827
840,08	42,308
840,26	38,486
840,44	20,988
840,62	39,731
840,80	28,086
840,98	32,931
841,16	28,470
841,34	33,333
841,52	26,837
841,70	21,549
841,89	42,258
842,07	39,459
842,25	29,545
842,43	36,452
842,61	35,925
842,79	49,695
842,97	33,232
843,15	44,699
843,33	33,492
843,51	28,640
843,69	27,500
843,87	35,310
844,05	35,310
844,23	36,757
844,41	27,889
844,59	22,727
844,77	31,988
844,95	29,126
845,13	27,049
845,31	30,726
845,50	34,794
845,68	38,083
845,86	28,774
846,04	42,963
846,22	27,446
846,40	20,735
846,58	30,563
846,76	30,424
846,94	28,365
847,12	26,540
847,30	33,871
847,48	30,935
847,66	26,098
847,84	29,188
848,02	31,809
848,20	26,269
848,38	26,681
848,56	34,624
848,74	27,273
848,92	21,294
849,10	31,250
849,28	31,590
849,46	15,421
849,64	21,905
849,82	16,346
850,00	18,275
850,18	18,938
850,36	21,053
850,54	27,354
850,72	24,740
850,90	19,708
851,08	21,399
851,26	26,923
851,44	29,317
851,62	22,517
851,80	18,290
851,98	29,835
852,16	29,835
852,34	30,930
852,52	22,266
852,70	17,269
852,87	24,571
853,05	31,263
853,23	18,235
853,41	22,904
853,59	17,736
853,77	22,222
853,95	22,669
854,13	22,524
854,31	23,909
854,49	18,838
854,67	30,639
854,85	21,043
855,03	16,667
855,21	19,797
855,39	19,966
855,57	25,181
855,75	22,260
855,93	24,558
856,11	32,536
856,28	21,528
856,46	16,993
856,64	23,463
856,82	8,551
857,00	24,567
857,18	16,588
857,36	13,109
857,54	23,818
857,72	25,876
857,90	16,804
858,08	20,216
858,26	13,761
858,44	17,236
858,61	21,490
858,79	22,791
858,97	19,054
859,15	16,591
859,33	14,110
859,51	21,246
859,69	16,964
859,87	12,152
860,05	16,457
860,23	19,242
860,40	13,671
860,58	12,213
860,76	17,938
860,94	12,824
861,12	16,431
861,30	12,585
861,48	15,297
861,66	15,899
861,84	18,994
862,01	21,123
862,19	19,377
862,37	17,493
862,55	10,028
862,73	11,957
862,91	14,198
863,09	18,075
863,27	12,674
863,44	15,762
863,62	17,251
863,80	13,721
863,98	17,241
864,16	13,687
864,34	15,974
864,52	13,212
864,69	18,554
864,87	10,489
865,05	10,167
865,23	12,802
865,41	15,852
865,59	15,698
865,76	11,628
865,94	15,935
866,12	14,949
866,30	12,147
866,48	15,461
866,66	17,245
866,83	13,676
867,01	14,012
867,19	10,974
867,37	10,084
867,55	12,294
867,73	13,554
867,90	13,889
868,08	15,904
868,26	13,455
868,44	10,944
868,62	13,062
868,79	12,229
868,97	16,525
869,15	10,085
869,33	11,136
869,51	14,650
869,69	8,133
869,86	9,436
870,04	13,122
870,22	6,348
870,40	8,182
870,57	11,300
870,75	12,644
870,93	14,152
871,11	8,037
871,29	11,382
871,46	8,761
871,64	11,078
871,82	12,000
872,00	15,529
872,18	13,266
872,35	14,171
872,53	13,043
872,71	8,277
872,89	13,624
873,06	9,133
873,24	13,235
873,42	9,498
873,60	4,224
873,77	9,431
873,95	10,818
874,13	13,685
874,31	13,547
874,49	9,677
874,66	9,192
874,84	6,128
875,02	15,948
875,20	11,405
875,37	9,540
875,55	6,351
875,73	8,024
875,91	7,188
876,08	10,748
876,26	7,577
876,44	7,109
876,61	9,847
876,79	13,240
876,97	9,584
877,15	11,374
877,32	10,315
877,50	8,021
877,68	8,927
877,86	6,841
878,03	9,210
878,21	5,605
878,39	7,778
878,56	9,366
878,74	5,640
878,92	7,270
879,10	7,249
879,27	8,530
879,45	10,717
879,63	7,497
879,80	6,458
879,98	3,630
880,16	8,294
880,34	4,389
880,51	9,302
880,69	6,544
880,87	7,560
881,04	5,480
881,22	8,762
881,40	5,927
881,57	4,076
881,75	8,227
881,93	7,080
882,10	8,712
882,28	4,978
882,46	8,078
882,63	7,224
882,81	7,299
882,99	8,972
883,16	5,463
883,34	4,841
883,52	4,705
883,69	8,156
883,87	7,167
884,05	5,733
884,22	5,106
884,40	6,902
884,58	5,698
884,75	3,814
884,93	7,016
885,11	6,420
885,28	6,951
885,46	6,414
885,64	5,654
885,81	6,958
885,99	5,608
886,17	5,818
886,34	7,027
886,52	4,298
886,70	5,463
886,87	6,732
887,05	5,183
887,22	3,947
887,40	5,575
887,58	3,781
887,75	8,225
887,93	6,237
888,11	3,707
888,28	2,608
888,46	3,609
888,63	5,813
888,81	6,375
888,99	2,796
889,16	4,565
889,34	5,139
889,51	5,622
889,69	3,056
889,87	5,169
890,04	2,960
890,22	5,103
890,39	3,759
890,57	5,332
890,75	5,344
890,92	3,968
891,10	5,764
891,27	4,766
891,45	4,792
891,63	5,984
891,80	3,004
891,98	6,434
892,15	4,272
892,33	4,235
892,51	4,368
892,68	2,762
892,86	4,249
893,03	5,645
893,21	5,330
893,38	5,585
893,56	5,526
893,74	6,292
893,91	5,164
894,09	4,531
894,26	4,428
894,44	4,682
894,61	4,923
894,79	3,973
894,96	5,684
895,14	3,519
895,32	5,130
895,49	4,264
895,67	2,958
895,84	4,868
896,02	4,440
896,19	2,963
896,37	4,078
896,54	3,756
896,72	5,453
896,89	4,242
897,07	4,227
897,25	4,805
897,42	3,096
897,60	4,436
897,77	4,759
897,95	4,303
898,12	4,529
898,30	4,218
898,47	3,342
898,65	4,099
898,82	2,471
899,00	3,105
899,17	5,153
899,35	3,292
899,52	3,604
899,70	3,389
899,87	3,627
900,05	4,870
900,22	3,299
900,40	3,303
900,57	4,697
900,75	3,843
900,92	2,364
901,10	3,847
901,27	3,140
901,45	5,517
901,62	3,597
901,80	3,775
901,97	4,890
902,15	4,774
902,32	4,609
902,50	2,899
902,67	2,580
902,85	3,543
903,02	4,774
903,20	3,446
903,37	3,272
903,54	4,131
903,72	1,382
903,89	4,845
904,07	4,663
904,24	4,191
904,42	3,930
904,59	3,071
904,77	3,862
904,94	3,278
905,12	1,682
905,29	4,055
905,47	4,909
905,64	3,391
905,81	4,259
905,99	3,736
906,16	4,696
906,34	3,492
906,51	2,424
906,69	2,018
906,86	2,129
907,03	2,414
907,21	2,016
907,38	2,181
907,56	2,772
907,73	3,886
907,91	3,141
908,08	2,746
908,25	2,042
908,43	3,317
908,60	2,883
908,78	5,615
908,95	4,765
909,13	3,938
909,30	1,337
909,47	3,702
909,65	4,081
909,82	3,764
910,00	2,421
910,17	2,629
910,34	3,752
910,52	3,213
910,69	4,276
910,87	3,289
911,04	2,881
911,21	3,271
911,39	3,485
911,56	3,950
911,73	2,336
911,91	4,496
912,08	3,343
912,26	3,014
912,43	2,517
912,60	3,532
912,78	2,268
912,95	3,482
913,13	2,837
913,30	2,634
913,47	3,522
913,65	1,919
913,82	2,523
913,99	1,812
914,17	3,803
914,34	3,941
914,51	3,419
914,69	3,695
914,86	4,214
915,03	2,704
915,21	3,975
915,38	2,928
915,56	3,707
915,73	2,671
915,90	3,276
916,08	2,927
916,25	2,626
916,42	1,548
916,60	2,933
916,77	2,929
916,94	2,465
917,12	2,989
917,29	3,401
917,46	1,836
917,64	2,882
917,81	2,425
917,98	1,499
918,16	3,482
918,33	2,728
918,50	4,045
918,67	2,596
918,85	3,149
919,02	2,113
919,19	3,001
919,37	2,431
919,54	2,035
919,71	3,887
919,89	1,442
920,06	1,000
920,23	2,858
920,41	3,404
920,58	2,693
920,75	2,924
920,92	1,772
921,10	1,949
921,27	2,148
921,44	3,814
921,62	1,312
921,79	3,171
921,96	2,412
922,13	1,945
922,31	2,881
922,48	2,604
922,65	1,447
922,82	1,479
923,00	3,198
923,17	1,988
923,34	2,547
923,52	2,341
923,69	3,198
923,86	2,591
924,03	2,079
924,21	2,876
924,38	3,249
924,55	3,715
924,72	3,511
924,90	2,589
925,07	2,276
925,24	2,798
925,41	2,015
925,59	2,211
925,76	1,473
925,93	2,430
926,10	2,552
926,28	2,878
926,45	3,471
926,62	2,048
926,79	2,190
926,96	3,028
927,14	3,160
927,31	2,078
927,48	2,408
927,65	2,709
927,83	2,234
928,00	1,427
928,17	1,862
928,34	2,561
928,51	3,082
928,69	1,990
928,86	2,625
929,03	2,281
929,20	1,766
929,37	2,508
929,55	2,775
929,72	2,170
929,89	1,687
930,06	2,578
930,23	1,988
930,41	2,258
930,58	2,750
930,75	2,004
930,92	1,565
931,09	2,178
931,27	1,493
931,44	1,170
931,61	2,913
931,78	2,631
931,95	1,398
932,12	2,482
932,30	2,104
932,47	2,508
932,64	2,273
932,81	1,527
932,98	1,812
933,16	1,680
933,33	1,270
933,50	2,937
933,67	2,592
933,84	1,568
934,01	1,651
934,18	2,439
934,36	1,559
934,53	1,843
934,70	2,146
934,87	1,513
935,04	2,556
935,21	1,846
935,38	1,397
935,56	1,420
935,73	1,781
935,90	1,620
936,07	2,472
936,24	2,637
936,41	1,439
936,58	0,551
936,76	2,064
936,93	1,307
937,10	1,732
937,27	1,887
937,44	1,533
937,61	2,089
937,78	1,854
937,95	1,659
938,13	1,739
938,30	1,595
938,47	2,284
938,64	2,337
938,81	1,371
938,98	1,732
939,15	1,923
939,32	1,729
939,49	1,772
939,66	2,823
939,84	2,101
940,01	2,455
940,18	2,127
940,35	1,705
940,52	1,231
940,69	2,846
940,86	1,375
941,03	1,745
941,20	2,612
941,37	2,613
941,54	0,870
941,71	0,811
941,89	2,002
942,06	1,688
942,23	2,340
942,40	1,860
942,57	1,732
942,74	2,475
942,91	1,426
943,08	2,871
943,25	1,951
943,42	2,523
943,59	2,358
943,76	3,122
943,93	1,953
944,10	1,970
944,27	2,275
944,44	1,977
944,61	1,855
944,79	2,059
944,96	3,160
945,13	1,705
945,30	2,055
945,47	2,526
945,64	2,584
945,81	3,751
945,98	1,745
946,15	3,140
946,32	1,473
946,49	3,481
946,66	1,700
946,83	3,498
947,00	2,726
947,17	1,560
947,34	3,009
947,51	1,671
947,68	3,693
947,85	1,477
948,02	2,776
948,19	3,446
948,36	2,941
948,53	3,895
948,70	3,132
948,87	3,739
949,04	1,473
949,21	1,644
949,38	2,996
949,55	3,240
949,72	3,752
949,89	4,644
950,06	0,458
950,23	3,651
950,40	3,169
950,57	2,846
950,74	4,421
950,91	3,678
951,08	2,475
951,25	4,545
951,42	5,356
951,59	1,888
951,76	5,047
951,93	5,804
952,10	3,296
952,27	3,667
952,44	3,416
952,61	3,912
952,77	3,963
952,94	4,303
953,11	6,213
953,28	4,281
953,45	3,763
953,62	4,964
953,79	2,774
953,96	4,715
954,13	5,277
954,30	5,247
954,47	4,553
954,64	4,577
954,81	3,989
954,98	4,129
955,15	5,925
955,32	5,837
955,49	5,339
955,65	6,643
955,82	7,783
955,99	4,746
956,16	8,607
956,33	5,509
956,50	6,745
956,67	7,843
956,84	8,074
957,01	7,800
957,18	7,578
957,35	9,161
957,52	9,983
957,68	9,167
957,85	8,766
958,02	8,527
958,19	9,835
958,36	12,589
958,53	9,677
958,70	13,032
958,87	8,513
959,04	14,234
959,21	12,727
959,37	13,636
959,54	12,238
959,71	13,369
959,88	11,636
960,05	11,369
960,22	10,414
960,39	16,533
960,56	10,253
960,72	13,049
960,89	18,758
961,06	14,904
961,23	10,917
961,40	11,833
961,57	13,552
961,74	9,019
961,90	17,969
962,07	18,721
962,24	16,260
962,41	19,598
962,58	16,867
962,75	20,531
962,92	22,991
963,08	22,182
963,25	17,297
963,42	12,802
963,59	13,636
963,76	25,618
963,93	31,579
964,10	25,910
964,26	26,096
964,43	27,649
964,60	24,352
964,77	28,675
964,94	19,318
965,10	29,464
965,27	26,110
965,44	30,649
965,61	26,171
965,78	34,505
965,95	35,928
966,11	39,938
966,28	32,714
966,45	43,302
966,62	30,769
966,79	40,408
966,95	25,970
967,12	43,849
967,29	34,722
967,46	45,455
967,63	47,547
967,79	49,550
967,96	42,857
968,13	42,500
968,30	30,242
968,47	50,859
968,63	62,613
968,80	56,881
968,97	40,385
969,14	41,860
969,31	46,667
969,47	60,588
969,64	58,081
969,81	47,150
969,98	71,978
970,14	57,669
970,31	61,635
970,48	36,667
970,65	72,781
970,81	80,822
970,98	88,321
971,15	107,143
971,32	65,625
971,48	101,361
971,65	72,308
971,82	87,255
971,99	65,517
972,15	88,732
972,32	109,910
972,49	84,615
972,66	97,273
972,82	87,209
972,99	73,171
973,16	101,149
973,33	98,214
973,49	69,474
973,66	132,258
973,83	96,117
974,00	136,047
974,16	126,471
974,33	155,263
974,50	90,526
974,67	140,000
974,83	114,286
975,00	143,158
975,17	140,659
975,33	86,517
975,50	156,716
975,67	246,939
975,84	195,522
976,00	119,101
976,17	209,836
976,34	98,000
976,50	148,315
976,67	115,534
976,84	4633,333
977,00	148,980
977,17	186,667
977,34	195,604
977,50	161,194
977,67	189,286
977,84	240,323
978,01	274,468
978,17	722,222
978,34	294,444
978,51	126,471
978,67	184,211
978,84	122,656
979,01	381,081
979,17	202,564
979,34	102,740
979,51	236,735
979,67	162,963
979,84	271,429
980,01	233,333
980,17	253,521
980,34	448,148
980,51	168,116
980,67	169,412
980,84	433,333
981,01	565,000
981,17	512,000
981,34	900,000
981,50	205,882
981,67	223,729
981,84	7000,000
982,00	336,667
982,17	164,286
982,34	171,111
982,50	820,000
982,67	159,375
982,84	2280,000
983,00	1566,667
983,17	191,045
983,33	186,207
983,50	1280,000
983,67	-279,310
983,83	263,636
984,00	-1785,714
984,17	655,556
984,33	-5300,000
984,50	340,000
984,66	319,565
984,83	189,610
985,00	-487,500
985,16	537,931
985,33	658,824
985,49	622,222
985,66	438,235
985,83	517,391
985,99	425,641
986,16	-3450,000
986,32	807,143
986,49	9400,000
986,66	430,303
986,82	658,333
986,99	345,283
987,15	-331,579
987,32	-310,714
987,49	242,000
987,65	6150,000
987,82	325,000
987,98	308,163
988,15	300,000
988,31	920,000
988,48	-1583,333
988,65	373,810
988,81	341,667
988,98	265,854
989,14	307,143
989,31	633,333
989,47	191,176
989,64	-992,308
989,80	706,250
989,97	429,730
990,14	-260,870
990,30	-522,727
990,47	369,388
990,63	358,333
990,80	190,000
990,96	-670,000
991,13	403,125
991,29	517,241
991,46	0,000
991,62	-884,615
991,79	1000,000
991,95	13700,000
992,12	-1240,000
992,29	-643,750
992,45	160,000
992,62	325,581
992,78	320,455
992,95	-340,000
993,11	425,000
993,28	1080,000
993,44	-1100,000
993,61	-843,750
993,77	-2425,000
993,94	-3100,000
994,10	-136,000
994,27	684,211
994,43	323,256
994,60	0,000
994,76	3175,000
994,93	550,000
995,09	-876,471
995,26	1022,222
995,42	215,686
995,59	561,905
995,75	807,692
995,92	2285,714
996,08	455,556
996,25	-1400,000
996,41	-4950,000
996,58	480,000
996,74	395,455
996,91	389,655
997,07	0,000
997,23	13700,000
997,40	-17600,000
997,56	-1061,538
997,73	-1625,000
997,89	418,421
998,06	1107,692
998,22	-705,556
998,39	488,000
998,55	1122,222
998,72	-1625,000
998,88	-290,000
999,05	-165,385
999,21	323,810
999,37	-540,000
999,54	-808,333
999,70	-366,667
999,87	993,750
1000,03	433,333
1000,20	277,083
1000,36	0,000
1000,52	554,167
1000,69	-357,143
1000,85	-820,000
1001,02	-391,667
1001,18	3025,000
1001,35	1161,538
1001,51	770,588
1001,67	-830,769
1001,84	-2480,000
1002,00	362,162
1002,17	1336,364
1002,33	-1475,000
1002,50	504,762
1002,66	-1092,308
1002,82	285,000
1002,99	1092,857
1003,15	-1357,143
1003,32	-927,273
1003,48	353,571
1003,64	873,333
1003,81	514,815
1003,97	-4950,000
1004,14	881,818
1004,30	256,667
1004,46	-460,000
1004,63	678,571
1004,79	383,333
1004,95	766,667
1005,12	5900,000
1005,28	520,690
1005,45	397,297
1005,61	382,759
1005,77	-285,417
1005,94	-704,762
1006,10	-4750,000
1006,26	1007,692
1006,43	-434,615
1006,59	-1036,364
1006,76	864,286
1006,92	1333,333
1007,08	10400,000
1007,25	-403,704
1007,41	586,207
1007,57	4250,000
1007,74	1430,000
1007,90	-310,345
1008,06	208,696
1008,23	764,706
1008,39	-537,500
1008,55	-392,308
1008,72	-1928,571
1008,88	0,000
1009,04	346,341
1009,21	-176,316
1009,37	-633,333
1009,53	209,524
1009,70	3733,333
1009,86	-621,429
1010,02	3600,000
1010,19	1072,727
1010,35	270,588
1010,51	-3550,000
1010,68	-1125,000
1010,84	-243,182
1011,00	650,000
1011,17	-477,273
1011,33	0,000
1011,49	-1093,333
1011,66	1071,429
1011,82	603,226
1011,98	878,571
1012,14	-854,545
1012,31	453,846
1012,47	0,000
1012,63	2000,000
1012,80	821,429
1012,96	-931,250
1013,12	-2100,000
1013,29	577,778
1013,45	314,634
1013,61	4566,667
1013,77	-166,071
1013,94	3300,000
1014,10	169,492
1014,26	-2875,000
1014,43	-292,000
1014,59	765,000
1014,75	-616,667
1014,91	-780,000
1015,08	480,556
1015,24	9200,000
1015,40	623,529
1015,56	-10800,000
1015,73	228,571
1015,89	881,818
1016,05	3575,000
1016,21	-1550,000
1016,38	1047,368
1016,54	1061,538
1016,70	-3966,667
1016,86	478,125
1017,03	737,500
1017,19	-776,923
1017,35	-794,118
1017,51	-2600,000
1017,68	-770,000
1017,84	-1857,143
1018,00	300,000
1018,16	488,462
1018,33	-1071,429
1018,49	-791,667
1018,65	-256,757
1018,81	292,308
1018,97	-2071,429
1019,14	-3866,667
1019,30	-276,923
1019,46	0,000
1019,62	-817,647
1019,79	-3566,667
1019,95	1141,667
1020,11	7850,000
1020,27	-385,185
1020,43	-380,769
1020,60	1300,000
1020,76	638,889
1020,92	873,333
1021,08	580,000
1021,24	1430,000
1021,41	1011,111
1021,57	1825,000
1021,73	915,385
1021,89	3140,000
1022,05	-350,000
1022,21	555,000
1022,38	-833,333
1022,54	-2250,000
1022,70	380,000
1022,86	-1325,000
1023,02	566,667
1023,19	2120,000
1023,35	4666,667
1023,51	679,167
1023,67	362,963
1023,83	-731,250
1023,99	339,474
1024,16	-415,385
1024,32	-1733,333
1024,48	-800,000
1024,64	369,048
1024,80	552,174
1024,96	328,205
1025,12	547,619
1025,29	690,476
1025,45	378,947
1025,61	805,556
1025,77	-1860,000
1025,93	-8900,000
1026,09	-2285,714
1026,26	1000,000
1026,42	443,750
1026,58	493,939
1026,74	2050,000
1026,90	468,000
1027,06	282,143
1027,22	1171,429
1027,38	315,385
1027,55	5033,333
1027,71	1566,667
1027,87	-372,000
1028,03	950,000
1028,19	409,375
1028,35	765,000
1028,51	1480,000
1028,67	833,333
1028,83	-1950,000
1029,00	-280,952
1029,16	1280,000
1029,32	-317,857
1029,48	315,556
1029,64	302,778
1029,80	5000,000
1029,96	880,000
1030,12	460,870
1030,28	-2433,333
1030,44	-476,923
1030,61	-566,667
1030,77	-251,429
1030,93	-633,333
1031,09	1050,000
1031,25	-8200,000
1031,41	-346,667
1031,57	373,077
1031,73	931,250
1031,89	-1200,000
1032,05	-270,370
1032,21	1300,000
1032,37	-211,111
1032,53	-914,286
1032,69	-304,167
1032,86	407,407
1033,02	-230,000
1033,18	-856,250
1033,34	436,842
1033,50	-4700,000
1033,66	-348,780
1033,82	486,957
1033,98	-488,889
1034,14	201,282
1034,30	325,806
1034,46	-2700,000
1034,62	465,000
1034,78	-638,095
1034,94	323,684
1035,10	-630,769
1035,26	-179,070
1035,42	-293,103
1035,58	-488,889
1035,74	883,333
1035,90	-915,385
1036,06	-1333,333
1036,22	1616,667
1036,38	-594,118
1036,54	-466,667
1036,70	-272,727
1036,86	12800,000
1037,02	522,222
1037,18	810,526
1037,34	183,810
1037,50	-192,683
1037,66	-400,000
1037,82	2920,000
1037,98	-511,111
1038,14	-392,000
1038,30	-1875,000
1038,46	-507,143
1038,62	534,783
1038,78	-3733,333
1038,94	-384,211
1039,10	536,364
1039,26	411,111
1039,42	-625,000
1039,58	1885,714
1039,74	-489,474
1039,90	428,125
1040,06	-584,615
>>>>>End Processed Spectral Data<<<<<
