SpectraSuite Data File
++++++++++++++++++++++++++++++++++++
Date: Wed Feb 01 16:18:49 EET 2017
User: optolab
Dark Spectrum Present: Yes
Reference Spectrum Present: Yes
Number of Sampled Component Spectra: 1
Spectrometers: USB4C02475
Integration Time (usec): 100000 (USB4C02475)
Spectra Averaged: 1 (USB4C02475)
Boxcar Smoothing: 0 (USB4C02475)
Correct for Electrical Dark: No (USB4C02475)
Strobe/Lamp Enabled: No (USB4C02475)
Correct for Detector Non-linearity: No (USB4C02475)
Correct for Stray Light: No (USB4C02475)
Number of Pixels in Processed Spectrum: 3648
>>>>>Begin Processed Spectral Data<<<<<
344,91	2800,000
345,13	2800,000
345,35	2800,000
345,57	0,000
345,79	268,421
346,00	-1877,778
346,22	-1828,571
346,44	291,176
346,66	-475,000
346,87	-12900,000
347,09	548,485
347,31	-454,545
347,53	-305,128
347,74	289,231
347,96	396,970
348,18	994,737
348,40	461,290
348,61	923,529
348,83	397,619
349,05	186,275
349,27	-5100,000
349,48	596,154
349,70	-568,966
349,92	590,323
350,14	277,358
350,35	304,000
350,57	3200,000
350,79	724,000
351,01	-785,714
351,22	279,630
351,44	946,154
351,66	-336,000
351,87	-495,238
352,09	230,769
352,31	244,262
352,53	214,063
352,74	369,444
352,96	288,312
353,18	573,684
353,40	532,000
353,61	315,556
353,83	400,000
354,05	1018,182
354,26	2750,000
354,48	256,000
354,70	393,939
354,92	-317,241
355,13	170,707
355,35	418,182
355,57	662,500
355,78	215,663
356,00	-3625,000
356,22	411,538
356,44	7300,000
356,65	388,636
356,87	473,077
357,09	558,333
357,30	300,000
357,52	274,138
357,74	825,000
357,95	307,692
358,17	222,951
358,39	283,871
358,60	308,108
358,82	525,000
359,04	411,111
359,26	491,429
359,47	9800,000
359,69	332,500
359,91	390,909
360,12	552,381
360,34	533,333
360,56	-88,889
360,77	3500,000
360,99	861,905
361,21	322,000
361,42	3400,000
361,64	146,939
361,86	270,769
362,07	-429,032
362,29	188,000
362,51	-535,294
362,72	480,000
362,94	338,235
363,16	269,767
363,37	-1050,000
363,59	503,846
363,81	345,455
364,02	594,444
364,24	500,000
364,46	2766,667
364,67	972,727
364,89	2685,714
365,11	230,000
365,32	596,552
365,54	341,667
365,76	212,245
365,97	382,353
366,19	258,621
366,41	663,636
366,62	455,556
366,84	309,302
367,05	326,531
367,27	1766,667
367,49	-730,769
367,70	829,412
367,92	191,803
368,14	364,583
368,35	-13500,000
368,57	556,000
368,79	417,241
369,00	360,870
369,22	-1375,000
369,43	217,647
369,65	298,387
369,87	497,297
370,08	162,651
370,30	273,214
370,51	272,131
370,73	226,667
370,95	304,839
371,16	252,381
371,38	476,667
371,60	1837,500
371,81	175,000
372,03	926,667
372,24	530,000
372,46	218,868
372,68	198,571
372,89	312,121
373,11	580,769
373,32	365,909
373,54	-1000,000
373,76	930,769
373,97	833,333
374,19	559,091
374,40	235,937
374,62	-3966,667
374,84	4750,000
375,05	410,714
375,27	332,000
375,48	-12600,000
375,70	197,333
375,92	246,429
376,13	362,500
376,35	256,164
376,56	1106,250
376,78	236,111
376,99	503,571
377,21	289,583
377,43	300,000
377,64	215,942
377,86	324,138
378,07	305,128
378,29	-1912,500
378,51	574,194
378,72	297,917
378,94	-1033,333
379,15	345,455
379,37	770,588
379,58	206,154
379,80	686,667
380,01	812,500
380,23	243,137
380,45	2560,000
380,66	4533,333
380,88	288,636
381,09	231,429
381,31	215,556
381,52	333,333
381,74	1122,222
381,95	645,455
382,17	542,308
382,39	571,429
382,60	226,531
382,82	382,051
383,03	307,692
383,25	425,806
383,46	331,818
383,68	477,778
383,89	655,000
384,11	451,613
384,32	-3233,333
384,54	516,667
384,76	-3866,667
384,97	333,333
385,19	451,724
385,40	329,412
385,62	291,228
385,83	461,905
386,05	250,980
386,26	280,000
386,48	196,552
386,69	335,417
386,91	715,000
387,12	233,898
387,34	265,517
387,55	201,613
387,77	534,375
387,98	523,077
388,20	221,739
388,41	438,235
388,63	9200,000
388,84	208,197
389,06	278,571
389,27	831,579
389,49	402,778
389,70	310,204
389,92	283,333
390,13	230,612
390,35	303,922
390,56	337,037
390,78	514,815
390,99	820,000
391,21	715,789
391,42	357,778
391,64	263,415
391,85	165,517
392,07	254,545
392,28	152,000
392,50	366,667
392,71	-1362,500
392,93	292,308
393,14	444,444
393,36	183,673
393,57	142,857
393,79	933,333
394,00	327,660
394,22	210,959
394,43	201,205
394,65	293,023
394,86	1437,500
395,08	704,762
395,29	218,868
395,50	600,000
395,72	600,000
395,93	761,905
396,15	215,493
396,36	185,294
396,58	240,000
396,79	247,500
397,01	222,000
397,22	286,111
397,44	216,667
397,65	207,018
397,87	369,048
398,08	242,857
398,29	371,875
398,51	255,357
398,72	290,244
398,94	170,769
399,15	454,286
399,37	200,000
399,58	184,615
399,80	445,455
400,01	168,519
400,22	285,714
400,44	229,630
400,65	507,143
400,87	247,059
401,08	197,143
401,30	282,609
401,51	192,982
401,72	434,615
401,94	189,873
402,15	580,000
402,37	147,899
402,58	727,778
402,80	291,429
403,01	159,155
403,22	1200,000
403,44	198,551
403,65	189,286
403,87	182,857
404,08	456,410
404,30	172,941
404,51	-3233,333
404,72	205,714
404,94	119,608
405,15	134,000
405,37	170,886
405,58	167,059
405,79	184,146
406,01	214,634
406,22	213,793
406,44	217,021
406,65	263,158
406,86	116,667
407,08	169,620
407,29	122,330
407,51	130,488
407,72	163,889
407,93	139,130
408,15	96,581
408,36	190,698
408,58	148,454
408,79	118,333
409,00	150,000
409,22	157,143
409,43	124,051
409,64	90,683
409,86	95,597
410,07	125,385
410,29	85,821
410,50	126,241
410,71	100,893
410,93	47,134
411,14	129,457
411,35	98,214
411,57	94,737
411,78	77,344
412,00	75,796
412,21	72,903
412,42	80,952
412,64	61,373
412,85	64,433
413,06	73,171
413,28	51,351
413,49	73,460
413,70	72,826
413,92	58,498
414,13	28,216
414,34	47,893
414,56	25,524
414,77	51,477
414,98	44,295
415,20	40,484
415,41	49,292
415,63	37,065
415,84	48,333
416,05	34,341
416,27	36,176
416,48	37,640
416,69	34,956
416,91	32,432
417,12	23,262
417,33	39,158
417,55	19,316
417,76	39,220
417,97	22,199
418,19	25,050
418,40	27,660
418,61	25,185
418,83	15,818
419,04	25,552
419,25	17,445
419,46	23,759
419,68	13,333
419,89	15,797
420,10	13,878
420,32	11,457
420,53	12,421
420,74	20,330
420,96	15,250
421,17	15,012
421,38	17,737
421,60	16,446
421,81	14,237
422,02	14,211
422,23	13,052
422,45	12,052
422,66	12,814
422,87	13,165
423,09	13,741
423,30	12,861
423,51	10,472
423,73	10,353
423,94	13,305
424,15	7,959
424,36	9,634
424,58	12,625
424,79	9,182
425,00	5,139
425,22	6,988
425,43	6,960
425,64	7,527
425,85	6,094
426,07	7,258
426,28	7,874
426,49	4,983
426,71	7,971
426,92	4,248
427,13	4,176
427,34	4,146
427,56	7,158
427,77	5,184
427,98	6,178
428,19	6,016
428,41	5,625
428,62	5,285
428,83	5,695
429,04	5,565
429,26	5,131
429,47	6,242
429,68	4,083
429,89	3,378
430,11	4,557
430,32	3,593
430,53	4,454
430,74	4,894
430,96	4,573
431,17	4,744
431,38	4,423
431,59	4,246
431,81	4,214
432,02	4,060
432,23	4,490
432,44	4,175
432,66	4,209
432,87	3,467
433,08	4,869
433,29	4,123
433,51	3,205
433,72	4,385
433,93	3,758
434,14	6,874
434,35	7,206
434,57	8,367
434,78	9,921
434,99	12,380
435,20	13,866
435,42	16,090
435,63	20,592
435,84	24,366
436,05	26,568
436,26	29,219
436,48	32,669
436,69	34,659
436,90	36,644
437,11	39,089
437,32	41,960
437,54	44,035
437,75	44,222
437,96	45,061
438,17	45,010
438,38	46,773
438,60	46,899
438,81	46,322
439,02	47,864
439,23	46,258
439,44	46,137
439,66	47,185
439,87	46,190
440,08	45,979
440,29	46,757
440,50	46,544
440,72	46,765
440,93	46,287
441,14	47,424
441,35	47,769
441,56	48,601
441,77	51,168
441,99	53,023
442,20	57,231
442,41	59,755
442,62	64,931
442,83	70,077
443,04	73,490
443,26	77,647
443,47	79,986
443,68	80,869
443,89	82,409
444,10	83,383
444,31	84,648
444,53	84,508
444,74	84,955
444,95	84,199
445,16	87,959
445,37	86,563
445,58	87,366
445,80	88,118
446,01	89,264
446,22	90,306
446,43	90,540
446,64	90,853
446,85	91,376
447,06	91,878
447,28	91,792
447,49	92,143
447,70	92,168
447,91	91,306
448,12	90,847
448,33	90,798
448,54	90,698
448,76	89,978
448,97	89,249
449,18	88,865
449,39	87,713
449,60	88,620
449,81	88,386
450,02	89,207
450,23	89,017
450,45	89,582
450,66	90,249
450,87	91,470
451,08	91,772
451,29	93,147
451,50	93,789
451,71	93,541
451,92	94,625
452,13	94,512
452,35	94,844
452,56	92,854
452,77	93,734
452,98	92,921
453,19	93,043
453,40	91,776
453,61	91,636
453,82	90,755
454,03	90,128
454,25	89,816
454,46	89,709
454,67	89,566
454,88	90,149
455,09	90,495
455,30	89,312
455,51	90,089
455,72	88,835
455,93	88,880
456,14	87,902
456,35	89,621
456,56	87,571
456,78	88,112
456,99	87,917
457,20	86,619
457,41	86,656
457,62	86,973
457,83	85,764
458,04	86,976
458,25	88,262
458,46	86,655
458,67	87,119
458,88	88,838
459,09	88,728
459,30	89,485
459,51	89,143
459,73	89,089
459,94	89,173
460,15	90,060
460,36	89,100
460,57	89,681
460,78	89,977
460,99	88,823
461,20	88,765
461,41	89,492
461,62	88,822
461,83	89,849
462,04	89,468
462,25	89,038
462,46	88,041
462,67	87,323
462,88	86,780
463,09	86,189
463,30	85,800
463,51	86,614
463,72	83,665
463,93	83,149
464,15	82,502
464,36	80,784
464,57	79,173
464,78	77,259
464,99	75,340
465,20	73,163
465,41	70,402
465,62	67,141
465,83	63,949
466,04	61,062
466,25	58,177
466,46	55,889
466,67	51,574
466,88	49,443
467,09	45,632
467,30	42,413
467,51	39,449
467,72	35,836
467,93	32,340
468,14	29,135
468,35	25,174
468,56	22,314
468,77	19,595
468,98	16,688
469,19	13,691
469,40	11,846
469,61	9,244
469,82	7,631
470,03	6,053
470,24	4,652
470,45	3,615
470,66	2,611
470,87	2,124
471,08	1,784
471,29	1,260
471,50	1,120
471,71	1,027
471,92	0,902
472,13	0,958
472,34	0,802
472,55	0,938
472,76	0,728
472,97	0,829
473,18	0,666
473,39	0,723
473,60	0,784
473,81	0,639
474,01	0,775
474,22	0,652
474,43	0,915
474,64	0,770
474,85	0,686
475,06	0,778
475,27	0,638
475,48	0,898
475,69	0,658
475,90	0,692
476,11	1,000
476,32	0,657
476,53	0,890
476,74	0,681
476,95	0,685
477,16	0,781
477,37	0,724
477,58	0,750
477,79	0,906
478,00	0,884
478,21	0,657
478,41	0,801
478,62	0,671
478,83	0,754
479,04	0,790
479,25	0,602
479,46	0,482
479,67	0,935
479,88	0,801
480,09	0,607
480,30	0,881
480,51	0,765
480,72	0,884
480,93	0,805
481,14	0,705
481,34	0,765
481,55	0,519
481,76	0,559
481,97	0,704
482,18	0,543
482,39	0,773
482,60	0,599
482,81	0,736
483,02	0,606
483,23	0,819
483,44	0,649
483,65	0,857
483,85	0,606
484,06	0,725
484,27	0,546
484,48	0,591
484,69	0,944
484,90	0,829
485,11	0,660
485,32	0,730
485,53	0,727
485,73	0,813
485,94	0,764
486,15	0,603
486,36	0,366
486,57	0,760
486,78	0,734
486,99	0,788
487,20	0,675
487,41	0,687
487,61	0,483
487,82	0,678
488,03	0,504
488,24	0,768
488,45	0,713
488,66	0,850
488,87	0,681
489,08	0,629
489,28	0,856
489,49	0,640
489,70	0,662
489,91	0,656
490,12	0,589
490,33	0,632
490,54	0,586
490,74	0,714
490,95	0,672
491,16	0,704
491,37	0,787
491,58	0,566
491,79	0,628
492,00	0,720
492,20	0,622
492,41	0,583
492,62	0,524
492,83	0,628
493,04	0,450
493,25	0,531
493,45	0,717
493,66	0,728
493,87	0,563
494,08	0,665
494,29	0,458
494,50	0,542
494,70	0,606
494,91	0,681
495,12	0,770
495,33	0,587
495,54	0,802
495,75	0,624
495,95	0,632
496,16	0,517
496,37	0,566
496,58	0,620
496,79	0,683
496,99	0,538
497,20	0,605
497,41	0,695
497,62	0,631
497,83	0,829
498,04	0,711
498,24	0,689
498,45	0,556
498,66	0,680
498,87	0,858
499,08	0,608
499,28	0,596
499,49	0,561
499,70	0,636
499,91	0,515
500,12	0,623
500,32	0,696
500,53	0,675
500,74	0,708
500,95	0,835
501,15	0,748
501,36	0,714
501,57	0,665
501,78	0,837
501,99	0,759
502,19	0,492
502,40	0,761
502,61	0,758
502,82	0,821
503,02	0,626
503,23	0,871
503,44	0,641
503,65	0,896
503,86	0,769
504,06	0,859
504,27	0,771
504,48	0,860
504,69	0,799
504,89	0,633
505,10	0,743
505,31	0,821
505,52	0,929
505,72	0,758
505,93	0,865
506,14	0,793
506,35	0,901
506,55	0,833
506,76	0,722
506,97	0,973
507,18	0,982
507,38	1,118
507,59	1,352
507,80	1,223
508,01	1,401
508,21	1,494
508,42	1,836
508,63	2,262
508,84	2,591
509,04	3,463
509,25	4,449
509,46	5,927
509,67	7,377
509,87	8,928
510,08	11,375
510,29	14,096
510,49	16,971
510,70	20,663
510,91	24,748
511,12	28,728
511,32	33,586
511,53	37,659
511,74	43,115
511,94	48,403
512,15	53,368
512,36	58,428
512,57	63,087
512,77	67,745
512,98	71,970
513,19	75,330
513,39	77,884
513,60	79,599
513,81	83,433
514,01	84,771
514,22	85,388
514,43	87,724
514,64	89,087
514,84	90,471
515,05	91,791
515,26	91,975
515,46	93,603
515,67	93,740
515,88	94,156
516,08	95,003
516,29	93,991
516,50	95,188
516,70	94,249
516,91	95,021
517,12	94,471
517,32	94,534
517,53	94,207
517,74	93,904
517,95	92,424
518,15	92,667
518,36	92,432
518,57	92,075
518,77	91,998
518,98	91,614
519,19	92,257
519,39	90,601
519,60	90,820
519,80	91,384
520,01	90,974
520,22	91,563
520,42	91,400
520,63	91,266
520,84	90,999
521,04	91,975
521,25	91,176
521,46	90,948
521,66	91,515
521,87	92,010
522,08	91,827
522,28	91,600
522,49	91,354
522,70	92,299
522,90	92,409
523,11	93,318
523,31	93,204
523,52	93,113
523,73	93,097
523,93	92,269
524,14	93,476
524,35	92,921
524,55	92,765
524,76	93,002
524,97	92,975
525,17	93,289
525,38	92,421
525,58	92,005
525,79	92,844
526,00	93,603
526,20	93,374
526,41	93,251
526,61	94,420
526,82	94,007
527,03	93,768
527,23	94,320
527,44	93,327
527,64	93,563
527,85	94,102
528,06	93,570
528,26	92,773
528,47	92,216
528,68	91,938
528,88	90,981
529,09	89,368
529,29	90,147
529,50	89,500
529,70	89,064
529,91	86,970
530,12	87,549
530,32	85,337
530,53	85,467
530,73	85,842
530,94	85,256
531,15	84,722
531,35	84,810
531,56	85,023
531,76	84,603
531,97	86,030
532,17	86,338
532,38	85,970
532,59	88,184
532,79	87,863
533,00	89,021
533,20	89,277
533,41	89,869
533,61	91,100
533,82	91,971
534,03	91,750
534,23	93,877
534,44	94,532
534,64	94,647
534,85	95,289
535,05	96,148
535,26	96,567
535,46	96,750
535,67	97,047
535,88	97,196
536,08	97,552
536,29	99,489
536,49	97,959
536,70	98,066
536,90	99,051
537,11	99,289
537,31	99,143
537,52	98,692
537,72	98,572
537,93	98,556
538,13	97,529
538,34	99,051
538,55	98,077
538,75	97,695
538,96	98,147
539,16	97,310
539,37	95,785
539,57	97,291
539,78	95,331
539,98	94,963
540,19	93,748
540,39	93,354
540,60	92,872
540,80	90,804
541,01	89,836
541,21	89,029
541,42	86,553
541,62	84,448
541,83	83,038
542,03	80,384
542,24	78,680
542,44	75,999
542,65	72,363
542,85	70,085
543,06	67,000
543,26	63,796
543,47	61,363
543,67	56,626
543,88	54,023
544,08	50,163
544,29	46,182
544,49	41,993
544,70	38,253
544,90	35,366
545,11	31,970
545,31	28,439
545,52	24,660
545,72	21,478
545,93	17,497
546,13	15,502
546,34	12,418
546,54	10,079
546,75	8,156
546,95	6,154
547,15	4,616
547,36	3,749
547,56	3,137
547,77	2,212
547,97	1,862
548,18	1,509
548,38	1,121
548,59	1,033
548,79	0,801
549,00	0,788
549,20	0,911
549,41	0,727
549,61	0,759
549,81	0,529
550,02	0,947
550,22	0,672
550,43	0,543
550,63	0,631
550,84	0,598
551,04	0,786
551,25	0,751
551,45	0,607
551,65	0,730
551,86	0,892
552,06	0,592
552,27	0,732
552,47	0,697
552,68	0,721
552,88	0,547
553,08	0,467
553,29	0,658
553,49	0,620
553,70	0,696
553,90	0,394
554,11	0,547
554,31	0,584
554,51	0,763
554,72	0,473
554,92	0,764
555,13	0,717
555,33	0,762
555,53	0,634
555,74	0,563
555,94	0,727
556,15	0,592
556,35	0,557
556,56	0,634
556,76	0,637
556,96	0,582
557,17	0,801
557,37	0,780
557,58	0,591
557,78	0,494
557,98	0,544
558,19	0,565
558,39	0,553
558,59	0,547
558,80	0,698
559,00	0,585
559,21	0,438
559,41	0,423
559,61	0,383
559,82	0,564
560,02	0,635
560,23	0,731
560,43	0,574
560,63	0,350
560,84	0,611
561,04	0,665
561,24	0,452
561,45	0,455
561,65	0,591
561,85	0,627
562,06	0,444
562,26	0,481
562,47	0,473
562,67	0,532
562,87	0,504
563,08	0,393
563,28	0,511
563,48	0,499
563,69	0,482
563,89	0,540
564,09	0,706
564,30	0,516
564,50	0,525
564,70	0,631
564,91	0,570
565,11	0,420
565,31	0,606
565,52	0,544
565,72	0,568
565,92	0,777
566,13	0,415
566,33	0,468
566,53	0,416
566,74	0,720
566,94	0,436
567,14	0,462
567,35	0,355
567,55	0,487
567,75	0,634
567,96	0,530
568,16	0,454
568,36	0,433
568,57	0,621
568,77	0,435
568,97	0,553
569,18	0,501
569,38	0,636
569,58	0,503
569,79	0,317
569,99	0,603
570,19	0,474
570,39	0,666
570,60	0,476
570,80	0,503
571,00	0,555
571,21	0,575
571,41	0,615
571,61	0,636
571,82	0,565
572,02	0,540
572,22	0,506
572,42	0,453
572,63	0,714
572,83	0,499
573,03	0,400
573,24	0,715
573,44	0,424
573,64	0,667
573,84	0,733
574,05	0,549
574,25	0,546
574,45	0,441
574,66	0,604
574,86	0,596
575,06	0,470
575,26	0,466
575,47	0,588
575,67	0,694
575,87	0,472
576,07	0,492
576,28	0,716
576,48	0,649
576,68	0,504
576,88	0,318
577,09	0,629
577,29	0,376
577,49	0,565
577,69	0,572
577,90	0,639
578,10	0,399
578,30	0,526
578,50	0,517
578,71	0,645
578,91	0,438
579,11	0,501
579,31	0,633
579,52	0,396
579,72	0,683
579,92	0,675
580,12	0,419
580,33	0,530
580,53	0,461
580,73	0,441
580,93	0,643
581,13	0,584
581,34	0,693
581,54	0,640
581,74	0,513
581,94	0,753
582,15	0,408
582,35	0,286
582,55	0,492
582,75	0,695
582,95	0,602
583,16	0,598
583,36	0,722
583,56	0,579
583,76	0,563
583,96	0,771
584,17	0,587
584,37	0,645
584,57	0,499
584,77	0,502
584,97	0,563
585,18	0,554
585,38	0,609
585,58	0,596
585,78	0,602
585,98	0,649
586,19	0,730
586,39	0,538
586,59	0,574
586,79	0,454
586,99	0,575
587,20	0,484
587,40	0,741
587,60	0,677
587,80	0,707
588,00	0,714
588,20	0,484
588,41	0,584
588,61	0,665
588,81	0,554
589,01	0,652
589,21	0,618
589,41	0,755
589,62	0,645
589,82	0,500
590,02	0,436
590,22	0,943
590,42	0,578
590,62	0,633
590,83	0,519
591,03	0,747
591,23	0,524
591,43	0,787
591,63	0,826
591,83	0,656
592,03	0,738
592,24	0,890
592,44	0,862
592,64	0,870
592,84	0,944
593,04	1,040
593,24	1,143
593,44	1,126
593,65	1,460
593,85	1,619
594,05	1,763
594,25	2,369
594,45	2,788
594,65	3,239
594,85	4,148
595,06	5,418
595,26	6,309
595,46	7,606
595,66	8,905
595,86	11,074
596,06	12,550
596,26	14,883
596,46	17,529
596,66	19,837
596,87	22,682
597,07	25,561
597,27	28,639
597,47	31,781
597,67	34,181
597,87	36,537
598,07	39,423
598,27	41,674
598,47	44,431
598,67	47,282
598,88	49,248
599,08	51,911
599,28	54,161
599,48	57,353
599,68	60,223
599,88	62,792
600,08	66,340
600,28	70,114
600,48	74,197
600,68	76,900
600,88	80,555
601,09	83,153
601,29	84,076
601,49	88,482
601,69	89,318
601,89	91,394
602,09	92,637
602,29	93,557
602,49	94,805
602,69	95,141
602,89	95,284
603,09	95,813
603,29	96,366
603,49	96,522
603,69	96,260
603,90	96,022
604,10	97,297
604,30	96,361
604,50	96,741
604,70	96,562
604,90	96,774
605,10	96,630
605,30	97,372
605,50	98,484
605,70	97,646
605,90	98,076
606,10	97,319
606,30	97,827
606,50	97,952
606,70	98,803
606,90	97,776
607,10	98,298
607,30	98,970
607,50	98,095
607,70	98,550
607,90	97,893
608,10	98,533
608,30	97,823
608,50	98,668
608,70	97,583
608,90	98,284
609,11	98,049
609,31	97,552
609,51	98,441
609,71	98,304
609,91	98,413
610,11	97,666
610,31	98,195
610,51	98,373
610,71	99,125
610,91	98,741
611,11	98,727
611,31	99,171
611,51	98,044
611,71	99,405
611,91	98,372
612,11	99,349
612,31	99,113
612,51	98,671
612,71	98,820
612,91	98,624
613,11	98,434
613,31	98,255
613,51	98,132
613,71	98,308
613,91	98,310
614,11	99,008
614,31	98,195
614,50	98,130
614,70	98,062
614,90	97,770
615,10	97,153
615,30	98,214
615,50	96,972
615,70	96,800
615,90	96,570
616,10	96,126
616,30	96,321
616,50	95,842
616,70	95,687
616,90	96,336
617,10	95,853
617,30	95,986
617,50	96,103
617,70	96,343
617,90	96,516
618,10	95,483
618,30	96,496
618,50	95,410
618,70	96,606
618,90	97,466
619,10	96,749
619,30	97,165
619,49	97,581
619,69	96,709
619,89	96,622
620,09	96,967
620,29	98,163
620,49	97,707
620,69	98,735
620,89	98,484
621,09	98,521
621,29	98,829
621,49	99,050
621,69	97,943
621,89	98,628
622,09	97,899
622,29	98,110
622,48	99,386
622,68	98,302
622,88	97,973
623,08	97,471
623,28	98,149
623,48	98,435
623,68	98,852
623,88	98,566
624,08	97,940
624,28	99,103
624,48	98,118
624,67	97,327
624,87	97,034
625,07	97,699
625,27	98,018
625,47	97,661
625,67	98,044
625,87	97,217
626,07	96,699
626,27	96,248
626,47	96,790
626,66	95,554
626,86	96,082
627,06	96,289
627,26	95,493
627,46	95,884
627,66	95,423
627,86	94,492
628,06	94,856
628,25	92,930
628,45	93,983
628,65	93,894
628,85	93,234
629,05	93,404
629,25	92,796
629,45	93,232
629,65	93,148
629,84	92,764
630,04	94,046
630,24	94,626
630,44	93,796
630,64	95,635
630,84	95,710
631,04	95,585
631,23	96,831
631,43	98,391
631,63	97,867
631,83	98,804
632,03	99,073
632,23	99,662
632,42	99,631
632,62	100,684
632,82	100,175
633,02	100,725
633,22	101,427
633,42	101,133
633,62	101,420
633,81	102,313
634,01	100,852
634,21	100,658
634,41	100,920
634,61	99,483
634,80	99,379
635,00	98,695
635,20	99,057
635,40	97,833
635,60	97,032
635,80	97,030
635,99	96,903
636,19	96,098
636,39	96,095
636,59	95,014
636,79	94,444
636,98	94,126
637,18	94,099
637,38	92,649
637,58	93,645
637,78	91,615
637,97	92,341
638,17	91,713
638,37	91,776
638,57	90,122
638,77	89,789
638,96	89,479
639,16	87,538
639,36	87,141
639,56	86,307
639,76	85,376
639,95	84,772
640,15	82,060
640,35	81,469
640,55	80,120
640,75	77,072
640,94	76,037
641,14	74,083
641,34	72,663
641,54	69,716
641,73	66,864
641,93	65,933
642,13	63,526
642,33	62,738
642,53	60,049
642,72	59,260
642,92	57,889
643,12	56,458
643,32	55,273
643,51	53,858
643,71	53,033
643,91	50,938
644,11	51,111
644,30	49,114
644,50	49,045
644,70	47,915
644,90	48,280
645,09	47,245
645,29	46,636
645,49	46,211
645,69	44,834
645,88	44,495
646,08	43,061
646,28	42,297
646,48	40,601
646,67	40,681
646,87	38,908
647,07	38,076
647,26	36,421
647,46	34,516
647,66	33,311
647,86	31,826
648,05	30,446
648,25	27,914
648,45	26,392
648,65	24,547
648,84	22,565
649,04	20,439
649,24	19,677
649,43	17,698
649,63	16,219
649,83	14,788
650,03	13,062
650,22	11,697
650,42	10,958
650,62	9,309
650,81	8,207
651,01	7,475
651,21	7,069
651,40	5,922
651,60	5,476
651,80	4,437
652,00	4,389
652,19	3,811
652,39	3,766
652,59	3,163
652,78	2,819
652,98	2,127
653,18	2,287
653,37	1,985
653,57	2,062
653,77	1,798
653,96	1,463
654,16	1,793
654,36	1,749
654,55	1,958
654,75	1,273
654,95	1,353
655,14	1,084
655,34	1,314
655,54	1,437
655,73	0,959
655,93	1,005
656,13	1,019
656,32	0,672
656,52	1,101
656,72	1,417
656,91	1,106
657,11	1,190
657,31	0,661
657,50	1,336
657,70	1,433
657,90	0,826
658,09	1,006
658,29	1,264
658,49	0,801
658,68	1,303
658,88	1,347
659,07	1,147
659,27	0,900
659,47	1,303
659,66	0,531
659,86	1,308
660,06	1,195
660,25	0,653
660,45	1,182
660,64	0,840
660,84	0,706
661,04	1,023
661,23	1,459
661,43	1,191
661,63	1,716
661,82	0,718
662,02	1,042
662,21	1,170
662,41	0,580
662,61	1,100
662,80	0,423
663,00	0,952
663,19	1,062
663,39	1,142
663,59	1,524
663,78	0,858
663,98	1,151
664,17	0,754
664,37	1,304
664,57	0,808
664,76	1,347
664,96	0,823
665,15	0,507
665,35	1,051
665,55	0,855
665,74	0,846
665,94	0,949
666,13	1,368
666,33	0,525
666,53	1,352
666,72	0,579
666,92	1,106
667,11	1,011
667,31	0,824
667,50	0,874
667,70	0,823
667,90	1,042
668,09	0,995
668,29	0,870
668,48	1,015
668,68	1,157
668,87	0,791
669,07	1,016
669,26	1,168
669,46	0,868
669,66	1,007
669,85	0,857
670,05	0,879
670,24	0,933
670,44	1,011
670,63	1,204
670,83	1,019
671,02	1,168
671,22	1,154
671,42	0,896
671,61	0,660
671,81	0,640
672,00	1,211
672,20	0,791
672,39	1,024
672,59	0,628
672,78	0,923
672,98	0,801
673,17	0,853
673,37	0,688
673,56	0,559
673,76	0,804
673,95	0,503
674,15	0,584
674,34	0,664
674,54	0,647
674,73	0,952
674,93	1,021
675,13	0,438
675,32	0,980
675,52	0,852
675,71	0,488
675,91	0,766
676,10	0,562
676,30	0,688
676,49	0,699
676,69	0,727
676,88	0,959
677,08	0,556
677,27	0,603
677,47	0,661
677,66	0,929
677,86	0,667
678,05	0,852
678,24	0,148
678,44	0,905
678,63	0,594
678,83	0,586
679,02	0,745
679,22	0,449
679,41	0,724
679,61	0,406
679,80	0,433
680,00	0,673
680,19	0,609
680,39	0,712
680,58	0,514
680,78	0,627
680,97	0,535
681,17	0,564
681,36	0,543
681,56	0,802
681,75	0,539
681,94	0,651
682,14	0,876
682,33	0,580
682,53	0,892
682,72	0,715
682,92	0,745
683,11	0,564
683,31	0,432
683,50	0,721
683,69	0,511
683,89	0,501
684,08	0,538
684,28	0,360
684,47	0,461
684,67	0,390
684,86	0,196
685,06	0,460
685,25	0,334
685,44	0,235
685,64	0,331
685,83	0,521
686,03	0,354
686,22	0,187
686,42	0,286
686,61	0,471
686,80	0,460
687,00	0,415
687,19	0,659
687,39	0,250
687,58	0,496
687,77	0,223
687,97	0,511
688,16	0,247
688,36	0,507
688,55	0,344
688,74	0,544
688,94	0,365
689,13	0,549
689,33	0,200
689,52	0,396
689,71	0,489
689,91	0,265
690,10	0,395
690,30	0,489
690,49	0,407
690,68	0,510
690,88	0,592
691,07	0,294
691,27	0,512
691,46	0,291
691,65	0,544
691,85	0,535
692,04	0,254
692,23	0,252
692,43	0,363
692,62	0,440
692,82	0,441
693,01	0,328
693,20	0,469
693,40	0,390
693,59	0,248
693,78	0,288
693,98	0,237
694,17	0,176
694,36	0,613
694,56	0,531
694,75	0,168
694,94	0,277
695,14	0,468
695,33	0,380
695,53	0,630
695,72	0,542
695,91	0,465
696,11	0,416
696,30	0,399
696,49	0,425
696,69	0,533
696,88	0,397
697,07	0,255
697,27	0,389
697,46	0,573
697,65	0,649
697,85	0,452
698,04	0,596
698,23	0,680
698,43	0,632
698,62	0,259
698,81	0,438
699,01	0,944
699,20	0,595
699,39	0,770
699,58	1,020
699,78	0,654
699,97	0,649
700,16	0,879
700,36	0,850
700,55	1,330
700,74	0,657
700,94	0,904
701,13	0,847
701,32	1,549
701,52	1,098
701,71	0,618
701,90	1,501
702,09	1,462
702,29	1,368
702,48	1,278
702,67	0,918
702,87	1,090
703,06	1,644
703,25	1,286
703,44	1,057
703,64	2,071
703,83	2,591
704,02	1,701
704,22	1,745
704,41	1,852
704,60	1,935
704,79	1,773
704,99	2,122
705,18	1,691
705,37	1,858
705,56	2,246
705,76	2,429
705,95	2,439
706,14	2,311
706,33	2,433
706,53	2,314
706,72	1,534
706,91	2,106
707,11	2,209
707,30	3,629
707,49	2,911
707,68	2,341
707,88	2,635
708,07	2,305
708,26	3,166
708,45	3,044
708,64	3,520
708,84	3,566
709,03	2,766
709,22	3,339
709,41	3,343
709,61	2,660
709,80	2,735
709,99	3,039
710,18	3,918
710,38	3,784
710,57	2,368
710,76	2,570
710,95	3,581
711,14	4,774
711,34	4,767
711,53	3,953
711,72	3,035
711,91	3,419
712,11	4,911
712,30	4,079
712,49	5,643
712,68	4,301
712,87	5,591
713,07	6,177
713,26	4,506
713,45	3,502
713,64	4,989
713,83	3,844
714,03	5,640
714,22	6,006
714,41	4,784
714,60	6,329
714,79	5,949
714,99	3,593
715,18	5,028
715,37	6,633
715,56	5,527
715,75	4,969
715,94	6,733
716,14	4,050
716,33	5,927
716,52	5,260
716,71	7,765
716,90	7,082
717,10	5,344
717,29	4,857
717,48	7,436
717,67	6,284
717,86	4,697
718,05	3,118
718,24	8,868
718,44	7,642
718,63	5,725
718,82	8,312
719,01	6,675
719,20	3,152
719,39	9,171
719,59	4,659
719,78	3,721
719,97	10,181
720,16	6,785
720,35	7,233
720,54	8,322
720,73	6,648
720,93	9,677
721,12	3,985
721,31	8,549
721,50	7,715
721,69	7,893
721,88	8,673
722,07	5,505
722,27	8,130
722,46	8,394
722,65	7,604
722,84	6,515
723,03	2,997
723,22	6,677
723,41	6,655
723,60	7,435
723,79	7,656
723,99	11,082
724,18	11,012
724,37	7,730
724,56	10,705
724,75	9,893
724,94	10,288
725,13	13,581
725,32	7,129
725,51	9,051
725,71	8,523
725,90	9,390
726,09	10,063
726,28	11,090
726,47	9,375
726,66	11,628
726,85	8,094
727,04	7,996
727,23	8,748
727,42	16,390
727,61	5,397
727,81	9,698
728,00	10,761
728,19	7,551
728,38	10,691
728,57	7,442
728,76	13,152
728,95	13,170
729,14	8,720
729,33	14,160
729,52	14,398
729,71	11,825
729,90	7,922
730,09	15,654
730,28	15,820
730,48	12,413
730,67	16,929
730,86	10,199
731,05	13,084
731,24	13,219
731,43	6,289
731,62	13,910
731,81	10,801
732,00	12,706
732,19	10,600
732,38	10,209
732,57	13,896
732,76	11,071
732,95	13,067
733,14	9,363
733,33	12,363
733,52	15,012
733,71	11,494
733,90	16,710
734,09	12,984
734,28	17,517
734,47	14,474
734,66	15,061
734,85	14,184
735,04	17,439
735,23	13,492
735,42	14,986
735,61	20,000
735,81	18,621
736,00	17,922
736,19	16,568
736,38	11,259
736,57	22,702
736,76	11,318
736,95	13,939
737,14	22,188
737,33	19,101
737,52	17,044
737,71	14,744
737,90	13,767
738,09	16,411
738,28	21,053
738,47	13,889
738,66	18,594
738,85	14,089
739,04	21,222
739,22	20,439
739,41	20,323
739,60	14,883
739,79	15,753
739,98	17,604
740,17	16,497
740,36	21,607
740,55	20,282
740,74	17,565
740,93	19,919
741,12	18,750
741,31	22,610
741,50	13,936
741,69	16,296
741,88	15,400
742,07	14,982
742,26	12,360
742,45	23,913
742,64	29,317
742,83	18,511
743,02	17,117
743,21	32,998
743,40	20,154
743,59	19,467
743,78	20,087
743,97	28,759
744,16	14,412
744,34	19,488
744,53	15,779
744,72	23,285
744,91	11,158
745,10	18,605
745,29	23,877
745,48	16,634
745,67	16,090
745,86	16,197
746,05	22,374
746,24	27,451
746,43	30,733
746,62	15,899
746,81	29,909
747,00	25,052
747,18	31,209
747,37	28,998
747,56	20,674
747,75	24,070
747,94	29,978
748,13	28,311
748,32	30,128
748,51	27,314
748,70	24,460
748,89	13,043
749,08	18,286
749,26	25,776
749,45	32,941
749,64	18,114
749,83	18,830
750,02	32,044
750,21	24,633
750,40	24,479
750,59	29,953
750,78	35,503
750,96	23,464
751,15	17,486
751,34	38,482
751,53	32,512
751,72	28,841
751,91	20,548
752,10	19,136
752,29	26,554
752,47	20,787
752,66	28,169
752,85	26,316
753,04	21,767
753,23	15,232
753,42	27,660
753,61	30,719
753,80	24,932
753,98	35,088
754,17	30,675
754,36	28,249
754,55	23,824
754,74	38,150
754,93	18,444
755,12	25,867
755,30	30,194
755,49	33,945
755,68	34,006
755,87	23,423
756,06	45,810
756,25	29,524
756,43	22,069
756,62	33,531
756,81	39,604
757,00	26,087
757,19	29,452
757,38	26,814
757,56	45,161
757,75	48,039
757,94	27,129
758,13	39,286
758,32	42,803
758,51	36,029
758,69	29,200
758,88	33,934
759,07	38,351
759,26	26,047
759,45	34,934
759,63	49,814
759,82	44,108
760,01	22,074
760,20	28,405
760,39	46,642
760,57	56,612
760,76	32,432
760,95	31,481
761,14	43,673
761,33	43,750
761,51	46,953
761,70	41,034
761,89	42,623
762,08	63,721
762,27	39,194
762,45	45,136
762,64	30,769
762,83	42,478
763,02	48,837
763,21	36,638
763,39	39,592
763,58	31,321
763,77	52,124
763,96	55,422
764,14	55,417
764,33	34,432
764,52	57,940
764,71	26,457
764,89	25,980
765,08	50,431
765,27	56,506
765,46	28,261
765,65	44,541
765,83	48,052
766,02	43,830
766,21	45,304
766,40	46,667
766,58	49,593
766,77	49,751
766,96	57,273
767,15	57,971
767,33	36,257
767,52	46,951
767,71	57,826
767,90	49,438
768,08	45,525
768,27	47,000
768,46	56,250
768,64	61,658
768,83	61,979
769,02	58,000
769,21	45,852
769,39	84,302
769,58	61,272
769,77	62,835
769,96	39,267
770,14	53,061
770,33	49,065
770,52	31,746
770,70	56,667
770,89	73,826
771,08	52,966
771,27	73,711
771,45	49,123
771,64	73,438
771,83	52,804
772,01	31,325
772,20	71,357
772,39	58,000
772,57	68,217
772,76	48,889
772,95	64,539
773,14	66,129
773,32	63,871
773,51	66,667
773,70	88,750
773,88	100,000
774,07	56,545
774,26	51,064
774,44	46,341
774,63	60,406
774,82	56,707
775,00	55,333
775,19	58,400
775,38	82,081
775,56	61,979
775,75	84,337
775,94	66,456
776,12	39,779
776,31	48,235
776,50	67,614
776,68	75,789
776,87	59,659
777,06	76,552
777,24	67,222
777,43	71,154
777,62	91,176
777,80	83,784
777,99	91,429
778,18	88,119
778,36	80,000
778,55	78,512
778,74	83,333
778,92	73,373
779,11	84,167
779,29	74,214
779,48	60,544
779,67	43,411
779,85	78,049
780,04	64,865
780,23	87,770
780,41	59,375
780,60	45,263
780,79	80,791
780,97	73,684
781,16	71,515
781,34	100,000
781,53	76,923
781,72	70,073
781,90	73,437
782,09	73,548
782,28	100,730
782,46	71,111
782,65	86,429
782,83	89,888
783,02	100,000
783,21	96,000
783,39	118,261
783,58	73,964
783,76	77,095
783,95	54,545
784,14	78,146
784,32	57,718
784,51	83,621
784,69	94,915
784,88	106,306
785,06	65,546
785,25	88,535
785,44	74,820
785,62	91,429
785,81	90,141
785,99	96,403
786,18	54,054
786,37	97,037
786,55	65,138
786,74	74,342
786,92	86,719
787,11	90,000
787,29	105,224
787,48	64,000
787,67	68,675
787,85	56,897
788,04	72,277
788,22	77,869
788,41	127,059
788,59	114,679
788,78	94,545
788,96	102,830
789,15	123,158
789,34	71,818
789,52	64,602
789,71	85,271
789,89	180,851
790,08	75,342
790,26	68,571
790,45	63,636
790,63	77,778
790,82	71,515
791,00	74,306
791,19	62,366
791,38	106,250
791,56	71,053
791,75	126,606
791,93	86,207
792,12	101,775
792,30	112,000
792,49	72,269
792,67	90,299
792,86	86,047
793,04	87,850
793,23	79,167
793,41	117,722
793,60	101,010
793,78	98,246
793,97	88,462
794,15	81,818
794,34	86,813
794,52	116,883
794,71	164,198
794,89	101,111
795,08	87,379
795,26	81,667
795,45	110,448
795,63	124,242
795,82	95,327
796,00	109,174
796,19	108,333
796,37	133,577
796,56	91,398
796,74	115,929
796,93	116,854
797,11	87,342
797,30	84,167
797,48	83,448
797,67	130,000
797,85	85,714
798,04	117,708
798,22	88,889
798,41	150,980
798,59	147,368
798,77	127,692
798,96	98,925
799,14	123,276
799,33	122,901
799,51	84,615
799,70	103,356
799,88	159,091
800,07	94,079
800,25	86,897
800,44	69,697
800,62	149,412
800,80	95,652
800,99	144,444
801,17	111,207
801,36	91,034
801,54	123,958
801,73	73,737
801,91	96,721
802,10	130,952
802,28	130,841
802,46	64,198
802,65	124,138
802,83	113,483
803,02	156,842
803,20	89,844
803,39	100,000
803,57	106,024
803,75	60,135
803,94	85,714
804,12	94,167
804,31	105,310
804,49	85,577
804,67	79,200
804,86	93,750
805,04	106,757
805,23	99,310
805,41	102,459
805,59	86,885
805,78	90,909
805,96	83,333
806,15	99,219
806,33	100,840
806,51	112,389
806,70	205,000
806,88	61,789
807,07	79,365
807,25	80,503
807,43	85,430
807,62	83,740
807,80	124,731
807,99	88,095
808,17	96,454
808,35	94,737
808,54	131,183
808,72	118,400
808,90	159,211
809,09	97,500
809,27	79,279
809,46	100,000
809,64	75,490
809,82	90,805
810,01	110,606
810,19	105,000
810,37	77,692
810,56	160,976
810,74	77,483
810,92	120,455
811,11	178,431
811,29	87,943
811,48	129,293
811,66	98,450
811,84	118,349
812,03	94,545
812,21	103,846
812,39	80,508
812,58	109,804
812,76	86,916
812,94	107,333
813,13	102,381
813,31	78,333
813,49	129,348
813,68	112,174
813,86	132,653
814,04	118,447
814,23	148,485
814,41	91,176
814,59	85,311
814,78	91,176
814,96	109,910
815,14	112,222
815,33	117,391
815,51	67,407
815,69	111,111
815,87	86,087
816,06	77,500
816,24	78,146
816,42	51,923
816,61	83,051
816,79	145,783
816,97	100,901
817,16	70,968
817,34	77,931
817,52	80,690
817,70	129,365
817,89	98,347
818,07	116,379
818,25	88,288
818,44	60,465
818,62	84,483
818,80	117,483
818,98	88,571
819,17	92,308
819,35	78,824
819,53	114,851
819,72	79,651
819,90	93,413
820,08	64,286
820,26	112,281
820,45	66,265
820,63	73,437
820,81	65,772
820,99	95,489
821,18	60,000
821,36	85,714
821,54	55,233
821,73	77,838
821,91	46,809
822,09	84,706
822,27	49,239
822,46	80,625
822,64	70,199
822,82	60,000
823,00	78,378
823,19	65,909
823,37	107,857
823,55	77,647
823,73	73,333
823,91	71,271
824,10	78,212
824,28	50,370
824,46	70,930
824,64	66,176
824,83	63,415
825,01	63,043
825,19	61,714
825,37	68,229
825,56	78,750
825,74	73,810
825,92	69,663
826,10	72,050
826,28	68,456
826,47	109,756
826,65	91,892
826,83	60,753
827,01	33,333
827,19	63,924
827,38	90,155
827,56	83,173
827,74	50,813
827,92	73,171
828,10	57,065
828,29	68,571
828,47	57,456
828,65	58,919
828,83	52,020
829,01	90,667
829,20	60,127
829,38	46,058
829,56	57,085
829,74	93,939
829,92	53,093
830,10	68,919
830,29	79,459
830,47	77,604
830,65	45,982
830,83	56,000
831,01	51,250
831,20	61,881
831,38	52,683
831,56	36,437
831,74	74,857
831,92	72,727
832,10	53,182
832,29	61,611
832,47	57,080
832,65	54,894
832,83	59,535
833,01	38,735
833,19	56,109
833,37	62,963
833,56	68,075
833,74	56,680
833,92	46,903
834,10	77,157
834,28	51,154
834,46	49,481
834,64	53,906
834,83	41,297
835,01	71,206
835,19	42,180
835,37	42,231
835,55	52,347
835,73	54,779
835,91	38,610
836,09	42,324
836,28	59,924
836,46	45,614
836,64	45,082
836,82	36,940
837,00	53,061
837,18	48,221
837,36	61,497
837,54	49,621
837,72	35,857
837,91	41,365
838,09	43,600
838,27	46,154
838,45	54,693
838,63	30,508
838,81	55,263
838,99	52,613
839,17	49,838
839,35	31,481
839,53	42,282
839,72	31,356
839,90	35,866
840,08	56,410
840,26	51,735
840,44	22,222
840,62	25,253
840,80	39,198
840,98	40,483
841,16	31,317
841,34	35,362
841,52	30,990
841,70	26,263
841,89	45,806
842,07	31,622
842,25	39,286
842,43	35,484
842,61	37,802
842,79	41,768
842,97	24,085
843,15	47,564
843,33	32,779
843,51	42,005
843,69	32,222
843,87	36,119
844,05	35,310
844,23	35,135
844,41	35,930
844,59	30,966
844,77	26,801
844,95	25,728
845,13	35,792
845,31	32,123
845,50	31,186
845,68	28,238
845,86	38,679
846,04	28,148
846,22	30,788
846,40	16,535
846,58	24,933
846,76	26,434
846,94	27,163
847,12	33,175
847,30	37,558
847,48	26,859
847,66	30,976
847,84	31,980
848,02	30,146
848,20	32,671
848,38	26,471
848,56	31,828
848,74	24,380
848,92	19,833
849,10	32,366
849,28	30,937
849,46	29,439
849,64	26,905
849,82	17,548
850,00	17,248
850,18	18,476
850,36	24,123
850,54	33,408
850,72	32,848
850,90	27,251
851,08	22,016
851,26	31,579
851,44	23,494
851,62	22,737
851,80	21,670
851,98	35,597
852,16	34,362
852,34	28,083
852,52	17,296
852,70	15,863
852,87	21,143
853,05	20,641
853,23	21,961
853,41	8,793
853,59	20,189
853,77	22,222
853,95	26,907
854,13	20,194
854,31	26,527
854,49	15,030
854,67	24,436
854,85	20,000
855,03	19,923
855,21	24,704
855,39	21,812
855,57	27,536
855,75	26,138
855,93	22,615
856,11	25,199
856,28	22,049
856,46	13,889
856,64	22,977
856,82	10,820
857,00	20,069
857,18	20,344
857,36	23,361
857,54	20,270
857,72	19,366
857,90	18,781
858,08	17,747
858,26	12,691
858,44	18,789
858,61	15,078
858,79	19,535
858,97	19,771
859,15	17,199
859,33	13,804
859,51	16,933
859,69	18,452
859,87	20,644
860,05	18,828
860,23	11,667
860,40	16,897
860,58	14,224
860,76	17,797
860,94	16,794
861,12	15,297
861,30	17,921
861,48	18,414
861,66	21,991
861,84	13,547
862,01	24,198
862,19	19,648
862,37	12,245
862,55	15,877
862,73	15,897
862,91	13,586
863,09	15,345
863,27	16,574
863,44	11,788
863,62	13,184
863,80	14,215
863,98	12,771
864,16	14,550
864,34	12,987
864,52	13,667
864,69	19,398
864,87	15,852
865,05	10,682
865,23	14,130
865,41	11,800
865,59	19,036
865,76	17,442
865,94	13,048
866,12	16,874
866,30	9,202
866,48	12,095
866,66	12,473
866,83	14,333
867,01	14,850
867,19	13,886
867,37	13,085
867,55	15,917
867,73	16,743
867,90	15,338
868,08	13,290
868,26	7,754
868,44	10,944
868,62	13,062
868,79	10,173
868,97	12,473
869,15	16,030
869,33	10,695
869,51	13,694
869,69	11,992
869,86	11,487
870,04	8,042
870,22	10,718
870,40	13,434
870,57	13,300
870,75	11,877
870,93	10,302
871,11	9,156
871,29	9,045
871,46	11,581
871,64	8,902
871,82	10,829
872,00	12,859
872,18	10,613
872,35	12,478
872,53	12,571
872,71	8,758
872,89	10,195
873,06	9,779
873,24	13,419
873,42	10,663
873,60	3,673
873,77	10,320
873,95	13,790
874,13	12,165
874,31	9,982
874,49	11,508
874,66	9,278
874,84	6,217
875,02	12,042
875,20	11,570
875,37	5,111
875,55	6,943
875,73	7,506
875,91	12,656
876,08	5,892
876,26	8,493
876,44	9,185
876,61	8,626
876,79	11,449
876,97	8,091
877,15	13,893
877,32	7,165
877,50	10,542
877,68	9,992
877,86	12,606
878,03	10,054
878,21	12,021
878,39	8,667
878,56	8,260
878,74	4,338
878,92	7,715
879,10	5,917
879,27	6,865
879,45	9,377
879,63	6,560
879,80	9,653
879,98	6,121
880,16	6,458
880,34	7,698
880,51	9,767
880,69	5,781
880,87	5,017
881,04	4,513
881,22	9,289
881,40	5,091
881,57	6,114
881,75	7,908
881,93	4,974
882,10	9,673
882,28	7,094
882,46	8,262
882,63	8,920
882,81	7,701
882,99	5,919
883,16	6,591
883,34	7,666
883,52	3,454
883,69	6,797
883,87	9,117
884,05	4,255
884,22	6,655
884,40	6,046
884,58	6,257
884,75	5,694
884,93	7,749
885,11	5,332
885,28	6,294
885,46	6,525
885,64	5,864
885,81	9,225
885,99	7,511
886,17	5,172
886,34	6,293
886,52	5,904
886,70	5,109
886,87	7,250
887,05	5,742
887,22	5,741
887,40	5,981
887,58	7,015
887,75	6,929
887,93	4,948
888,11	3,411
888,28	5,405
888,46	4,943
888,63	5,391
888,81	4,567
888,99	3,081
889,16	3,994
889,34	6,204
889,51	6,051
889,69	3,009
889,87	3,289
890,04	6,278
890,22	4,717
890,39	2,256
890,57	4,768
890,75	6,199
890,92	5,216
891,10	5,594
891,27	4,809
891,45	6,292
891,63	4,467
891,80	4,484
891,98	7,555
892,15	5,118
892,33	3,354
892,51	5,449
892,68	4,864
892,86	3,614
893,03	6,185
893,21	4,773
893,38	3,737
893,56	4,830
893,74	4,062
893,91	3,587
894,09	5,934
894,26	5,878
894,44	3,590
894,61	4,884
894,79	4,275
894,96	5,261
895,14	4,745
895,32	4,338
895,49	4,767
895,67	4,165
895,84	4,236
896,02	4,213
896,19	3,407
896,37	6,771
896,54	3,903
896,72	5,085
896,89	5,681
897,07	3,708
897,25	4,429
897,42	2,912
897,60	5,009
897,77	5,773
897,95	4,195
898,12	2,371
898,30	4,183
898,47	3,557
898,65	3,682
898,82	3,569
899,00	4,082
899,17	2,783
899,35	4,203
899,52	4,470
899,70	2,974
899,87	3,593
900,05	5,727
900,22	2,818
900,40	3,507
900,57	4,833
900,75	2,805
900,92	3,118
901,10	4,650
901,27	3,072
901,45	4,724
901,62	4,269
901,80	4,247
901,97	4,373
902,15	6,138
902,32	3,282
902,50	2,797
902,67	3,987
902,85	4,116
903,02	5,308
903,20	2,442
903,37	4,407
903,54	4,997
903,72	3,587
903,89	3,197
904,07	3,717
904,24	3,704
904,42	2,821
904,59	2,879
904,77	3,116
904,94	3,473
905,12	1,616
905,29	3,352
905,47	4,620
905,64	3,201
905,81	3,388
905,99	2,669
906,16	3,788
906,34	3,397
906,51	3,897
906,69	2,049
906,86	4,004
907,03	3,178
907,21	3,177
907,38	1,873
907,56	2,591
907,73	4,948
907,91	4,315
908,08	4,547
908,25	2,469
908,43	3,408
908,60	2,673
908,78	4,935
908,95	4,375
909,13	4,177
909,30	1,216
909,47	3,467
909,65	3,618
909,82	3,617
910,00	2,741
910,17	2,996
910,34	3,781
910,52	2,142
910,69	4,503
910,87	2,889
911,04	2,542
911,21	2,717
911,39	3,736
911,56	4,230
911,73	3,389
911,91	4,441
912,08	3,872
912,26	2,149
912,43	2,709
912,60	3,341
912,78	3,826
912,95	3,261
913,13	3,078
913,30	2,554
913,47	3,360
913,65	1,599
913,82	2,682
913,99	1,970
914,17	2,757
914,34	3,658
914,51	3,676
914,69	3,287
914,86	4,419
915,03	3,580
915,21	2,911
915,38	3,106
915,56	3,153
915,73	1,882
915,90	4,001
916,08	2,480
916,25	2,407
916,42	2,696
916,60	1,755
916,77	3,430
916,94	3,393
917,12	3,650
917,29	2,618
917,46	2,570
917,64	2,620
917,81	3,001
917,98	2,522
918,16	3,671
918,33	2,917
918,50	3,082
918,67	2,120
918,85	2,321
919,02	2,540
919,19	3,420
919,37	2,077
919,54	2,858
919,71	3,220
919,89	1,488
920,06	1,659
920,23	3,312
920,41	3,087
920,58	2,716
920,75	2,249
920,92	1,658
921,10	1,859
921,27	1,873
921,44	2,981
921,62	1,868
921,79	3,324
921,96	2,323
922,13	2,550
922,31	2,199
922,48	3,081
922,65	2,138
922,82	2,658
923,00	3,563
923,17	1,967
923,34	2,675
923,52	2,470
923,69	1,842
923,86	3,243
924,03	1,457
924,21	1,925
924,38	3,312
924,55	3,589
924,72	3,384
924,90	2,800
925,07	2,524
925,24	2,714
925,41	1,600
925,59	1,740
925,76	1,998
925,93	1,848
926,10	2,367
926,28	1,612
926,45	2,246
926,62	2,355
926,79	2,231
926,96	2,317
927,14	2,212
927,31	2,019
927,48	2,348
927,65	1,405
927,83	1,228
928,00	0,860
928,17	1,862
928,34	2,422
928,51	1,798
928,69	2,263
928,86	2,780
929,03	2,927
929,20	2,217
929,37	2,527
929,55	2,091
929,72	2,785
929,89	2,530
930,06	2,044
930,23	2,244
930,41	2,871
930,58	3,151
930,75	1,619
930,92	2,357
931,09	2,274
931,27	2,286
931,44	1,755
931,61	1,885
931,78	2,381
931,95	2,509
932,12	2,426
932,30	1,555
932,47	2,432
932,64	2,611
932,81	2,431
932,98	1,985
933,16	1,885
933,33	2,058
933,50	1,964
933,67	2,893
933,84	1,661
934,01	1,908
934,18	1,787
934,36	1,781
934,53	1,787
934,70	1,996
934,87	1,382
935,04	2,667
935,21	2,030
935,38	2,095
935,56	1,605
935,73	1,872
935,90	0,589
936,07	2,269
936,24	2,619
936,41	2,121
936,58	0,919
936,76	2,340
936,93	1,399
937,10	1,861
937,27	1,630
937,44	1,661
937,61	1,941
937,78	1,763
937,95	1,473
938,13	1,889
938,30	1,687
938,47	2,539
938,64	2,040
938,81	2,112
938,98	1,806
939,15	1,565
939,32	1,900
939,49	2,369
939,66	2,786
939,84	2,439
940,01	2,091
940,18	2,030
940,35	2,261
940,52	1,501
940,69	2,733
940,86	1,394
941,03	2,016
941,20	2,247
941,37	2,270
941,54	0,573
941,71	0,693
941,89	2,846
942,06	1,707
942,23	2,661
942,40	1,961
942,57	2,420
942,74	2,334
942,91	1,654
943,08	3,346
943,25	2,158
943,42	2,439
943,59	1,945
943,76	3,547
943,93	2,016
944,10	1,779
944,27	1,837
944,44	1,914
944,61	1,510
944,79	1,566
944,96	2,848
945,13	1,750
945,30	2,283
945,47	3,276
945,64	2,907
945,81	3,706
945,98	2,419
946,15	2,902
946,32	1,972
946,49	2,281
946,66	2,438
946,83	2,654
947,00	2,272
947,17	3,199
947,34	3,164
947,51	2,288
947,68	3,427
947,85	2,416
948,02	2,531
948,19	4,041
948,36	3,357
948,53	2,838
948,70	3,781
948,87	3,624
949,04	2,711
949,21	3,676
949,38	3,265
949,55	3,180
949,72	3,905
949,89	2,627
950,06	2,390
950,23	3,588
950,40	2,352
950,57	1,660
950,74	4,905
950,91	3,884
951,08	2,949
951,25	2,219
951,42	5,209
951,59	2,530
951,76	2,681
951,93	5,294
952,10	4,925
952,27	2,631
952,44	2,910
952,61	3,704
952,77	3,622
952,94	4,392
953,11	6,078
953,28	5,119
953,45	5,409
953,62	5,735
953,79	4,974
953,96	5,501
954,13	6,260
954,30	5,298
954,47	3,856
954,64	4,417
954,81	5,056
954,98	5,580
955,15	5,757
955,32	3,693
955,49	7,349
955,65	4,891
955,82	8,032
955,99	7,420
956,16	7,753
956,33	6,904
956,50	5,792
956,67	8,053
956,84	6,148
957,01	8,112
957,18	8,767
957,35	8,851
957,52	9,144
957,68	9,833
957,85	10,043
958,02	7,838
958,19	8,703
958,36	12,234
958,53	12,535
958,70	8,054
958,87	6,262
959,04	16,058
959,21	10,202
959,37	8,983
959,54	12,679
959,71	9,091
959,88	10,977
960,05	12,362
960,22	5,799
960,39	17,733
960,56	9,367
960,72	9,159
960,89	16,350
961,06	15,924
961,23	9,461
961,40	17,605
961,57	14,265
961,74	12,025
961,90	12,500
962,07	15,221
962,24	23,740
962,41	11,223
962,58	21,170
962,75	21,947
962,92	19,065
963,08	18,364
963,25	11,351
963,42	14,976
963,59	20,868
963,76	22,921
963,93	20,595
964,10	25,482
964,26	26,535
964,43	35,401
964,60	29,534
964,77	26,024
964,94	27,273
965,10	35,714
965,27	31,332
965,44	26,753
965,61	19,284
965,78	30,351
965,95	39,521
966,11	33,127
966,28	37,918
966,45	26,168
966,62	31,077
966,79	57,551
966,95	35,821
967,12	33,754
967,29	40,625
967,46	41,667
967,63	27,925
967,79	45,495
967,96	53,680
968,13	27,500
968,30	57,661
968,47	47,423
968,63	61,261
968,80	56,881
968,97	60,096
969,14	59,302
969,31	48,889
969,47	48,235
969,64	66,667
969,81	38,342
969,98	70,879
970,14	64,417
970,31	61,006
970,48	59,167
970,65	95,858
970,81	76,027
970,98	102,920
971,15	71,429
971,32	73,438
971,48	57,823
971,65	66,923
971,82	102,941
971,99	73,563
972,15	92,958
972,32	82,883
972,49	88,811
972,66	124,545
972,82	118,605
972,99	108,130
973,16	118,391
973,33	93,750
973,49	111,579
973,66	80,645
973,83	105,825
974,00	124,419
974,16	112,745
974,33	135,088
974,50	91,579
974,67	158,947
974,83	89,286
975,00	147,368
975,17	131,868
975,33	129,213
975,50	161,194
975,67	183,673
975,84	147,761
976,00	138,202
976,17	234,426
976,34	77,000
976,50	131,461
976,67	101,942
976,84	3200,000
977,00	267,347
977,17	228,889
977,34	182,418
977,50	147,761
977,67	167,857
977,84	161,290
978,01	174,468
978,17	777,778
978,34	188,889
978,51	305,882
978,67	194,737
978,84	113,281
979,01	332,432
979,17	192,308
979,34	137,671
979,51	230,612
979,67	187,654
979,84	289,796
980,01	275,556
980,17	246,479
980,34	333,333
980,51	197,101
980,67	116,471
980,84	423,333
981,01	595,000
981,17	488,000
981,34	833,333
981,50	192,647
981,67	230,508
981,84	6700,000
982,00	363,333
982,17	292,857
982,34	164,444
982,50	760,000
982,67	163,542
982,84	2200,000
983,00	1450,000
983,17	171,642
983,33	184,483
983,50	2140,000
983,67	-379,310
983,83	381,818
984,00	-971,429
984,17	850,000
984,33	-7550,000
984,50	368,571
984,66	230,435
984,83	202,597
985,00	-470,833
985,16	403,448
985,33	741,176
985,49	716,667
985,66	529,412
985,83	373,913
985,99	307,692
986,16	-2350,000
986,32	678,571
986,49	9200,000
986,66	378,788
986,82	700,000
986,99	218,868
987,15	-547,368
987,32	-239,286
987,49	232,000
987,65	7250,000
987,82	433,333
987,98	310,204
988,15	330,000
988,31	980,000
988,48	-1650,000
988,65	340,476
988,81	461,111
988,98	300,000
989,14	354,762
989,31	595,238
989,47	385,294
989,64	-969,231
989,80	718,750
989,97	286,486
990,14	-243,478
990,30	-468,182
990,47	304,082
990,63	236,111
990,80	194,000
990,96	-595,000
991,13	378,125
991,29	589,655
991,46	0,000
991,62	-915,385
991,79	858,333
991,95	11500,000
992,12	-1470,000
992,29	-681,250
992,45	205,882
992,62	262,791
992,78	304,545
992,95	-493,333
993,11	475,000
993,28	1530,000
993,44	-1160,000
993,61	-531,250
993,77	-3225,000
993,94	-3533,333
994,10	-114,667
994,27	894,737
994,43	267,442
994,60	0,000
994,76	3025,000
994,93	355,000
995,09	-864,706
995,26	855,556
995,42	225,490
995,59	600,000
995,75	776,923
995,92	1957,143
996,08	352,778
996,25	-1337,500
996,41	-5750,000
996,58	793,333
996,74	329,545
996,91	482,759
997,07	0,000
997,23	14400,000
997,40	-17900,000
997,56	-1053,846
997,73	-1462,500
997,89	344,737
998,06	1061,538
998,22	-727,778
998,39	668,000
998,55	1222,222
998,72	-1850,000
998,88	-336,667
999,05	-137,179
999,21	326,190
999,37	-913,333
999,54	-1375,000
999,70	-363,333
999,87	956,250
1000,03	484,615
1000,20	318,750
1000,36	0,000
1000,52	516,667
1000,69	-647,619
1000,85	-910,000
1001,02	-570,833
1001,18	2550,000
1001,35	1146,154
1001,51	741,176
1001,67	-984,615
1001,84	-2160,000
1002,00	383,784
1002,17	990,909
1002,33	-3350,000
1002,50	576,190
1002,66	-969,231
1002,82	320,000
1002,99	1164,286
1003,15	-1642,857
1003,32	-918,182
1003,48	285,714
1003,64	833,333
1003,81	533,333
1003,97	-3750,000
1004,14	1054,545
1004,30	333,333
1004,46	-700,000
1004,63	907,143
1004,79	361,111
1004,95	866,667
1005,12	5000,000
1005,28	541,379
1005,45	394,595
1005,61	427,586
1005,77	-283,333
1005,94	-395,238
1006,10	-5750,000
1006,26	915,385
1006,43	-415,385
1006,59	-900,000
1006,76	992,857
1006,92	1666,667
1007,08	13300,000
1007,25	-248,148
1007,41	558,621
1007,57	3150,000
1007,74	1220,000
1007,90	-565,517
1008,06	343,478
1008,23	970,588
1008,39	-568,750
1008,55	-307,692
1008,72	-1914,286
1008,88	0,000
1009,04	334,146
1009,21	-331,579
1009,37	-491,667
1009,53	285,714
1009,70	3633,333
1009,86	-871,429
1010,02	3666,667
1010,19	1181,818
1010,35	264,706
1010,51	-5200,000
1010,68	-1762,500
1010,84	-252,273
1011,00	725,000
1011,17	-454,545
1011,33	0,000
1011,49	-646,667
1011,66	792,857
1011,82	503,226
1011,98	907,143
1012,14	-1009,091
1012,31	351,282
1012,47	0,000
1012,63	2033,333
1012,80	728,571
1012,96	-787,500
1013,12	-2383,333
1013,29	422,222
1013,45	421,951
1013,61	4900,000
1013,77	-116,071
1013,94	2140,000
1014,10	242,373
1014,26	-2900,000
1014,43	-392,000
1014,59	670,000
1014,75	-600,000
1014,91	-693,333
1015,08	380,556
1015,24	12400,000
1015,40	741,176
1015,56	-12400,000
1015,73	190,476
1015,89	945,455
1016,05	3750,000
1016,21	-900,000
1016,38	784,211
1016,54	1084,615
1016,70	-4166,667
1016,86	521,875
1017,03	818,750
1017,19	-807,692
1017,35	-717,647
1017,51	-2080,000
1017,68	-1230,000
1017,84	-1571,429
1018,00	285,714
1018,16	507,692
1018,33	-1228,571
1018,49	-1025,000
1018,65	-251,351
1018,81	343,590
1018,97	-1442,857
1019,14	-2633,333
1019,30	-276,923
1019,46	0,000
1019,62	-735,294
1019,79	-3233,333
1019,95	1075,000
1020,11	6550,000
1020,27	-451,852
1020,43	-415,385
1020,60	2133,333
1020,76	727,778
1020,92	833,333
1021,08	655,000
1021,24	1050,000
1021,41	1388,889
1021,57	1375,000
1021,73	761,538
1021,89	2460,000
1022,05	-457,143
1022,21	565,000
1022,38	-850,000
1022,54	-2200,000
1022,70	351,111
1022,86	-1612,500
1023,02	462,500
1023,19	2860,000
1023,35	5066,667
1023,51	341,667
1023,67	455,556
1023,83	-618,750
1023,99	215,789
1024,16	-300,000
1024,32	-1066,667
1024,48	-1020,000
1024,64	335,714
1024,80	513,043
1024,96	394,872
1025,12	542,857
1025,29	557,143
1025,45	331,579
1025,61	827,778
1025,77	-2960,000
1025,93	-10600,000
1026,09	-1485,714
1026,26	975,000
1026,42	581,250
1026,58	390,909
1026,74	1616,667
1026,90	372,000
1027,06	328,571
1027,22	914,286
1027,38	280,769
1027,55	3600,000
1027,71	1900,000
1027,87	-388,000
1028,03	990,000
1028,19	293,750
1028,35	510,000
1028,51	2480,000
1028,67	1025,000
1028,83	-2500,000
1029,00	-202,381
1029,16	910,000
1029,32	-392,857
1029,48	251,111
1029,64	327,778
1029,80	4100,000
1029,96	973,333
1030,12	526,087
1030,28	-4366,667
1030,44	-838,462
1030,61	-441,667
1030,77	-245,714
1030,93	-853,333
1031,09	2333,333
1031,25	-10500,000
1031,41	-303,333
1031,57	326,923
1031,73	687,500
1031,89	-1245,455
1032,05	-314,815
1032,21	1109,091
1032,37	-192,593
1032,53	-764,286
1032,69	-283,333
1032,86	444,444
1033,02	-312,500
1033,18	-506,250
1033,34	521,053
1033,50	-6350,000
1033,66	-353,659
1033,82	547,826
1033,98	-455,556
1034,14	197,436
1034,30	283,871
1034,46	-4033,333
1034,62	555,000
1034,78	-538,095
1034,94	310,526
1035,10	-730,769
1035,26	-165,116
1035,42	-334,483
1035,58	-622,222
1035,74	1258,333
1035,90	-800,000
1036,06	-950,000
1036,22	1583,333
1036,38	-735,294
1036,54	-479,167
1036,70	-209,091
1036,86	11000,000
1037,02	694,444
1037,18	784,211
1037,34	164,762
1037,50	-190,244
1037,66	-605,882
1037,82	2780,000
1037,98	-522,222
1038,14	-364,000
1038,30	-1200,000
1038,46	-735,714
1038,62	773,913
1038,78	-3600,000
1038,94	-615,789
1039,10	331,818
1039,26	411,111
1039,42	-758,333
1039,58	1628,571
1039,74	-615,789
1039,90	490,625
1040,06	-311,538
>>>>>End Processed Spectral Data<<<<<
