SpectraSuite Data File
++++++++++++++++++++++++++++++++++++
Date: Wed Feb 01 16:19:54 EET 2017
User: optolab
Dark Spectrum Present: Yes
Reference Spectrum Present: Yes
Number of Sampled Component Spectra: 1
Spectrometers: USB4C02475
Integration Time (usec): 100000 (USB4C02475)
Spectra Averaged: 1 (USB4C02475)
Boxcar Smoothing: 0 (USB4C02475)
Correct for Electrical Dark: No (USB4C02475)
Strobe/Lamp Enabled: No (USB4C02475)
Correct for Detector Non-linearity: No (USB4C02475)
Correct for Stray Light: No (USB4C02475)
Number of Pixels in Processed Spectrum: 3648
>>>>>Begin Processed Spectral Data<<<<<
344,91	4800,000
345,13	4800,000
345,35	4800,000
345,57	0,000
345,79	342,105
346,00	-1811,111
346,22	-1842,857
346,44	417,647
346,66	-420,833
346,87	-11200,000
347,09	424,242
347,31	-604,545
347,53	-361,538
347,74	292,308
347,96	481,818
348,18	778,947
348,40	351,613
348,61	1282,353
348,83	288,095
349,05	274,510
349,27	-5750,000
349,48	646,154
349,70	-400,000
349,92	429,032
350,14	196,226
350,35	354,000
350,57	3150,000
350,79	504,000
351,01	-676,190
351,22	266,667
351,44	515,385
351,66	-336,000
351,87	-657,143
352,09	198,077
352,31	226,230
352,53	218,750
352,74	430,556
352,96	209,091
353,18	594,737
353,40	472,000
353,61	273,333
353,83	329,412
354,05	745,455
354,26	2166,667
354,48	256,000
354,70	403,030
354,92	-293,103
355,13	191,919
355,35	402,273
355,57	633,333
355,78	200,000
356,00	-4500,000
356,22	450,000
356,44	5850,000
356,65	363,636
356,87	438,462
357,09	741,667
357,30	311,111
357,52	313,793
357,74	845,000
357,95	423,077
358,17	249,180
358,39	224,194
358,60	364,865
358,82	679,167
359,04	470,370
359,26	494,286
359,47	12700,000
359,69	417,500
359,91	406,061
360,12	585,714
360,34	583,333
360,56	-70,370
360,77	3600,000
360,99	742,857
361,21	348,000
361,42	6800,000
361,64	228,571
361,86	269,231
362,07	-464,516
362,29	206,667
362,51	-600,000
362,72	536,000
362,94	394,118
363,16	367,442
363,37	-964,286
363,59	476,923
363,81	313,636
364,02	600,000
364,24	566,667
364,46	3233,333
364,67	954,545
364,89	2257,143
365,11	241,429
365,32	520,690
365,54	497,222
365,76	336,735
365,97	441,176
366,19	168,966
366,41	645,455
366,62	559,259
366,84	286,047
367,05	283,673
367,27	2416,667
367,49	-692,308
367,70	876,471
367,92	306,557
368,14	302,083
368,35	-11900,000
368,57	420,000
368,79	427,586
369,00	278,261
369,22	-1450,000
369,43	211,765
369,65	262,903
369,87	505,405
370,08	173,494
370,30	328,571
370,51	234,426
370,73	266,667
370,95	285,484
371,16	316,667
371,38	346,667
371,60	1587,500
371,81	275,000
372,03	766,667
372,24	473,333
372,46	164,151
372,68	150,000
372,89	390,909
373,11	442,308
373,32	318,182
373,54	-969,231
373,76	1084,615
373,97	853,333
374,19	500,000
374,40	325,000
374,62	-5266,667
374,84	4025,000
375,05	546,429
375,27	384,000
375,48	-13300,000
375,70	232,000
375,92	294,643
376,13	421,875
376,35	227,397
376,56	1093,750
376,78	245,833
376,99	414,286
377,21	295,833
377,43	236,364
377,64	255,072
377,86	527,586
378,07	412,821
378,29	-1337,500
378,51	548,387
378,72	229,167
378,94	-1533,333
379,15	357,576
379,37	888,235
379,58	256,923
379,80	1113,333
380,01	743,750
380,23	245,098
380,45	2220,000
380,66	4633,333
380,88	359,091
381,09	261,429
381,31	185,556
381,52	294,118
381,74	1455,556
381,95	500,000
382,17	550,000
382,39	580,952
382,60	214,286
382,82	348,718
383,03	326,923
383,25	458,065
383,46	356,818
383,68	348,148
383,89	835,000
384,11	409,677
384,32	-4166,667
384,54	661,111
384,76	-3466,667
384,97	430,303
385,19	493,103
385,40	333,333
385,62	203,509
385,83	402,381
386,05	221,569
386,26	336,000
386,48	206,897
386,69	302,083
386,91	685,000
387,12	249,153
387,34	272,414
387,55	224,194
387,77	509,375
387,98	496,154
388,20	190,217
388,41	517,647
388,63	10900,000
388,84	254,098
389,06	316,667
389,27	684,211
389,49	391,667
389,70	224,490
389,92	396,667
390,13	257,143
390,35	247,059
390,56	285,185
390,78	603,704
390,99	1710,000
391,21	621,053
391,42	284,444
391,64	370,732
391,85	189,655
392,07	300,000
392,28	158,667
392,50	330,303
392,71	-1100,000
392,93	284,615
393,14	491,667
393,36	306,122
393,57	138,346
393,79	988,889
394,00	280,851
394,22	141,096
394,43	196,386
394,65	206,977
394,86	1375,000
395,08	566,667
395,29	201,887
395,50	615,385
395,72	594,444
395,93	880,952
396,15	185,915
396,36	182,353
396,58	293,333
396,79	307,500
397,01	258,000
397,22	194,444
397,44	219,697
397,65	191,228
397,87	323,810
398,08	191,837
398,29	296,875
398,51	239,286
398,72	253,659
398,94	223,077
399,15	357,143
399,37	254,386
399,58	170,330
399,80	650,000
400,01	225,926
400,22	480,952
400,44	198,765
400,65	467,857
400,87	125,000
401,08	185,714
401,30	215,217
401,51	247,368
401,72	453,846
401,94	146,835
402,15	505,000
402,37	130,252
402,58	722,222
402,80	194,286
403,01	184,507
403,22	1190,909
403,44	221,739
403,65	198,214
403,87	228,571
404,08	441,026
404,30	151,765
404,51	-2633,333
404,72	137,143
404,94	150,000
405,15	214,000
405,37	218,987
405,58	170,588
405,79	176,829
406,01	360,976
406,22	191,379
406,44	289,362
406,65	194,737
406,86	89,583
407,08	121,519
407,29	109,709
407,51	101,220
407,72	146,296
407,93	154,348
408,15	87,179
408,36	251,163
408,58	152,577
408,79	110,833
409,00	139,583
409,22	155,556
409,43	184,810
409,64	91,304
409,86	86,164
410,07	69,231
410,29	99,254
410,50	100,709
410,71	53,571
410,93	89,172
411,14	118,605
411,35	94,048
411,57	76,974
411,78	87,500
412,00	76,433
412,21	94,194
412,42	74,074
412,64	57,082
412,85	53,608
413,06	34,146
413,28	33,333
413,49	53,555
413,70	73,188
413,92	64,822
414,13	26,556
414,34	49,042
414,56	29,021
414,77	58,650
414,98	29,195
415,20	38,408
415,41	44,193
415,63	39,303
415,84	37,500
416,05	39,011
416,27	36,434
416,48	34,270
416,69	29,867
416,91	19,730
417,12	18,449
417,33	35,789
417,55	28,169
417,76	41,478
417,97	25,311
418,19	14,911
418,40	22,766
418,61	23,148
418,83	18,000
419,04	25,237
419,25	15,576
419,46	23,308
419,68	16,190
419,89	16,692
420,10	18,776
420,32	12,578
420,53	19,392
420,74	16,773
420,96	18,750
421,17	13,972
421,38	16,649
421,60	13,245
421,81	13,667
422,02	12,853
422,23	12,770
422,45	9,476
422,66	14,154
422,87	12,119
423,09	12,391
423,30	10,965
423,51	8,031
423,73	9,002
423,94	12,535
424,15	9,864
424,36	9,142
424,58	7,375
424,79	8,620
425,00	4,520
425,22	7,048
425,43	8,630
425,64	10,000
425,85	6,910
426,07	8,554
426,28	7,617
426,49	5,772
426,71	6,230
426,92	5,221
427,13	6,989
427,34	6,049
427,56	7,624
427,77	6,576
427,98	8,069
428,19	7,151
428,41	7,962
428,62	7,982
428,83	10,136
429,04	11,872
429,26	12,219
429,47	14,385
429,68	13,764
429,89	17,645
430,11	21,582
430,32	20,777
430,53	24,769
430,74	26,091
430,96	28,541
431,17	31,077
431,38	34,469
431,59	34,371
431,81	37,587
432,02	38,283
432,23	38,929
432,44	42,635
432,66	41,879
432,87	44,147
433,08	44,343
433,29	44,297
433,51	44,952
433,72	47,142
433,93	46,032
434,14	47,486
434,35	48,574
434,57	47,469
434,78	49,984
434,99	47,575
435,20	48,630
435,42	48,269
435,63	48,092
435,84	49,288
436,05	47,669
436,26	46,964
436,48	46,854
436,69	46,683
436,90	46,800
437,11	45,502
437,32	47,138
437,54	45,755
437,75	45,638
437,96	45,848
438,17	44,686
438,38	46,276
438,60	48,045
438,81	47,994
439,02	50,439
439,23	50,084
439,44	53,338
439,66	57,864
439,87	61,778
440,08	64,844
440,29	68,230
440,50	73,368
440,72	73,936
440,93	76,931
441,14	78,677
441,35	80,378
441,56	80,873
441,77	82,281
441,99	83,733
442,20	84,627
442,41	83,866
442,62	85,679
442,83	86,359
443,04	87,219
443,26	85,816
443,47	86,421
443,68	85,260
443,89	85,248
444,10	84,511
444,31	85,881
444,53	83,234
444,74	83,984
444,95	82,958
445,16	85,182
445,37	83,548
445,58	83,138
445,80	84,003
446,01	85,544
446,22	85,797
446,43	86,792
446,64	86,946
446,85	88,151
447,06	87,872
447,28	87,997
447,49	89,002
447,70	88,466
447,91	89,131
448,12	88,079
448,33	88,556
448,54	88,908
448,76	87,661
448,97	87,563
449,18	86,179
449,39	84,990
449,60	84,735
449,81	84,072
450,02	84,249
450,23	82,622
450,45	82,730
450,66	80,869
450,87	81,579
451,08	81,185
451,29	81,812
451,50	80,760
451,71	80,438
451,92	80,813
452,13	80,302
452,35	80,737
452,56	80,158
452,77	81,006
452,98	79,905
453,19	81,537
453,40	80,874
453,61	80,663
453,82	80,956
454,03	80,795
454,25	81,891
454,46	82,165
454,67	82,416
454,88	82,496
455,09	83,733
455,30	83,074
455,51	84,415
455,72	84,343
455,93	84,475
456,14	84,624
456,35	85,945
456,56	84,534
456,78	85,666
456,99	85,166
457,20	84,800
457,41	83,048
457,62	81,359
457,83	79,806
458,04	79,559
458,25	78,040
458,46	76,102
458,67	74,042
458,88	72,936
459,09	71,491
459,30	69,427
459,51	68,137
459,73	67,037
459,94	64,362
460,15	61,464
460,36	59,400
460,57	57,669
460,78	55,071
460,99	52,823
461,20	50,453
461,41	47,786
461,62	46,341
461,83	43,810
462,04	41,066
462,25	39,739
462,46	36,091
462,67	34,711
462,88	32,277
463,09	29,653
463,30	26,921
463,51	25,320
463,72	22,604
463,93	20,190
464,15	17,706
464,36	15,924
464,57	13,895
464,78	12,013
464,99	9,905
465,20	8,604
465,41	7,251
465,62	5,921
465,83	4,849
466,04	4,053
466,25	3,091
466,46	2,739
466,67	1,885
466,88	1,732
467,09	1,346
467,30	1,096
467,51	1,029
467,72	0,905
467,93	0,730
468,14	0,735
468,35	0,570
468,56	0,468
468,77	0,715
468,98	0,647
469,19	0,656
469,40	0,613
469,61	0,665
469,82	0,383
470,03	0,746
470,24	0,807
470,45	0,595
470,66	0,724
470,87	0,605
471,08	0,738
471,29	0,481
471,50	0,717
471,71	0,508
471,92	0,715
472,13	0,636
472,34	0,629
472,55	0,762
472,76	0,499
472,97	0,669
473,18	0,594
473,39	0,739
473,60	0,804
473,81	0,546
474,01	0,696
474,22	0,537
474,43	0,746
474,64	0,770
474,85	0,420
475,06	0,707
475,27	0,527
475,48	0,563
475,69	0,406
475,90	0,807
476,11	0,601
476,32	0,705
476,53	0,623
476,74	0,883
476,95	0,725
477,16	0,541
477,37	0,715
477,58	0,627
477,79	1,000
478,00	0,778
478,21	0,634
478,41	0,597
478,62	0,582
478,83	0,807
479,04	0,883
479,25	0,611
479,46	0,605
479,67	0,939
479,88	0,725
480,09	0,701
480,30	0,895
480,51	0,810
480,72	0,637
480,93	0,770
481,14	0,525
481,34	0,664
481,55	0,505
481,76	0,497
481,97	0,879
482,18	0,530
482,39	0,738
482,60	0,547
482,81	0,650
483,02	0,542
483,23	0,703
483,44	0,735
483,65	0,827
483,85	0,515
484,06	0,665
484,27	0,584
484,48	0,646
484,69	0,831
484,90	0,758
485,11	0,664
485,32	0,596
485,53	0,569
485,73	0,826
485,94	0,564
486,15	0,769
486,36	0,674
486,57	0,698
486,78	0,652
486,99	0,845
487,20	0,666
487,41	0,593
487,61	0,585
487,82	0,512
488,03	0,577
488,24	0,747
488,45	0,681
488,66	0,681
488,87	0,669
489,08	0,661
489,28	0,632
489,49	0,803
489,70	0,784
489,91	0,707
490,12	0,636
490,33	0,644
490,54	0,707
490,74	0,718
490,95	0,564
491,16	0,789
491,37	0,702
491,58	0,543
491,79	0,616
492,00	0,816
492,20	0,634
492,41	0,591
492,62	0,619
492,83	0,643
493,04	0,552
493,25	0,715
493,45	0,570
493,66	0,717
493,87	0,706
494,08	0,510
494,29	0,617
494,50	0,615
494,70	0,835
494,91	0,725
495,12	0,653
495,33	0,650
495,54	0,704
495,75	0,606
495,95	0,577
496,16	0,620
496,37	0,621
496,58	0,679
496,79	0,536
496,99	0,572
497,20	0,498
497,41	0,909
497,62	0,726
497,83	0,685
498,04	0,733
498,24	0,718
498,45	0,745
498,66	0,753
498,87	0,807
499,08	0,783
499,28	0,871
499,49	0,769
499,70	0,804
499,91	0,723
500,12	0,815
500,32	0,809
500,53	0,700
500,74	0,832
500,95	0,821
501,15	1,005
501,36	1,015
501,57	1,016
501,78	1,197
501,99	1,137
502,19	1,068
502,40	1,463
502,61	1,747
502,82	2,130
503,02	2,203
503,23	2,855
503,44	3,604
503,65	4,471
503,86	5,316
504,06	6,580
504,27	7,736
504,48	9,586
504,69	11,547
504,89	13,474
505,10	15,582
505,31	18,473
505,52	21,009
505,72	24,302
505,93	27,651
506,14	31,003
506,35	35,329
506,55	38,399
506,76	42,606
506,97	47,000
507,18	51,081
507,38	54,683
507,59	57,637
507,80	61,550
508,01	64,359
508,21	67,553
508,42	71,169
508,63	73,923
508,84	76,603
509,04	79,622
509,25	81,833
509,46	84,889
509,67	85,196
509,87	87,552
510,08	88,783
510,29	90,479
510,49	91,544
510,70	91,727
510,91	92,119
511,12	93,052
511,32	92,261
511,53	90,577
511,74	91,709
511,94	91,205
512,15	90,134
512,36	90,702
512,57	89,637
512,77	89,766
512,98	88,370
513,19	87,709
513,39	87,955
513,60	86,275
513,81	87,493
514,01	86,079
514,22	85,860
514,43	85,877
514,64	85,871
514,84	84,957
515,05	85,192
515,26	84,155
515,46	84,411
515,67	84,451
515,88	84,051
516,08	83,694
516,29	83,485
516,50	82,585
516,70	82,205
516,91	82,494
517,12	82,063
517,32	82,584
517,53	82,892
517,74	83,343
517,95	82,692
518,15	81,841
518,36	82,827
518,57	82,502
518,77	83,932
518,98	82,986
519,19	83,305
519,39	83,030
519,60	83,851
519,80	83,855
520,01	83,428
520,22	84,894
520,42	84,342
520,63	83,381
520,84	85,212
521,04	85,025
521,25	83,411
521,46	84,058
521,66	84,676
521,87	84,500
522,08	84,457
522,28	83,536
522,49	82,788
522,70	82,925
522,90	82,417
523,11	82,678
523,31	82,050
523,52	80,385
523,73	80,051
523,93	78,620
524,14	77,728
524,35	77,419
524,55	75,820
524,76	75,377
524,97	74,892
525,17	75,182
525,38	74,069
525,58	74,322
525,79	74,095
526,00	75,190
526,20	75,515
526,41	76,009
526,61	78,923
526,82	78,023
527,03	79,059
527,23	80,333
527,44	80,531
527,64	82,713
527,85	83,857
528,06	85,089
528,26	86,064
528,47	87,210
528,68	87,789
528,88	88,814
529,09	89,498
529,29	90,407
529,50	91,780
529,70	93,068
529,91	93,200
530,12	93,180
530,32	92,845
530,53	93,979
530,73	94,742
530,94	95,318
531,15	95,168
531,35	95,905
531,56	96,350
531,76	95,371
531,97	95,857
532,17	96,153
532,38	94,483
532,59	94,704
532,79	93,968
533,00	93,370
533,20	93,005
533,41	92,104
533,61	90,787
533,82	90,189
534,03	87,891
534,23	88,162
534,44	86,847
534,64	84,402
534,85	82,797
535,05	80,749
535,26	79,561
535,46	76,631
535,67	74,760
535,88	72,311
536,08	69,612
536,29	67,482
536,49	64,666
536,70	62,202
536,90	58,998
537,11	56,404
537,31	53,033
537,52	49,696
537,72	47,126
537,93	43,892
538,13	40,711
538,34	38,467
538,55	35,580
538,75	33,223
538,96	30,571
539,16	28,038
539,37	26,272
539,57	24,000
539,78	21,923
539,98	19,829
540,19	17,969
540,39	16,025
540,60	13,830
540,80	12,137
541,01	10,120
541,21	8,597
541,42	6,849
541,62	5,506
541,83	4,438
542,03	3,537
542,24	2,520
542,44	2,342
542,65	1,635
542,85	1,536
543,06	1,258
543,26	1,007
543,47	0,765
543,67	0,894
543,88	1,111
544,08	0,774
544,29	0,948
544,49	0,686
544,70	0,655
544,90	0,825
545,11	0,599
545,31	0,664
545,52	0,675
545,72	0,694
545,93	0,448
546,13	0,836
546,34	0,666
546,54	0,568
546,75	0,666
546,95	0,733
547,15	0,528
547,36	0,555
547,56	0,708
547,77	0,609
547,97	0,734
548,18	0,773
548,38	0,729
548,59	0,645
548,79	0,604
549,00	0,465
549,20	0,749
549,41	0,573
549,61	0,633
549,81	0,513
550,02	0,826
550,22	0,459
550,43	0,677
550,63	0,529
550,84	0,457
551,04	0,700
551,25	0,630
551,45	0,576
551,65	0,593
551,86	0,657
552,06	0,522
552,27	0,486
552,47	0,651
552,68	0,550
552,88	0,578
553,08	0,583
553,29	0,608
553,49	0,531
553,70	0,607
553,90	0,421
554,11	0,570
554,31	0,530
554,51	0,709
554,72	0,535
554,92	0,553
555,13	0,812
555,33	0,716
555,53	0,661
555,74	0,448
555,94	0,612
556,15	0,384
556,35	0,514
556,56	0,619
556,76	0,481
556,96	0,521
557,17	0,532
557,37	0,799
557,58	0,606
557,78	0,582
557,98	0,556
558,19	0,615
558,39	0,614
558,59	0,574
558,80	0,607
559,00	0,478
559,21	0,457
559,41	0,351
559,61	0,533
559,82	0,621
560,02	0,445
560,23	0,708
560,43	0,461
560,63	0,542
560,84	0,611
561,04	0,525
561,24	0,392
561,45	0,605
561,65	0,511
561,85	0,758
562,06	0,612
562,26	0,466
562,47	0,560
562,67	0,427
562,87	0,605
563,08	0,412
563,28	0,447
563,48	0,528
563,69	0,463
563,89	0,667
564,09	0,672
564,30	0,512
564,50	0,638
564,70	0,729
564,91	0,713
565,11	0,446
565,31	0,587
565,52	0,440
565,72	0,620
565,92	0,698
566,13	0,489
566,33	0,655
566,53	0,349
566,74	0,627
566,94	0,562
567,14	0,425
567,35	0,369
567,55	0,346
567,75	0,518
567,96	0,656
568,16	0,662
568,36	0,559
568,57	0,662
568,77	0,517
568,97	0,463
569,18	0,594
569,38	0,508
569,58	0,661
569,79	0,678
569,99	0,599
570,19	0,456
570,39	0,621
570,60	0,540
570,80	0,640
571,00	0,563
571,21	0,564
571,41	0,477
571,61	0,576
571,82	0,532
572,02	0,566
572,22	0,562
572,42	0,438
572,63	0,652
572,83	0,565
573,03	0,429
573,24	0,707
573,44	0,431
573,64	0,649
573,84	0,703
574,05	0,490
574,25	0,631
574,45	0,378
574,66	0,472
574,86	0,610
575,06	0,694
575,26	0,535
575,47	0,588
575,67	0,749
575,87	0,502
576,07	0,591
576,28	0,772
576,48	0,744
576,68	0,530
576,88	0,530
577,09	0,604
577,29	0,397
577,49	0,558
577,69	0,583
577,90	0,679
578,10	0,468
578,30	0,526
578,50	0,423
578,71	0,725
578,91	0,570
579,11	0,705
579,31	0,692
579,52	0,436
579,72	0,675
579,92	0,747
580,12	0,499
580,33	0,650
580,53	0,670
580,73	0,704
580,93	0,658
581,13	0,628
581,34	0,663
581,54	0,630
581,74	0,571
581,94	0,924
582,15	0,484
582,35	0,502
582,55	0,601
582,75	0,800
582,95	0,635
583,16	0,536
583,36	0,824
583,56	0,717
583,76	0,631
583,96	0,803
584,17	0,496
584,37	0,735
584,57	0,658
584,77	0,653
584,97	0,903
585,18	0,746
585,38	0,878
585,58	0,769
585,78	0,954
585,98	1,201
586,19	1,171
586,39	1,352
586,59	1,454
586,79	1,651
586,99	1,786
587,20	2,376
587,40	2,674
587,60	3,017
587,80	4,118
588,00	4,798
588,20	5,245
588,41	6,779
588,61	7,588
588,81	8,824
589,01	10,806
589,21	12,346
589,41	14,352
589,62	16,846
589,82	18,526
590,02	20,292
590,22	23,213
590,42	25,704
590,62	28,768
590,83	30,610
591,03	33,298
591,23	34,989
591,43	38,000
591,63	39,176
591,83	41,532
592,03	43,085
592,24	44,658
592,44	46,160
592,64	46,979
592,84	48,053
593,04	48,630
593,24	49,409
593,44	51,447
593,65	52,831
593,85	52,846
594,05	54,604
594,25	56,358
594,45	58,096
594,65	60,046
594,85	62,977
595,06	65,317
595,26	67,217
595,46	70,450
595,66	72,426
595,86	75,555
596,06	78,174
596,26	81,346
596,46	83,514
596,66	85,992
596,87	88,045
597,07	89,871
597,27	90,626
597,47	92,312
597,67	92,234
597,87	92,564
598,07	92,340
598,27	92,647
598,47	93,305
598,67	93,719
598,88	94,827
599,08	93,467
599,28	93,848
599,48	93,838
599,68	93,838
599,88	93,507
600,08	93,562
600,28	94,415
600,48	95,607
600,68	94,999
600,88	95,477
601,09	96,158
601,29	94,999
601,49	96,413
601,69	95,281
601,89	96,996
602,09	96,852
602,29	97,211
602,49	97,621
602,69	97,148
602,89	97,866
603,09	98,080
603,29	98,561
603,49	98,650
603,69	98,269
603,90	97,652
604,10	98,938
604,30	99,226
604,50	99,262
604,70	99,197
604,90	99,017
605,10	99,765
605,30	100,546
605,50	100,129
605,70	100,038
605,90	100,034
606,10	99,848
606,30	99,805
606,50	100,188
606,70	99,942
606,90	99,873
607,10	99,467
607,30	100,148
607,50	98,923
607,70	99,122
607,90	98,779
608,10	99,470
608,30	98,950
608,50	98,341
608,70	97,846
608,90	98,109
609,11	97,874
609,31	97,502
609,51	97,384
609,71	96,694
609,91	97,184
610,11	96,487
610,31	96,685
610,51	95,672
610,71	96,826
610,91	96,696
611,11	96,348
611,31	97,026
611,51	95,887
611,71	96,428
611,91	96,493
612,11	97,157
612,31	97,196
612,51	96,007
612,71	97,541
612,91	97,173
613,11	97,175
613,31	97,421
613,51	97,519
613,71	97,332
613,91	97,174
614,11	97,965
614,31	97,265
614,50	98,937
614,70	97,996
614,90	97,750
615,10	98,416
615,30	97,782
615,50	97,563
615,70	97,327
615,90	97,870
616,10	96,786
616,30	96,368
616,50	96,504
616,70	95,492
616,90	97,220
617,10	96,747
617,30	96,734
617,50	96,519
617,70	96,992
617,90	96,721
618,10	95,976
618,30	97,052
618,50	96,349
618,70	97,962
618,90	97,418
619,10	96,320
619,30	96,363
619,49	96,421
619,69	95,338
619,89	95,030
620,09	95,524
620,29	96,071
620,49	94,170
620,69	95,277
620,89	94,225
621,09	93,311
621,29	93,906
621,49	92,709
621,69	91,483
621,89	92,694
622,09	91,197
622,29	91,240
622,48	92,906
622,68	90,692
622,88	90,586
623,08	90,346
623,28	91,452
623,48	90,974
623,68	92,013
623,88	91,667
624,08	91,467
624,28	92,604
624,48	92,065
624,67	91,616
624,87	93,300
625,07	93,080
625,27	93,762
625,47	94,185
625,67	94,081
625,87	93,675
626,07	94,220
626,27	92,705
626,47	93,879
626,66	93,028
626,86	92,557
627,06	93,015
627,26	91,143
627,46	90,174
627,66	89,834
627,86	88,668
628,06	87,425
628,25	86,882
628,45	86,296
628,65	84,826
628,85	82,981
629,05	82,395
629,25	81,203
629,45	79,892
629,65	79,152
629,84	78,153
630,04	77,249
630,24	76,165
630,44	74,510
630,64	74,464
630,84	73,372
631,04	71,806
631,23	71,792
631,43	71,444
631,63	69,286
631,83	68,505
632,03	67,802
632,23	66,304
632,42	65,422
632,62	64,287
632,82	63,824
633,02	62,369
633,22	61,571
633,42	59,822
633,62	58,698
633,81	58,623
634,01	56,990
634,21	55,953
634,41	56,244
634,61	53,830
634,80	52,860
635,00	52,086
635,20	52,303
635,40	50,627
635,60	50,754
635,80	49,280
635,99	49,326
636,19	48,343
636,39	48,185
636,59	47,017
636,79	46,765
636,98	46,062
637,18	46,027
637,38	45,089
637,58	44,786
637,78	44,357
637,97	44,215
638,17	44,023
638,37	43,040
638,57	42,573
638,77	41,858
638,96	40,519
639,16	40,976
639,36	39,930
639,56	39,124
639,76	37,659
639,95	37,821
640,15	36,222
640,35	35,709
640,55	34,773
640,75	34,226
640,94	32,737
641,14	31,650
641,34	31,002
641,54	29,113
641,73	28,517
641,93	27,533
642,13	26,085
642,33	24,514
642,53	23,446
642,72	22,042
642,92	20,524
643,12	19,300
643,32	17,825
643,51	16,196
643,71	15,293
643,91	13,674
644,11	13,030
644,30	11,337
644,50	10,194
644,70	9,485
644,90	8,003
645,09	7,672
645,29	6,383
645,49	6,006
645,69	5,271
645,88	4,552
646,08	4,242
646,28	3,705
646,48	3,226
646,67	2,655
646,87	2,709
647,07	2,224
647,26	2,065
647,46	1,747
647,66	1,826
647,86	1,411
648,05	1,485
648,25	1,355
648,45	1,558
648,65	1,283
648,84	1,001
649,04	1,378
649,24	1,531
649,43	0,811
649,63	1,236
649,83	1,251
650,03	1,203
650,22	1,008
650,42	1,050
650,62	0,824
650,81	0,945
651,01	0,817
651,21	1,036
651,40	0,808
651,60	0,952
651,80	0,928
652,00	1,010
652,19	0,927
652,39	1,220
652,59	0,924
652,78	1,442
652,98	1,047
653,18	0,961
653,37	0,838
653,57	0,948
653,77	0,719
653,96	0,589
654,16	1,270
654,36	1,014
654,55	1,496
654,75	1,037
654,95	1,514
655,14	0,940
655,34	1,123
655,54	0,570
655,73	0,839
655,93	1,236
656,13	0,702
656,32	0,526
656,52	0,629
656,72	1,184
656,91	1,097
657,11	1,233
657,31	1,090
657,50	1,043
657,70	0,884
657,90	1,102
658,09	0,713
658,29	1,447
658,49	0,964
658,68	1,251
658,88	1,530
659,07	0,974
659,27	1,021
659,47	1,120
659,66	0,609
659,86	1,116
660,06	1,091
660,25	0,600
660,45	1,182
660,64	0,935
660,84	0,629
661,04	0,700
661,23	1,095
661,43	0,897
661,63	0,854
661,82	0,605
662,02	0,830
662,21	1,282
662,41	0,817
662,61	0,840
662,80	0,679
663,00	0,882
663,19	1,123
663,39	1,090
663,59	1,272
663,78	0,936
663,98	0,994
664,17	0,736
664,37	1,041
664,57	1,382
664,76	1,356
664,96	1,195
665,15	0,507
665,35	0,686
665,55	0,667
665,74	0,931
665,94	1,138
666,13	1,098
666,33	0,517
666,53	0,921
666,72	0,647
666,92	1,347
667,11	0,952
667,31	0,774
667,50	0,808
667,70	1,062
667,90	1,157
668,09	0,912
668,29	1,028
668,48	0,891
668,68	0,897
668,87	0,962
669,07	0,902
669,26	1,024
669,46	0,651
669,66	1,281
669,85	1,003
670,05	0,855
670,24	0,918
670,44	0,804
670,63	0,729
670,83	0,724
671,02	0,839
671,22	1,232
671,42	0,680
671,61	0,768
671,81	0,740
672,00	0,975
672,20	0,729
672,39	0,599
672,59	0,448
672,78	0,901
672,98	0,411
673,17	0,704
673,37	0,591
673,56	0,662
673,76	0,789
673,95	0,926
674,15	0,743
674,34	0,527
674,54	0,741
674,73	0,846
674,93	0,743
675,13	0,572
675,32	0,749
675,52	1,240
675,71	0,640
675,91	0,835
676,10	0,602
676,30	0,647
676,49	0,421
676,69	0,641
676,88	0,754
677,08	0,530
677,27	0,298
677,47	0,512
677,66	0,877
677,86	0,634
678,05	0,655
678,24	0,495
678,44	0,861
678,63	0,831
678,83	0,895
679,02	0,858
679,22	0,548
679,41	0,699
679,61	0,640
679,80	0,793
680,00	0,643
680,19	0,663
680,39	0,795
680,58	0,550
680,78	0,522
680,97	0,453
681,17	0,715
681,36	0,479
681,56	0,859
681,75	0,534
681,94	0,617
682,14	0,684
682,33	0,680
682,53	0,930
682,72	0,765
682,92	0,772
683,11	0,553
683,31	0,373
683,50	0,588
683,69	0,591
683,89	0,422
684,08	0,406
684,28	0,371
684,47	0,687
684,67	0,580
684,86	0,211
685,06	0,511
685,25	0,364
685,44	0,450
685,64	0,209
685,83	0,458
686,03	0,272
686,22	0,456
686,42	0,282
686,61	0,603
686,80	0,357
687,00	0,471
687,19	0,608
687,39	0,332
687,58	0,287
687,77	0,173
687,97	0,391
688,16	0,346
688,36	0,198
688,55	0,340
688,74	0,383
688,94	0,395
689,13	0,311
689,33	0,606
689,52	0,409
689,71	0,447
689,91	0,274
690,10	0,408
690,30	0,451
690,49	0,436
690,68	0,380
690,88	0,349
691,07	0,274
691,27	0,500
691,46	0,190
691,65	0,444
691,85	0,407
692,04	0,242
692,23	0,348
692,43	0,265
692,62	0,424
692,82	0,360
693,01	0,292
693,20	0,556
693,40	0,195
693,59	0,484
693,78	0,380
693,98	0,469
694,17	0,253
694,36	0,557
694,56	0,387
694,75	0,366
694,94	0,371
695,14	0,472
695,33	0,339
695,53	0,395
695,72	0,489
695,91	0,329
696,11	0,441
696,30	0,430
696,49	0,435
696,69	0,517
696,88	0,408
697,07	0,299
697,27	0,468
697,46	0,550
697,65	0,309
697,85	0,348
698,04	0,634
698,23	0,602
698,43	0,726
698,62	0,883
698,81	0,431
699,01	0,900
699,20	0,580
699,39	0,980
699,58	0,980
699,78	0,855
699,97	0,346
700,16	0,861
700,36	0,621
700,55	0,918
700,74	0,773
700,94	0,735
701,13	0,712
701,32	1,549
701,52	1,303
701,71	1,068
701,90	1,047
702,09	1,254
702,29	1,247
702,48	1,113
702,67	0,956
702,87	1,171
703,06	1,466
703,25	1,414
703,44	1,086
703,64	2,041
703,83	2,141
704,02	1,971
704,22	1,136
704,41	1,568
704,60	2,592
704,79	0,931
704,99	1,694
705,18	1,581
705,37	1,628
705,56	2,246
705,76	2,113
705,95	1,814
706,14	1,686
706,33	2,775
706,53	1,730
706,72	2,585
706,91	1,740
707,11	2,843
707,30	3,076
707,49	3,082
707,68	2,064
707,88	1,995
708,07	1,964
708,26	2,447
708,45	3,262
708,64	1,568
708,84	2,724
709,03	3,717
709,22	2,527
709,41	3,521
709,61	4,127
709,80	3,880
709,99	5,858
710,18	4,460
710,38	2,887
710,57	1,682
710,76	3,176
710,95	4,868
711,14	5,629
711,34	4,480
711,53	5,344
711,72	3,672
711,91	3,419
712,11	6,187
712,30	5,980
712,49	3,628
712,68	4,676
712,87	6,311
713,07	5,176
713,26	3,305
713,45	7,350
713,64	4,009
713,83	4,738
714,03	6,465
714,22	4,766
714,41	5,582
714,60	4,625
714,79	6,391
714,99	5,709
715,18	3,694
715,37	7,544
715,56	4,953
715,75	5,439
715,94	6,054
716,14	5,155
716,33	5,065
716,52	2,516
716,71	4,525
716,90	7,139
717,10	6,140
717,29	3,029
717,48	8,489
717,67	2,990
717,86	4,697
718,05	2,398
718,24	5,392
718,44	6,541
718,63	5,660
718,82	7,368
719,01	8,858
719,20	5,844
719,39	4,959
719,59	0,338
719,78	6,495
719,97	10,112
720,16	7,951
720,35	7,022
720,54	9,661
720,73	6,934
720,93	5,806
721,12	3,321
721,31	9,411
721,50	6,751
721,69	4,417
721,88	7,994
722,07	6,728
722,27	6,667
722,46	5,730
722,65	6,705
722,84	8,399
723,03	6,678
723,22	5,792
723,41	6,655
723,60	9,607
723,79	7,577
723,99	8,419
724,18	11,817
724,37	10,691
724,56	8,564
724,75	9,447
724,94	11,247
725,13	13,149
725,32	10,456
725,51	7,118
725,71	6,061
725,90	12,488
726,09	12,219
726,28	10,811
726,47	8,496
726,66	9,488
726,85	6,660
727,04	8,515
727,23	10,736
727,42	12,878
727,61	5,926
727,81	13,556
728,00	11,371
728,19	8,581
728,38	9,395
728,57	11,426
728,76	14,718
728,95	14,621
729,14	8,041
729,33	15,368
729,52	10,911
729,71	16,877
729,90	11,481
730,09	8,645
730,28	17,667
730,48	12,993
730,67	9,190
730,86	11,567
731,05	14,603
731,24	8,201
731,43	9,811
731,62	19,048
731,81	10,928
732,00	11,055
732,19	7,024
732,38	11,126
732,57	10,082
732,76	17,738
732,95	7,333
733,14	8,973
733,33	11,264
733,52	15,617
733,71	15,964
733,90	15,810
734,09	9,363
734,28	9,379
734,47	14,868
734,66	17,910
734,85	11,489
735,04	13,351
735,23	14,947
735,42	16,282
735,61	14,800
735,81	16,690
736,00	21,386
736,19	18,639
736,38	16,148
736,57	17,967
736,76	13,178
736,95	15,455
737,14	16,413
737,33	18,780
737,52	15,083
737,71	11,058
737,90	21,180
738,09	17,945
738,28	16,906
738,47	16,176
738,66	21,250
738,85	18,041
739,04	16,299
739,22	17,905
739,41	17,581
739,60	13,043
739,79	20,548
739,98	14,156
740,17	21,939
740,36	22,679
740,55	28,219
740,74	15,304
740,93	24,390
741,12	17,096
741,31	13,787
741,50	11,864
741,69	15,926
741,88	4,400
742,07	16,426
742,26	10,674
742,45	11,660
742,64	29,137
742,83	19,787
743,02	22,342
743,21	22,133
743,40	19,386
743,59	23,156
743,78	24,672
743,97	22,744
744,16	25,055
744,34	22,244
744,53	19,057
744,72	28,482
744,91	6,105
745,10	19,662
745,29	14,657
745,48	18,200
745,67	27,495
745,86	12,911
746,05	21,005
746,24	25,054
746,43	23,877
746,62	18,203
746,81	18,721
747,00	20,459
747,18	38,681
747,37	21,962
747,56	25,169
747,75	20,569
747,94	34,136
748,13	28,082
748,32	36,752
748,51	27,314
748,70	24,940
748,89	27,536
749,08	20,286
749,26	26,492
749,45	35,059
749,64	29,529
749,83	22,646
750,02	21,271
750,21	26,393
750,40	21,094
750,59	32,547
750,78	18,639
750,96	26,816
751,15	24,317
751,34	28,272
751,53	27,094
751,72	21,024
751,91	27,123
752,10	15,432
752,29	32,203
752,47	25,843
752,66	33,803
752,85	25,387
753,04	18,297
753,23	22,848
753,42	29,787
753,61	24,837
753,80	24,119
753,98	29,825
754,17	39,264
754,36	35,028
754,55	23,824
754,74	39,595
754,93	34,582
755,12	28,533
755,30	34,349
755,49	37,920
755,68	32,565
755,87	25,225
756,06	34,078
756,25	32,381
756,43	32,414
756,62	33,531
756,81	34,983
757,00	40,870
757,19	32,192
757,38	35,647
757,56	39,032
757,75	35,948
757,94	27,445
758,13	22,403
758,32	16,667
758,51	23,529
758,69	28,800
758,88	32,432
759,07	34,409
759,26	41,395
759,45	37,555
759,63	41,264
759,82	38,384
760,01	28,428
760,20	42,412
760,39	40,299
760,57	42,562
760,76	19,820
760,95	27,315
761,14	30,204
761,33	36,562
761,51	30,824
761,70	50,000
761,89	42,213
762,08	41,860
762,27	35,531
762,45	51,751
762,64	26,740
762,83	46,903
763,02	31,628
763,21	34,483
763,39	38,776
763,58	48,302
763,77	42,085
763,96	48,193
764,14	41,667
764,33	35,165
764,52	52,790
764,71	49,327
764,89	25,980
765,08	52,155
765,27	48,699
765,46	46,739
765,65	41,485
765,83	48,052
766,02	36,170
766,21	48,619
766,40	58,571
766,58	45,935
766,77	42,786
766,96	71,364
767,15	43,961
767,33	27,485
767,52	47,561
767,71	52,609
767,90	46,067
768,08	44,747
768,27	44,500
768,46	58,594
768,64	59,585
768,83	61,979
769,02	54,000
769,21	32,314
769,39	43,023
769,58	62,428
769,77	57,088
769,96	42,408
770,14	53,741
770,33	50,000
770,52	34,921
770,70	50,000
770,89	71,141
771,08	56,356
771,27	55,155
771,45	45,614
771,64	47,396
771,83	71,495
772,01	58,434
772,20	78,894
772,39	46,667
772,57	46,512
772,76	61,481
772,95	83,688
773,14	65,054
773,32	60,645
773,51	68,657
773,70	91,250
773,88	91,803
774,07	39,267
774,26	40,426
774,44	53,659
774,63	79,188
774,82	59,756
775,00	68,667
775,19	74,400
775,38	83,237
775,56	56,771
775,75	53,012
775,94	87,342
776,12	35,912
776,31	69,412
776,50	52,273
776,68	66,316
776,87	57,955
777,06	82,069
777,24	62,778
777,43	66,667
777,62	77,941
777,80	75,676
777,99	67,429
778,18	64,356
778,36	78,400
778,55	89,256
778,74	85,417
778,92	83,432
779,11	102,500
779,29	85,535
779,48	55,782
779,67	65,116
779,85	65,854
780,04	61,081
780,23	74,820
780,41	85,156
780,60	42,632
780,79	77,401
780,97	84,868
781,16	50,303
781,34	115,464
781,53	86,325
781,72	82,482
781,90	82,031
782,09	82,581
782,28	104,380
782,46	77,778
782,65	82,857
782,83	115,730
783,02	131,250
783,21	90,667
783,39	126,087
783,58	84,615
783,76	58,659
783,95	58,182
784,14	80,132
784,32	78,523
784,51	103,448
784,69	100,847
784,88	77,477
785,06	69,748
785,25	78,344
785,44	76,978
785,62	92,143
785,81	149,296
785,99	88,489
786,18	96,622
786,37	108,889
786,55	22,018
786,74	65,789
786,92	79,688
787,11	95,000
787,29	62,687
787,48	90,000
787,67	73,494
787,85	99,138
788,04	82,178
788,22	86,885
788,41	82,353
788,59	117,431
788,78	62,424
788,96	104,717
789,15	127,368
789,34	91,818
789,52	73,451
789,71	75,194
789,89	189,362
790,08	100,000
790,26	82,857
790,45	74,242
790,63	94,444
790,82	92,727
791,00	79,861
791,19	112,903
791,38	95,833
791,56	99,123
791,75	107,339
791,93	91,954
792,12	81,065
792,30	82,400
792,49	87,395
792,67	116,418
792,86	92,248
793,04	121,495
793,23	61,667
793,41	102,532
793,60	105,051
793,78	130,702
793,97	105,128
794,15	118,182
794,34	81,319
794,52	85,714
794,71	123,457
794,89	51,111
795,08	87,379
795,26	73,333
795,45	155,224
795,63	117,424
795,82	97,196
796,00	125,688
796,19	101,667
796,37	110,219
796,56	126,882
796,74	99,115
796,93	66,292
797,11	120,253
797,30	108,333
797,48	94,483
797,67	100,833
797,85	117,347
798,04	144,792
798,22	97,619
798,41	87,255
798,59	121,053
798,77	133,846
798,96	96,774
799,14	83,621
799,33	99,237
799,51	101,538
799,70	104,027
799,88	148,485
800,07	63,816
800,25	67,586
800,44	67,677
800,62	141,176
800,80	131,884
800,99	134,921
801,17	67,241
801,36	66,207
801,54	123,958
801,73	79,798
801,91	82,787
802,10	64,286
802,28	116,822
802,46	107,407
802,65	108,046
802,83	102,247
803,02	124,211
803,20	114,844
803,39	148,276
803,57	114,458
803,75	68,243
803,94	75,630
804,12	78,333
804,31	98,230
804,49	69,231
804,67	89,600
804,86	56,250
805,04	96,622
805,23	89,655
805,41	97,541
805,59	79,508
805,78	115,152
805,96	87,179
806,15	110,937
806,33	106,723
806,51	111,504
806,70	146,667
806,88	91,870
807,07	92,063
807,25	84,277
807,43	90,066
807,62	103,252
807,80	88,172
807,99	111,905
808,17	102,837
808,35	106,140
808,54	156,989
808,72	87,200
808,90	123,684
809,09	96,667
809,27	94,595
809,46	106,250
809,64	64,706
809,82	91,954
810,01	90,152
810,19	115,000
810,37	73,846
810,56	171,951
810,74	77,483
810,92	106,061
811,11	107,843
811,29	104,965
811,48	137,374
811,66	116,279
811,84	114,679
812,03	83,636
812,21	98,718
812,39	109,322
812,58	106,863
812,76	94,393
812,94	117,333
813,13	95,238
813,31	88,333
813,49	138,043
813,68	105,217
813,86	140,816
814,04	104,854
814,23	96,970
814,41	67,647
814,59	103,955
814,78	105,147
814,96	110,811
815,14	130,000
815,33	72,464
815,51	82,963
815,69	77,778
815,87	89,565
816,06	98,125
816,24	95,364
816,42	70,513
816,61	88,136
816,79	215,663
816,97	79,279
817,16	65,161
817,34	64,828
817,52	113,103
817,70	129,365
817,89	83,471
818,07	72,414
818,25	90,991
818,44	78,488
818,62	88,793
818,80	108,392
818,98	80,952
819,17	79,231
819,35	70,000
819,53	134,653
819,72	75,581
819,90	106,587
820,08	59,740
820,26	122,807
820,45	72,892
820,63	68,750
820,81	67,114
820,99	84,211
821,18	54,815
821,36	87,619
821,54	77,326
821,73	83,243
821,91	55,319
822,09	84,706
822,27	50,761
822,46	83,750
822,64	65,563
822,82	56,098
823,00	77,477
823,19	74,242
823,37	68,571
823,55	73,529
823,73	79,333
823,91	64,088
824,10	86,034
824,28	62,222
824,46	52,907
824,64	69,118
824,83	95,935
825,01	78,261
825,19	71,429
825,37	53,646
825,56	55,000
825,74	73,333
825,92	82,584
826,10	85,714
826,28	56,376
826,47	47,967
826,65	67,568
826,83	56,989
827,01	46,212
827,19	73,418
827,38	75,130
827,56	68,750
827,74	80,081
827,92	66,341
828,10	52,174
828,29	70,952
828,47	73,684
828,65	60,541
828,83	52,020
829,01	49,333
829,20	62,658
829,38	49,793
829,56	76,113
829,74	86,364
829,92	56,701
830,10	70,721
830,29	65,946
830,47	57,292
830,65	41,071
830,83	61,714
831,01	37,500
831,20	60,396
831,38	55,610
831,56	55,061
831,74	61,143
831,92	62,500
832,10	52,273
832,29	66,351
832,47	61,947
832,65	61,277
832,83	58,605
833,01	47,036
833,19	45,249
833,37	69,259
833,56	52,582
833,74	64,372
833,92	42,478
834,10	67,005
834,28	45,385
834,46	52,595
834,64	45,312
834,83	44,369
835,01	63,424
835,19	53,081
835,37	62,948
835,55	51,986
835,73	50,000
835,91	48,649
836,09	31,120
836,28	40,076
836,46	46,667
836,64	48,770
836,82	39,925
837,00	54,082
837,18	54,150
837,36	57,754
837,54	37,121
837,72	32,669
837,91	42,169
838,09	35,600
838,27	41,392
838,45	53,074
838,63	28,814
838,81	45,395
838,99	49,129
839,17	52,427
839,35	35,185
839,53	43,624
839,72	36,017
839,90	33,131
840,08	48,077
840,26	43,218
840,44	30,247
840,62	35,354
840,80	39,815
840,98	31,722
841,16	21,708
841,34	35,652
841,52	42,812
841,70	34,007
841,89	49,355
842,07	32,973
842,25	29,870
842,43	30,645
842,61	39,678
842,79	37,195
842,97	35,366
843,15	45,559
843,33	31,116
843,51	39,618
843,69	29,722
843,87	26,954
844,05	33,962
844,23	43,784
844,41	24,372
844,59	32,670
844,77	25,072
844,95	22,573
845,13	28,142
845,31	22,905
845,50	31,701
845,68	25,907
845,86	37,264
846,04	25,926
846,22	40,095
846,40	19,948
846,58	21,984
846,76	21,945
846,94	30,529
847,12	24,408
847,30	30,415
847,48	31,415
847,66	32,195
847,84	13,706
848,02	33,680
848,20	40,618
848,38	27,731
848,56	31,183
848,74	32,231
848,92	26,931
849,10	38,616
849,28	27,233
849,46	20,561
849,64	25,476
849,82	21,154
850,00	28,542
850,18	21,478
850,36	27,193
850,54	30,493
850,72	33,056
850,90	33,090
851,08	20,576
851,26	21,053
851,44	23,896
851,62	18,764
851,80	31,213
851,98	29,012
852,16	30,247
852,34	26,565
852,52	19,881
852,70	18,273
852,87	23,810
853,05	28,457
853,23	24,902
853,41	19,427
853,59	20,377
853,77	20,635
853,95	25,424
854,13	15,146
854,31	27,225
854,49	20,641
854,67	29,511
854,85	25,217
855,03	29,885
855,21	19,797
855,39	21,141
855,57	28,442
855,75	23,272
855,93	21,731
856,11	28,070
856,28	22,049
856,46	17,974
856,64	25,890
856,82	15,532
857,00	19,723
857,18	21,283
857,36	17,815
857,54	18,581
857,72	20,701
857,90	19,110
858,08	18,827
858,26	18,196
858,44	11,801
858,61	18,718
858,79	21,550
858,97	13,610
859,15	16,743
859,33	15,184
859,51	11,981
859,69	11,161
859,87	20,498
860,05	18,828
860,23	9,697
860,40	14,286
860,58	16,236
860,76	18,927
860,94	14,198
861,12	14,731
861,30	17,921
861,48	17,705
861,66	16,939
861,84	18,575
862,01	23,797
862,19	18,022
862,37	12,828
862,55	13,370
862,73	14,674
862,91	14,565
863,09	13,654
863,27	10,585
863,44	12,318
863,62	16,550
863,80	7,911
863,98	16,603
864,16	13,564
864,34	14,286
864,52	16,515
864,69	18,434
864,87	17,998
865,05	17,117
865,23	13,889
865,41	16,091
865,59	16,069
865,76	16,408
865,94	13,741
866,12	20,045
866,30	13,988
866,48	10,100
866,66	15,076
866,83	11,707
867,01	14,850
867,19	14,334
867,37	11,645
867,55	15,258
867,73	12,984
867,90	14,251
868,08	17,211
868,26	9,122
868,44	8,369
868,62	17,450
868,79	10,173
868,97	9,275
869,15	10,403
869,33	11,687
869,51	12,845
869,69	12,930
869,86	10,154
870,04	13,545
870,22	5,411
870,40	13,737
870,57	17,400
870,75	11,782
870,93	14,880
871,11	8,749
871,29	11,687
871,46	9,567
871,64	9,397
871,82	9,268
872,00	14,045
872,18	12,534
872,35	12,478
872,53	13,800
872,71	7,026
872,89	10,380
873,06	11,347
873,24	11,581
873,42	8,781
873,60	3,214
873,77	12,189
873,95	12,056
874,13	11,270
874,31	9,358
874,49	10,549
874,66	9,450
874,84	5,595
875,02	8,706
875,20	11,157
875,37	8,262
875,55	8,975
875,73	6,816
875,91	6,719
876,08	8,997
876,26	6,994
876,44	8,387
876,61	8,244
876,79	9,657
876,97	10,291
877,15	15,725
877,32	5,669
877,50	10,160
877,68	11,384
877,86	5,073
878,03	8,903
878,21	6,047
878,39	6,296
878,56	9,587
878,74	8,677
878,92	6,973
879,10	6,139
879,27	7,628
879,45	10,918
879,63	6,961
879,80	7,070
879,98	9,680
880,16	7,682
880,34	4,254
880,51	8,904
880,69	8,640
880,87	4,055
881,04	5,932
881,22	6,917
881,40	4,463
881,57	6,114
881,75	7,079
881,93	4,564
882,10	9,417
882,28	6,783
882,46	7,038
882,63	9,234
882,81	8,333
882,99	6,231
883,16	6,532
883,34	8,012
883,52	5,479
883,69	8,097
883,87	6,823
884,05	4,255
884,22	4,418
884,40	6,795
884,58	5,698
884,75	4,312
884,93	7,696
885,11	5,495
885,28	7,334
885,46	6,023
885,64	5,445
885,81	5,113
885,99	5,608
886,17	6,614
886,34	6,450
886,52	4,816
886,70	5,564
886,87	5,127
887,05	3,608
887,22	5,741
887,40	5,423
887,58	5,423
887,75	6,381
887,93	6,392
888,11	2,027
888,28	4,979
888,46	5,289
888,63	7,689
888,81	5,519
888,99	1,943
889,16	4,993
889,34	5,648
889,51	5,908
889,69	4,984
889,87	3,524
890,04	5,426
890,22	4,374
890,39	1,813
890,57	6,459
890,75	6,712
890,92	4,681
891,10	7,515
891,27	5,199
891,45	3,167
891,63	5,291
891,80	4,484
891,98	6,559
892,15	3,976
892,33	4,277
892,51	4,825
892,68	3,256
892,86	2,899
893,03	5,812
893,21	3,858
893,38	3,984
893,56	4,912
893,74	5,456
893,91	3,114
894,09	4,370
894,26	3,997
894,44	4,175
894,61	4,726
894,79	5,032
894,96	5,146
895,14	4,784
895,32	3,395
895,49	4,612
895,67	2,530
895,84	5,834
896,02	5,503
896,19	4,444
896,37	6,435
896,54	4,308
896,72	4,422
896,89	5,717
897,07	4,079
897,25	4,279
897,42	3,391
897,60	5,116
897,77	5,738
897,95	5,020
898,12	4,211
898,30	4,077
898,47	3,809
898,65	4,133
898,82	3,981
899,00	4,187
899,17	4,328
899,35	4,343
899,52	3,292
899,70	4,426
899,87	2,930
900,05	5,281
900,22	2,887
900,40	3,882
900,57	4,629
900,75	3,636
900,92	5,070
901,10	4,617
901,27	3,241
901,45	4,922
901,62	3,630
901,80	5,662
901,97	3,822
902,15	4,839
902,32	3,216
902,50	2,224
902,67	2,546
902,85	4,487
903,02	4,617
903,20	3,781
903,37	3,706
903,54	4,031
903,72	2,962
903,89	4,285
904,07	4,206
904,24	5,231
904,42	3,518
904,59	2,175
904,77	3,830
904,94	3,797
905,12	2,242
905,29	3,959
905,47	4,588
905,64	3,645
905,81	3,730
905,99	3,391
906,16	3,444
906,34	3,143
906,51	3,283
906,69	2,639
906,86	2,923
907,03	4,033
907,21	3,238
907,38	1,751
907,56	3,314
907,73	4,341
907,91	4,285
908,08	2,319
908,25	1,128
908,43	3,682
908,60	2,432
908,78	5,260
908,95	4,495
909,13	3,819
909,30	2,675
909,47	2,585
909,65	4,052
909,82	3,793
910,00	3,091
910,17	2,968
910,34	3,377
910,52	2,402
910,69	4,815
910,87	2,975
911,04	3,784
911,21	3,965
911,39	3,736
911,56	3,810
911,73	2,934
911,91	4,524
912,08	3,677
912,26	2,456
912,43	2,709
912,60	3,993
912,78	2,733
912,95	3,951
913,13	3,373
913,30	2,421
913,47	4,118
913,65	1,999
913,82	3,266
913,99	2,679
914,17	2,782
914,34	3,787
914,51	3,368
914,69	2,931
914,86	4,034
915,03	2,781
915,21	2,608
915,38	2,240
915,56	2,295
915,73	2,900
915,90	3,801
916,08	3,323
916,25	2,650
916,42	2,122
916,60	3,438
916,77	3,305
916,94	3,124
917,12	3,944
917,29	2,520
917,46	2,374
917,64	2,668
917,81	3,217
917,98	1,999
918,16	3,694
918,33	2,633
918,50	3,467
918,67	2,215
918,85	3,220
919,02	2,825
919,19	4,281
919,37	2,384
919,54	3,041
919,71	2,990
919,89	2,198
920,06	1,841
920,23	3,131
920,41	2,837
920,58	2,331
920,75	2,497
920,92	1,886
921,10	3,562
921,27	1,554
921,44	3,222
921,62	1,557
921,79	3,083
921,96	2,765
922,13	1,923
922,31	2,595
922,48	1,757
922,65	1,706
922,82	1,779
923,00	2,554
923,17	1,689
923,34	2,611
923,52	1,783
923,69	2,351
923,86	2,275
924,03	2,015
924,21	2,009
924,38	3,605
924,55	2,897
924,72	3,448
924,90	2,316
925,07	3,207
925,24	2,293
925,41	2,161
925,59	1,822
925,76	1,957
925,93	2,305
926,10	2,285
926,28	2,429
926,45	2,511
926,62	1,966
926,79	2,723
926,96	3,089
927,14	2,607
927,31	1,207
927,48	2,789
927,65	2,388
927,83	2,395
928,00	1,427
928,17	2,366
928,34	2,482
928,51	2,845
928,69	1,990
928,86	2,255
929,03	2,794
929,20	2,315
929,37	2,546
929,55	1,896
929,72	1,882
929,89	2,454
930,06	1,891
930,23	1,771
930,41	2,048
930,58	2,368
930,75	2,871
930,92	1,603
931,09	2,121
931,27	1,663
931,44	1,660
931,61	2,646
931,78	1,844
931,95	2,260
932,12	1,848
932,30	2,692
932,47	2,717
932,64	2,066
932,81	2,865
932,98	2,159
933,16	2,109
933,33	2,482
933,50	2,525
933,67	2,517
933,84	1,960
934,01	1,523
934,18	1,992
934,36	1,355
934,53	2,050
934,70	1,732
934,87	2,204
935,04	2,297
935,21	1,735
935,38	1,893
935,56	2,767
935,73	1,690
935,90	0,755
936,07	1,642
936,24	2,454
936,41	2,251
936,58	1,121
936,76	2,617
936,93	1,068
937,10	1,713
937,27	1,667
937,44	2,099
937,61	2,163
937,78	1,727
937,95	1,100
938,13	1,833
938,30	1,577
938,47	2,338
938,64	1,725
938,81	1,612
938,98	2,137
939,15	2,413
939,32	1,938
939,49	2,294
939,66	1,920
939,84	2,364
940,01	2,782
940,18	1,953
940,35	1,073
940,52	0,904
940,69	3,129
940,86	1,859
941,03	2,249
941,20	2,977
941,37	2,899
941,54	1,067
941,71	0,613
941,89	1,963
942,06	1,985
942,23	1,620
942,40	2,102
942,57	2,145
942,74	2,435
942,91	1,302
943,08	2,437
943,25	2,096
943,42	2,565
943,59	2,110
943,76	3,122
943,93	2,625
944,10	1,461
944,27	2,122
944,44	1,872
944,61	2,006
944,79	2,461
944,96	3,182
945,13	2,198
945,30	0,982
945,47	2,548
945,64	3,114
945,81	3,548
945,98	2,303
946,15	2,735
946,32	2,685
946,49	3,121
946,66	2,241
946,83	2,927
947,00	2,675
947,17	3,173
947,34	2,341
947,51	2,956
947,68	3,773
947,85	2,336
948,02	2,885
948,19	3,860
948,36	2,580
948,53	2,727
948,70	3,950
948,87	3,910
949,04	1,621
949,21	1,883
949,38	4,404
949,55	2,604
949,72	3,106
949,89	3,203
950,06	3,340
950,23	4,407
950,40	3,496
950,57	2,337
950,74	4,974
950,91	3,197
951,08	3,677
951,25	4,796
951,42	5,979
951,59	1,511
951,76	2,129
951,93	5,529
952,10	3,852
952,27	3,308
952,44	3,754
952,61	3,454
952,77	2,514
952,94	6,744
953,11	4,502
953,28	5,212
953,45	3,998
953,62	5,735
953,79	5,691
953,96	4,568
954,13	4,708
954,30	6,155
954,47	3,107
954,64	6,812
954,81	5,843
954,98	3,683
955,15	4,528
955,32	3,097
955,49	5,465
955,65	6,643
955,82	7,534
955,99	4,479
956,16	8,870
956,33	6,974
956,50	8,944
956,67	7,703
956,84	9,037
957,01	3,588
957,18	7,652
957,35	8,696
957,52	8,641
957,68	6,750
957,85	8,851
958,02	10,078
958,19	11,401
958,36	13,298
958,53	7,650
958,70	9,774
958,87	7,730
959,04	14,325
959,21	11,919
959,37	12,446
959,54	15,546
959,71	9,198
959,88	13,392
960,05	11,038
960,22	8,047
960,39	13,600
960,56	3,924
960,72	14,555
960,89	19,138
961,06	16,561
961,23	14,410
961,40	15,007
961,57	15,835
961,74	12,658
961,90	13,438
962,07	20,091
962,24	18,049
962,41	20,101
962,58	20,138
962,75	17,699
962,92	22,991
963,08	13,273
963,25	13,514
963,42	11,594
963,59	23,967
963,76	23,596
963,93	26,087
964,10	22,270
964,26	22,149
964,43	20,672
964,60	28,497
964,77	33,735
964,94	14,773
965,10	31,250
965,27	19,843
965,44	25,974
965,61	31,680
965,78	35,463
965,95	23,653
966,11	26,006
966,28	38,290
966,45	37,383
966,62	35,692
966,79	36,735
966,95	36,418
967,12	32,808
967,29	40,625
967,46	51,515
967,63	42,642
967,79	48,198
967,96	47,619
968,13	45,500
968,30	39,113
968,47	50,172
968,63	67,568
968,80	56,422
968,97	51,923
969,14	47,093
969,31	52,222
969,47	47,647
969,64	70,202
969,81	68,394
969,98	65,934
970,14	62,577
970,31	61,635
970,48	59,167
970,65	82,840
970,81	76,027
970,98	86,131
971,15	88,776
971,32	67,969
971,48	82,313
971,65	43,077
971,82	115,686
971,99	110,345
972,15	80,282
972,32	105,405
972,49	112,587
972,66	142,727
972,82	115,116
972,99	81,301
973,16	139,080
973,33	60,714
973,49	82,105
973,66	98,925
973,83	98,058
974,00	130,233
974,16	142,157
974,33	117,544
974,50	102,105
974,67	174,737
974,83	127,381
975,00	110,526
975,17	121,978
975,33	148,315
975,50	156,716
975,67	181,633
975,84	165,672
976,00	111,236
976,17	163,934
976,34	94,000
976,50	121,348
976,67	141,748
976,84	2533,333
977,00	210,204
977,17	193,333
977,34	183,516
977,50	201,493
977,67	208,929
977,84	198,387
978,01	204,255
978,17	788,889
978,34	247,222
978,51	229,412
978,67	153,947
978,84	113,281
979,01	356,757
979,17	187,179
979,34	107,534
979,51	295,918
979,67	180,247
979,84	265,306
980,01	240,000
980,17	239,437
980,34	507,407
980,51	194,203
980,67	145,882
980,84	403,333
981,01	590,000
981,17	660,000
981,34	1055,556
981,50	210,294
981,67	272,881
981,84	5300,000
982,00	440,000
982,17	247,619
982,34	148,889
982,50	560,000
982,67	157,292
982,84	1980,000
983,00	983,333
983,17	200,000
983,33	210,345
983,50	2060,000
983,67	-289,655
983,83	366,667
984,00	-1657,143
984,17	583,333
984,33	-5150,000
984,50	354,286
984,66	321,739
984,83	212,987
985,00	-316,667
985,16	513,793
985,33	794,118
985,49	738,889
985,66	391,176
985,83	395,652
985,99	371,795
986,16	-1750,000
986,32	635,714
986,49	7800,000
986,66	457,576
986,82	783,333
986,99	283,019
987,15	-452,632
987,32	-417,857
987,49	226,000
987,65	5200,000
987,82	254,167
987,98	248,980
988,15	446,667
988,31	1000,000
988,48	-1683,333
988,65	300,000
988,81	388,889
988,98	334,146
989,14	292,857
989,31	600,000
989,47	285,294
989,64	-969,231
989,80	606,250
989,97	337,838
990,14	-254,348
990,30	-400,000
990,47	359,184
990,63	472,222
990,80	244,000
990,96	-655,000
991,13	415,625
991,29	513,793
991,46	0,000
991,62	-684,615
991,79	1283,333
991,95	11300,000
992,12	-1320,000
992,29	-612,500
992,45	130,588
992,62	302,326
992,78	375,000
992,95	-540,000
993,11	400,000
993,28	780,000
993,44	-870,000
993,61	-668,750
993,77	-2425,000
993,94	-5000,000
994,10	-166,667
994,27	800,000
994,43	334,884
994,60	0,000
994,76	2700,000
994,93	755,000
995,09	-894,118
995,26	1144,444
995,42	319,608
995,59	642,857
995,75	907,692
995,92	2000,000
996,08	497,222
996,25	-1037,500
996,41	-6500,000
996,58	593,333
996,74	361,364
996,91	517,241
997,07	0,000
997,23	13200,000
997,40	-17000,000
997,56	-707,692
997,73	-1200,000
997,89	363,158
998,06	1169,231
998,22	-777,778
998,39	480,000
998,55	1833,333
998,72	-1975,000
998,88	-373,333
999,05	-132,051
999,21	319,048
999,37	-593,333
999,54	-900,000
999,70	-370,000
999,87	631,250
1000,03	317,949
1000,20	306,250
1000,36	0,000
1000,52	375,000
1000,69	-514,286
1000,85	-870,000
1001,02	-504,167
1001,18	3225,000
1001,35	823,077
1001,51	670,588
1001,67	-1038,462
1001,84	-2560,000
1002,00	351,351
1002,17	954,545
1002,33	-1925,000
1002,50	504,762
1002,66	-784,615
1002,82	300,000
1002,99	685,714
1003,15	-1300,000
1003,32	-1127,273
1003,48	385,714
1003,64	873,333
1003,81	574,074
1003,97	-6800,000
1004,14	1036,364
1004,30	410,000
1004,46	-546,667
1004,63	885,714
1004,79	375,000
1004,95	593,333
1005,12	4550,000
1005,28	534,483
1005,45	472,973
1005,61	413,793
1005,77	-264,583
1005,94	-557,143
1006,10	-4900,000
1006,26	1023,077
1006,43	-265,385
1006,59	-863,636
1006,76	928,571
1006,92	1411,111
1007,08	10200,000
1007,25	-311,111
1007,41	575,862
1007,57	3350,000
1007,74	1460,000
1007,90	-382,759
1008,06	241,304
1008,23	876,471
1008,39	-606,250
1008,55	-430,769
1008,72	-1642,857
1008,88	0,000
1009,04	348,780
1009,21	-257,895
1009,37	-850,000
1009,53	185,714
1009,70	2466,667
1009,86	-585,714
1010,02	4300,000
1010,19	1018,182
1010,35	289,706
1010,51	-5350,000
1010,68	-2025,000
1010,84	-215,909
1011,00	556,250
1011,17	-354,545
1011,33	0,000
1011,49	-820,000
1011,66	942,857
1011,82	461,290
1011,98	828,571
1012,14	-518,182
1012,31	435,897
1012,47	0,000
1012,63	1850,000
1012,80	757,143
1012,96	-818,750
1013,12	-1983,333
1013,29	516,667
1013,45	348,780
1013,61	5066,667
1013,77	-87,500
1013,94	2660,000
1014,10	200,000
1014,26	-2500,000
1014,43	-340,000
1014,59	600,000
1014,75	-555,556
1014,91	-766,667
1015,08	500,000
1015,24	8300,000
1015,40	723,529
1015,56	-11000,000
1015,73	288,095
1015,89	745,455
1016,05	3450,000
1016,21	-1175,000
1016,38	815,789
1016,54	1292,308
1016,70	-3066,667
1016,86	443,750
1017,03	987,500
1017,19	-1015,385
1017,35	-600,000
1017,51	-1760,000
1017,68	-880,000
1017,84	-1928,571
1018,00	335,714
1018,16	530,769
1018,33	-1757,143
1018,49	-775,000
1018,65	-375,676
1018,81	320,513
1018,97	-1800,000
1019,14	-4233,333
1019,30	-284,615
1019,46	0,000
1019,62	-782,353
1019,79	-3966,667
1019,95	1300,000
1020,11	6150,000
1020,27	-440,741
1020,43	-396,154
1020,60	2116,667
1020,76	694,444
1020,92	746,667
1021,08	605,000
1021,24	1430,000
1021,41	1455,556
1021,57	1400,000
1021,73	946,154
1021,89	3120,000
1022,05	-346,429
1022,21	565,000
1022,38	-766,667
1022,54	-2216,667
1022,70	277,778
1022,86	-1850,000
1023,02	683,333
1023,19	1940,000
1023,35	4366,667
1023,51	508,333
1023,67	459,259
1023,83	-950,000
1023,99	357,895
1024,16	-334,615
1024,32	-1277,778
1024,48	-1060,000
1024,64	326,190
1024,80	682,609
1024,96	430,769
1025,12	571,429
1025,29	600,000
1025,45	281,579
1025,61	777,778
1025,77	-2760,000
1025,93	-10100,000
1026,09	-1571,429
1026,26	966,667
1026,42	750,000
1026,58	381,818
1026,74	2350,000
1026,90	468,000
1027,06	450,000
1027,22	928,571
1027,38	296,154
1027,55	3733,333
1027,71	2183,333
1027,87	-280,000
1028,03	900,000
1028,19	418,750
1028,35	740,000
1028,51	1560,000
1028,67	1116,667
1028,83	-1100,000
1029,00	-307,143
1029,16	1190,000
1029,32	-317,857
1029,48	295,556
1029,64	263,889
1029,80	5400,000
1029,96	893,333
1030,12	665,217
1030,28	-3466,667
1030,44	-807,692
1030,61	-425,000
1030,77	-200,000
1030,93	-713,333
1031,09	1983,333
1031,25	-13800,000
1031,41	-323,333
1031,57	250,000
1031,73	781,250
1031,89	-963,636
1032,05	-425,926
1032,21	909,091
1032,37	-175,926
1032,53	-1035,714
1032,69	-408,333
1032,86	485,185
1033,02	-170,000
1033,18	-537,500
1033,34	447,368
1033,50	-6700,000
1033,66	-256,098
1033,82	704,348
1033,98	-551,852
1034,14	221,795
1034,30	338,710
1034,46	-3233,333
1034,62	690,000
1034,78	-614,286
1034,94	297,368
1035,10	-707,692
1035,26	-134,884
1035,42	-265,517
1035,58	-633,333
1035,74	741,667
1035,90	-884,615
1036,06	-1733,333
1036,22	1583,333
1036,38	-682,353
1036,54	-416,667
1036,70	-224,242
1036,86	10500,000
1037,02	488,889
1037,18	821,053
1037,34	169,524
1037,50	-131,707
1037,66	-794,118
1037,82	2440,000
1037,98	-440,741
1038,14	-360,000
1038,30	-1100,000
1038,46	-828,571
1038,62	504,348
1038,78	-3433,333
1038,94	-505,263
1039,10	463,636
1039,26	318,519
1039,42	-750,000
1039,58	1757,143
1039,74	-557,895
1039,90	375,000
1040,06	-307,692
>>>>>End Processed Spectral Data<<<<<
