SpectraSuite Data File
++++++++++++++++++++++++++++++++++++
Date: Wed Feb 01 16:20:35 EET 2017
User: optolab
Dark Spectrum Present: Yes
Reference Spectrum Present: Yes
Number of Sampled Component Spectra: 1
Spectrometers: USB4C02475
Integration Time (usec): 100000 (USB4C02475)
Spectra Averaged: 1 (USB4C02475)
Boxcar Smoothing: 0 (USB4C02475)
Correct for Electrical Dark: No (USB4C02475)
Strobe/Lamp Enabled: No (USB4C02475)
Correct for Detector Non-linearity: No (USB4C02475)
Correct for Stray Light: No (USB4C02475)
Number of Pixels in Processed Spectrum: 3648
>>>>>Begin Processed Spectral Data<<<<<
344,91	3250,000
345,13	3250,000
345,35	3250,000
345,57	0,000
345,79	405,263
346,00	-2300,000
346,22	-2071,429
346,44	335,294
346,66	-570,833
346,87	-14400,000
347,09	312,121
347,31	-309,091
347,53	-317,949
347,74	247,692
347,96	448,485
348,18	863,158
348,40	538,710
348,61	1029,412
348,83	357,143
349,05	317,647
349,27	-4450,000
349,48	711,538
349,70	-341,379
349,92	422,581
350,14	233,962
350,35	296,000
350,57	2975,000
350,79	656,000
351,01	-871,429
351,22	312,963
351,44	923,077
351,66	-324,000
351,87	-723,810
352,09	276,923
352,31	286,885
352,53	223,438
352,74	363,889
352,96	266,234
353,18	721,053
353,40	600,000
353,61	275,556
353,83	311,765
354,05	872,727
354,26	2066,667
354,48	200,000
354,70	378,788
354,92	-231,034
355,13	221,212
355,35	329,545
355,57	575,000
355,78	197,590
356,00	-3875,000
356,22	484,615
356,44	6150,000
356,65	422,727
356,87	523,077
357,09	612,500
357,30	293,333
357,52	332,759
357,74	660,000
357,95	394,872
358,17	242,623
358,39	274,194
358,60	240,541
358,82	420,833
359,04	459,259
359,26	434,286
359,47	10400,000
359,69	340,000
359,91	445,455
360,12	438,095
360,34	550,000
360,56	-166,667
360,77	1950,000
360,99	742,857
361,21	252,000
361,42	4900,000
361,64	191,837
361,86	300,000
362,07	-535,484
362,29	178,667
362,51	-682,353
362,72	516,000
362,94	500,000
363,16	274,419
363,37	-1128,571
363,59	430,769
363,81	418,182
364,02	677,778
364,24	600,000
364,46	3533,333
364,67	1263,636
364,89	2285,714
365,11	234,286
365,32	617,241
365,54	372,222
365,76	300,000
365,97	417,647
366,19	215,517
366,41	659,091
366,62	448,148
366,84	279,070
367,05	302,041
367,27	1983,333
367,49	-884,615
367,70	723,529
367,92	245,902
368,14	279,167
368,35	-10300,000
368,57	768,000
368,79	493,103
369,00	350,000
369,22	-1525,000
369,43	252,941
369,65	296,774
369,87	464,865
370,08	201,205
370,30	232,143
370,51	226,230
370,73	197,778
370,95	269,355
371,16	297,619
371,38	353,333
371,60	1287,500
371,81	198,438
372,03	740,000
372,24	516,667
372,46	254,717
372,68	162,857
372,89	315,152
373,11	411,538
373,32	370,455
373,54	-846,154
373,76	1161,538
373,97	853,333
374,19	668,182
374,40	293,750
374,62	-3266,667
374,84	3875,000
375,05	410,714
375,27	348,000
375,48	-10000,000
375,70	168,000
375,92	251,786
376,13	450,000
376,35	219,178
376,56	925,000
376,78	251,389
376,99	500,000
377,21	325,000
377,43	195,455
377,64	218,841
377,86	400,000
378,07	317,949
378,29	-1112,500
378,51	512,903
378,72	235,417
378,94	-1211,111
379,15	296,970
379,37	664,706
379,58	229,231
379,80	746,667
380,01	662,500
380,23	321,569
380,45	1600,000
380,66	4066,667
380,88	306,818
381,09	262,857
381,31	206,667
381,52	339,216
381,74	1422,222
381,95	686,364
382,17	534,615
382,39	680,952
382,60	265,306
382,82	343,590
383,03	301,923
383,25	377,419
383,46	347,727
383,68	359,259
383,89	520,000
384,11	396,774
384,32	-2833,333
384,54	605,556
384,76	-2233,333
384,97	293,939
385,19	444,828
385,40	262,745
385,62	214,035
385,83	361,905
386,05	286,275
386,26	308,000
386,48	211,494
386,69	204,167
386,91	670,000
387,12	291,525
387,34	270,690
387,55	237,097
387,77	534,375
387,98	596,154
388,20	192,391
388,41	394,118
388,63	7000,000
388,84	249,180
389,06	366,667
389,27	747,368
389,49	477,778
389,70	271,429
389,92	270,000
390,13	224,490
390,35	237,255
390,56	266,667
390,78	607,407
390,99	1350,000
391,21	763,158
391,42	231,111
391,64	309,756
391,85	253,448
392,07	252,273
392,28	178,667
392,50	333,333
392,71	-1275,000
392,93	346,154
393,14	472,222
393,36	293,878
393,57	144,361
393,79	1288,889
394,00	302,128
394,22	157,534
394,43	209,639
394,65	316,279
394,86	1362,500
395,08	590,476
395,29	230,189
395,50	700,000
395,72	538,889
395,93	728,571
396,15	181,690
396,36	223,529
396,58	296,667
396,79	200,000
397,01	234,000
397,22	272,222
397,44	196,970
397,65	192,982
397,87	278,571
398,08	228,571
398,29	334,375
398,51	267,857
398,72	209,756
398,94	175,385
399,15	380,000
399,37	263,158
399,58	183,516
399,80	518,182
400,01	185,185
400,22	442,857
400,44	201,235
400,65	421,429
400,87	255,882
401,08	224,286
401,30	313,043
401,51	189,474
401,72	361,538
401,94	217,722
402,15	560,000
402,37	167,227
402,58	672,222
402,80	245,714
403,01	250,704
403,22	954,545
403,44	237,681
403,65	275,000
403,87	192,857
404,08	374,359
404,30	135,294
404,51	-2833,333
404,72	197,143
404,94	139,216
405,15	240,000
405,37	206,329
405,58	198,824
405,79	154,878
406,01	236,585
406,22	234,483
406,44	214,894
406,65	268,421
406,86	245,833
407,08	191,139
407,29	161,165
407,51	110,976
407,72	155,556
407,93	158,696
408,15	103,419
408,36	295,349
408,58	163,918
408,79	95,833
409,00	115,625
409,22	144,444
409,43	163,291
409,64	117,391
409,86	72,327
410,07	66,154
410,29	82,090
410,50	99,291
410,71	103,571
410,93	77,070
411,14	147,287
411,35	67,857
411,57	74,342
411,78	79,688
412,00	97,452
412,21	98,710
412,42	86,772
412,64	65,665
412,85	47,423
413,06	63,415
413,28	47,748
413,49	47,393
413,70	64,855
413,92	54,545
414,13	43,568
414,34	35,249
414,56	49,650
414,77	59,916
414,98	34,899
415,20	33,910
415,41	51,841
415,63	37,562
415,84	40,833
416,05	44,505
416,27	34,109
416,48	39,607
416,69	30,973
416,91	28,378
417,12	28,610
417,33	32,421
417,55	24,950
417,76	28,131
417,97	21,162
418,19	18,489
418,40	25,532
418,61	26,852
418,83	20,727
419,04	17,823
419,25	23,676
419,46	19,248
419,68	21,905
419,89	15,201
420,10	15,918
420,32	17,310
420,53	17,490
420,74	19,568
420,96	16,125
421,17	13,395
421,38	14,472
421,60	16,225
421,81	12,187
422,02	13,898
422,23	15,399
422,45	14,903
422,66	20,854
422,87	19,529
423,09	19,539
423,30	20,940
423,51	26,063
423,73	23,256
423,94	26,190
424,15	27,891
424,36	28,973
424,58	28,438
424,79	33,104
425,00	32,755
425,22	33,735
425,43	33,129
425,64	36,237
425,85	33,732
426,07	35,407
426,28	38,755
426,49	36,211
426,71	36,326
426,92	38,673
427,13	37,143
427,34	38,494
427,56	40,661
427,77	37,834
427,98	44,672
428,19	40,825
428,41	43,280
428,62	47,376
428,83	45,593
429,04	44,351
429,26	47,787
429,47	47,338
429,68	48,067
429,89	50,095
430,11	48,839
430,32	47,986
430,53	48,615
430,74	48,714
430,96	50,854
431,17	51,026
431,38	49,034
431,59	46,898
431,81	48,480
432,02	46,218
432,23	47,578
432,44	47,393
432,66	47,236
432,87	48,042
433,08	46,505
433,29	46,548
433,51	44,530
433,72	44,734
433,93	43,696
434,14	43,434
434,35	45,205
434,57	43,432
434,78	43,604
434,99	41,528
435,20	41,520
435,42	41,896
435,63	42,139
435,84	44,799
436,05	46,670
436,26	49,551
436,48	53,237
436,69	55,961
436,90	60,613
437,11	63,958
437,32	68,444
437,54	72,495
437,75	73,858
437,96	75,714
438,17	74,665
438,38	76,557
438,60	77,692
438,81	75,679
439,02	77,697
439,23	75,959
439,44	74,426
439,66	74,817
439,87	74,696
440,08	75,205
440,29	74,673
440,50	75,417
440,72	75,608
440,93	76,383
441,14	77,238
441,35	77,850
441,56	79,095
441,77	80,291
441,99	80,587
442,20	81,761
442,41	81,604
442,62	84,008
442,83	83,596
443,04	83,385
443,26	83,065
443,47	83,731
443,68	81,726
443,89	81,456
444,10	79,638
444,31	79,156
444,53	76,185
444,74	75,770
444,95	73,951
445,16	73,202
445,37	70,606
445,58	69,756
445,80	68,823
446,01	69,971
446,22	68,219
446,43	69,093
446,64	67,882
446,85	67,938
447,06	67,622
447,28	67,057
447,49	66,830
447,70	68,118
447,91	68,619
448,12	68,288
448,33	68,331
448,54	68,971
448,76	69,304
448,97	69,242
449,18	69,071
449,39	69,636
449,60	70,100
449,81	72,002
450,02	73,505
450,23	72,943
450,45	73,716
450,66	75,383
450,87	77,938
451,08	76,992
451,29	77,502
451,50	77,277
451,71	77,424
451,92	75,798
452,13	74,662
452,35	73,278
452,56	71,494
452,77	68,662
452,98	66,152
453,19	64,854
453,40	61,419
453,61	59,581
453,82	57,274
454,03	55,695
454,25	54,083
454,46	51,971
454,67	49,766
454,88	48,301
455,09	48,158
455,30	46,146
455,51	44,901
455,72	43,172
455,93	41,857
456,14	40,202
456,35	38,933
456,56	37,609
456,78	35,583
456,99	34,170
457,20	32,526
457,41	29,729
457,62	28,388
457,83	26,829
458,04	24,990
458,25	23,465
458,46	21,012
458,67	19,222
458,88	18,066
459,09	15,513
459,30	13,783
459,51	13,006
459,73	10,803
459,94	10,276
460,15	8,910
460,36	7,230
460,57	6,226
460,78	5,281
460,99	4,367
461,20	3,598
461,41	3,175
461,62	2,396
461,83	2,376
462,04	1,779
462,25	1,863
462,46	1,404
462,67	1,033
462,88	0,973
463,09	0,803
463,30	0,663
463,51	0,842
463,72	0,744
463,93	0,655
464,15	0,739
464,36	0,688
464,57	0,451
464,78	0,593
464,99	0,663
465,20	0,559
465,41	0,660
465,62	0,685
465,83	0,660
466,04	0,539
466,25	0,602
466,46	0,515
466,67	0,540
466,88	0,548
467,09	0,519
467,30	0,472
467,51	0,769
467,72	0,598
467,93	0,542
468,14	0,543
468,35	0,379
468,56	0,399
468,77	0,614
468,98	0,599
469,19	0,521
469,40	0,702
469,61	0,762
469,82	0,474
470,03	0,618
470,24	0,758
470,45	0,444
470,66	0,389
470,87	0,578
471,08	0,557
471,29	0,594
471,50	0,492
471,71	0,542
471,92	0,680
472,13	0,644
472,34	0,641
472,55	0,661
472,76	0,623
472,97	0,689
473,18	0,319
473,39	0,775
473,60	0,703
473,81	0,423
474,01	0,617
474,22	0,599
474,43	0,873
474,64	0,757
474,85	0,575
475,06	0,433
475,27	0,612
475,48	0,464
475,69	0,474
475,90	0,709
476,11	0,816
476,32	0,639
476,53	0,609
476,74	0,746
476,95	0,703
477,16	0,610
477,37	0,663
477,58	0,741
477,79	0,772
478,00	0,619
478,21	0,586
478,41	0,761
478,62	0,419
478,83	0,812
479,04	0,705
479,25	0,567
479,46	0,565
479,67	0,775
479,88	0,760
480,09	0,683
480,30	0,753
480,51	0,747
480,72	0,911
480,93	0,753
481,14	0,767
481,34	0,559
481,55	0,448
481,76	0,607
481,97	0,848
482,18	0,587
482,39	0,773
482,60	0,651
482,81	0,780
483,02	0,517
483,23	0,806
483,44	0,804
483,65	0,664
483,85	0,571
484,06	0,786
484,27	0,601
484,48	0,642
484,69	0,780
484,90	0,758
485,11	0,605
485,32	0,835
485,53	0,715
485,73	0,859
485,94	0,526
486,15	0,657
486,36	0,478
486,57	0,764
486,78	0,825
486,99	0,837
487,20	0,618
487,41	0,716
487,61	0,601
487,82	0,694
488,03	0,635
488,24	0,747
488,45	0,485
488,66	0,766
488,87	0,556
489,08	0,709
489,28	0,736
489,49	0,863
489,70	0,646
489,91	0,841
490,12	0,782
490,33	0,667
490,54	0,519
490,74	0,643
490,95	0,691
491,16	0,650
491,37	0,795
491,58	0,677
491,79	0,708
492,00	0,701
492,20	0,588
492,41	0,686
492,62	0,687
492,83	0,718
493,04	0,764
493,25	0,640
493,45	0,664
493,66	0,858
493,87	0,702
494,08	0,584
494,29	0,702
494,50	0,667
494,70	0,928
494,91	0,911
495,12	1,023
495,33	0,975
495,54	1,198
495,75	1,207
495,95	1,140
496,16	1,562
496,37	1,841
496,58	2,012
496,79	2,403
496,99	3,057
497,20	3,660
497,41	4,456
497,62	5,039
497,83	6,098
498,04	7,305
498,24	8,246
498,45	9,666
498,66	11,141
498,87	12,832
499,08	14,288
499,28	16,579
499,49	18,778
499,70	21,068
499,91	22,931
500,12	25,585
500,32	27,950
500,53	31,742
500,74	34,424
500,95	36,847
501,15	40,308
501,36	42,939
501,57	46,560
501,78	48,881
501,99	51,698
502,19	53,844
502,40	57,397
502,61	60,680
502,82	63,660
503,02	66,102
503,23	68,997
503,44	72,408
503,65	73,826
503,86	76,002
504,06	78,734
504,27	81,197
504,48	82,884
504,69	83,932
504,89	84,552
505,10	85,892
505,31	86,622
505,52	86,540
505,72	87,744
505,93	87,400
506,14	87,476
506,35	87,159
506,55	85,346
506,76	85,070
506,97	84,453
507,18	83,179
507,38	83,473
507,59	81,633
507,80	81,253
508,01	79,916
508,21	78,473
508,42	78,690
508,63	78,225
508,84	77,455
509,04	76,761
509,25	76,363
509,46	75,534
509,67	74,657
509,87	74,872
510,08	74,336
510,29	73,249
510,49	73,852
510,70	72,137
510,91	71,312
511,12	71,042
511,32	70,630
511,53	70,801
511,74	70,264
511,94	69,544
512,15	68,846
512,36	69,585
512,57	69,421
512,77	70,008
512,98	69,794
513,19	69,614
513,39	69,913
513,60	69,803
513,81	70,412
514,01	69,389
514,22	69,747
514,43	69,991
514,64	69,947
514,84	70,405
515,05	69,960
515,26	69,359
515,46	69,775
515,67	69,064
515,88	68,903
516,08	68,549
516,29	67,966
516,50	66,677
516,70	66,159
516,91	65,617
517,12	65,220
517,32	64,391
517,53	63,987
517,74	64,199
517,95	62,540
518,15	61,857
518,36	61,733
518,57	61,224
518,77	61,335
518,98	61,946
519,19	61,728
519,39	62,062
519,60	62,647
519,80	63,659
520,01	63,856
520,22	64,588
520,42	65,315
520,63	66,885
520,84	67,587
521,04	69,331
521,25	70,339
521,46	72,098
521,66	73,902
521,87	74,859
522,08	77,156
522,28	78,352
522,49	79,865
522,70	81,132
522,90	83,376
523,11	84,716
523,31	86,244
523,52	86,941
523,73	88,606
523,93	88,182
524,14	89,717
524,35	90,121
524,55	90,363
524,76	90,638
524,97	90,838
525,17	91,388
525,38	90,543
525,58	89,786
525,79	88,651
526,00	89,388
526,20	88,242
526,41	86,437
526,61	86,317
526,82	83,705
527,03	82,889
527,23	81,003
527,44	78,779
527,64	77,411
527,85	74,794
528,06	72,793
528,26	70,397
528,47	68,449
528,68	66,193
528,88	63,549
529,09	61,480
529,29	58,513
529,50	57,431
529,70	55,149
529,91	52,411
530,12	49,203
530,32	46,762
530,53	44,082
530,73	41,871
530,94	39,099
531,15	37,373
531,35	34,923
531,56	32,598
531,76	29,915
531,97	28,416
532,17	26,206
532,38	24,512
532,59	23,150
532,79	21,446
533,00	20,191
533,20	18,555
533,41	17,712
533,61	16,045
533,82	15,080
534,03	13,943
534,23	13,401
534,44	11,897
534,64	10,640
534,85	9,406
535,05	8,388
535,26	7,125
535,46	5,975
535,67	4,851
535,88	4,085
536,08	3,261
536,29	2,777
536,49	2,338
536,70	1,710
536,90	1,504
537,11	1,266
537,31	1,073
537,52	0,905
537,72	0,967
537,93	0,990
538,13	0,709
538,34	0,880
538,55	0,731
538,75	0,684
538,96	0,810
539,16	0,549
539,37	0,741
539,57	0,657
539,78	0,724
539,98	0,631
540,19	0,707
540,39	0,751
540,60	0,657
540,80	0,508
541,01	0,614
541,21	0,778
541,42	0,771
541,62	0,725
541,83	0,694
542,03	0,687
542,24	0,411
542,44	0,734
542,65	0,521
542,85	0,722
543,06	0,617
543,26	0,571
543,47	0,525
543,67	0,647
543,88	0,703
544,08	0,585
544,29	0,772
544,49	0,542
544,70	0,798
544,90	0,633
545,11	0,563
545,31	0,560
545,52	0,592
545,72	0,813
545,93	0,388
546,13	0,677
546,34	0,424
546,54	0,470
546,75	0,670
546,95	0,566
547,15	0,544
547,36	0,611
547,56	0,817
547,77	0,566
547,97	0,588
548,18	0,475
548,38	0,513
548,59	0,594
548,79	0,497
549,00	0,394
549,20	0,638
549,41	0,470
549,61	0,436
549,81	0,529
550,02	0,651
550,22	0,525
550,43	0,559
550,63	0,560
550,84	0,476
551,04	0,555
551,25	0,591
551,45	0,584
551,65	0,511
551,86	0,673
552,06	0,623
552,27	0,446
552,47	0,651
552,68	0,776
552,88	0,493
553,08	0,498
553,29	0,670
553,49	0,400
553,70	0,719
553,90	0,417
554,11	0,543
554,31	0,549
554,51	0,550
554,72	0,527
554,92	0,702
555,13	0,625
555,33	0,693
555,53	0,638
555,74	0,701
555,94	0,754
556,15	0,580
556,35	0,603
556,56	0,645
556,76	0,504
556,96	0,502
557,17	0,607
557,37	0,693
557,58	0,640
557,78	0,426
557,98	0,464
558,19	0,474
558,39	0,663
558,59	0,525
558,80	0,747
559,00	0,490
559,21	0,453
559,41	0,461
559,61	0,586
559,82	0,583
560,02	0,612
560,23	0,500
560,43	0,517
560,63	0,520
560,84	0,396
561,04	0,438
561,24	0,441
561,45	0,504
561,65	0,546
561,85	0,683
562,06	0,497
562,26	0,410
562,47	0,579
562,67	0,434
562,87	0,583
563,08	0,464
563,28	0,623
563,48	0,566
563,69	0,575
563,89	0,562
564,09	0,579
564,30	0,595
564,50	0,544
564,70	0,567
564,91	0,653
565,11	0,416
565,31	0,486
565,52	0,518
565,72	0,550
565,92	0,867
566,13	0,475
566,33	0,457
566,53	0,510
566,74	0,661
566,94	0,562
567,14	0,384
567,35	0,528
567,55	0,502
567,75	0,623
567,96	0,527
568,16	0,610
568,36	0,503
568,57	0,692
568,77	0,379
568,97	0,556
569,18	0,654
569,38	0,625
569,58	0,414
569,79	0,544
569,99	0,670
570,19	0,642
570,39	0,695
570,60	0,454
570,80	0,507
571,00	0,641
571,21	0,560
571,41	0,675
571,61	0,662
571,82	0,693
572,02	0,611
572,22	0,670
572,42	0,538
572,63	0,597
572,83	0,661
573,03	0,571
573,24	0,685
573,44	0,454
573,64	0,848
573,84	0,619
574,05	0,675
574,25	0,612
574,45	0,643
574,66	0,755
574,86	0,629
575,06	0,616
575,26	0,535
575,47	0,694
575,67	0,741
575,87	0,684
576,07	0,632
576,28	0,801
576,48	0,832
576,68	0,720
576,88	0,679
577,09	0,805
577,29	0,755
577,49	0,930
577,69	0,809
577,90	1,002
578,10	0,806
578,30	1,089
578,50	1,152
578,71	1,603
578,91	1,592
579,11	1,864
579,31	2,122
579,52	2,288
579,72	2,734
579,92	3,145
580,12	3,731
580,33	4,777
580,53	5,331
580,73	6,439
580,93	7,260
581,13	8,254
581,34	9,437
581,54	10,934
581,74	12,913
581,94	14,329
582,15	15,943
582,35	17,962
582,55	19,736
582,75	21,818
582,95	24,162
583,16	26,313
583,36	28,231
583,56	30,192
583,76	32,568
583,96	34,533
584,17	36,320
584,37	38,127
584,57	39,474
584,77	40,245
584,97	41,721
585,18	42,967
585,38	44,163
585,58	44,320
585,78	44,795
585,98	45,446
586,19	45,999
586,39	46,202
586,59	46,651
586,79	47,263
586,99	47,848
587,20	47,771
587,40	48,340
587,60	48,690
587,80	50,063
588,00	50,188
588,20	51,787
588,41	53,751
588,61	55,654
588,81	56,787
589,01	59,455
589,21	61,548
589,41	64,323
589,62	67,222
589,82	70,509
590,02	72,590
590,22	76,136
590,42	79,726
590,62	81,133
590,83	83,067
591,03	86,618
591,23	87,835
591,43	89,865
591,63	90,290
591,83	91,784
592,03	91,202
592,24	93,016
592,44	93,325
592,64	93,266
592,84	93,592
593,04	92,681
593,24	92,555
593,44	93,872
593,65	93,209
593,85	94,071
594,05	93,698
594,25	93,413
594,45	94,592
594,65	94,543
594,85	93,996
595,06	94,597
595,26	94,780
595,46	95,001
595,66	95,376
595,86	95,381
596,06	95,699
596,26	95,541
596,46	95,371
596,66	95,110
596,87	96,495
597,07	96,002
597,27	96,393
597,47	97,291
597,67	95,914
597,87	95,674
598,07	95,049
598,27	94,948
598,47	95,470
598,67	96,604
598,88	96,597
599,08	96,363
599,28	97,053
599,48	96,161
599,68	96,343
599,88	96,494
600,08	96,796
600,28	96,466
600,48	97,029
600,68	95,868
600,88	96,553
601,09	96,358
601,29	94,287
601,49	95,623
601,69	94,376
601,89	94,509
602,09	94,983
602,29	93,704
602,49	94,508
602,69	94,845
602,89	94,045
603,09	94,109
603,29	95,479
603,49	94,617
603,69	94,454
603,90	94,492
604,10	95,886
604,30	95,969
604,50	95,475
604,70	95,801
604,90	96,361
605,10	97,334
605,30	97,605
605,50	97,670
605,70	97,800
605,90	98,034
606,10	97,345
606,30	97,270
606,50	98,098
606,70	98,416
606,90	97,556
607,10	98,132
607,30	99,059
607,50	97,562
607,70	97,819
607,90	97,099
608,10	97,905
608,30	97,715
608,50	97,328
608,70	96,307
608,90	97,820
609,11	97,131
609,31	96,550
609,51	96,967
609,71	96,576
609,91	96,552
610,11	95,409
610,31	96,916
610,51	96,082
610,71	96,592
610,91	95,350
611,11	95,792
611,31	96,332
611,51	95,294
611,71	94,758
611,91	93,928
612,11	94,084
612,31	92,622
612,51	91,826
612,71	92,515
612,91	91,539
613,11	89,606
613,31	89,999
613,51	88,600
613,71	88,095
613,91	87,828
614,11	87,615
614,31	85,880
614,50	86,513
614,70	85,688
614,90	85,634
615,10	85,728
615,30	85,115
615,50	84,811
615,70	85,033
615,90	85,583
616,10	84,909
616,30	84,754
616,50	85,063
616,70	85,074
616,90	85,701
617,10	84,900
617,30	85,187
617,50	84,902
617,70	85,638
617,90	85,561
618,10	83,765
618,30	85,121
618,50	83,130
618,70	83,098
618,90	82,615
619,10	80,790
619,30	79,719
619,49	78,551
619,69	76,892
619,89	74,890
620,09	74,196
620,29	73,932
620,49	70,619
620,69	69,396
620,89	67,238
621,09	64,623
621,29	63,557
621,49	61,928
621,69	60,248
621,89	58,055
622,09	56,704
622,29	56,057
622,48	54,894
622,68	52,707
622,88	52,344
623,08	51,286
623,28	50,922
623,48	49,173
623,68	49,809
623,88	49,552
624,08	48,514
624,28	47,354
624,48	47,779
624,67	46,921
624,87	46,869
625,07	46,386
625,27	46,958
625,47	46,849
625,67	46,900
625,87	46,261
626,07	46,171
626,27	45,384
626,47	45,861
626,66	45,376
626,86	45,644
627,06	45,188
627,26	44,692
627,46	43,793
627,66	44,921
627,86	44,234
628,06	44,772
628,25	43,479
628,45	43,244
628,65	42,969
628,85	42,132
629,05	41,788
629,25	41,576
629,45	41,226
629,65	41,711
629,84	40,858
630,04	40,343
630,24	40,866
630,44	39,748
630,64	39,834
630,84	39,690
631,04	38,945
631,23	38,318
631,43	37,846
631,63	36,634
631,83	36,924
632,03	36,101
632,23	35,657
632,42	35,445
632,62	34,931
632,82	34,591
633,02	33,836
633,22	33,712
633,42	32,706
633,62	32,454
633,81	32,438
634,01	31,102
634,21	30,981
634,41	30,172
634,61	29,271
634,80	29,408
635,00	28,334
635,20	27,962
635,40	26,599
635,60	25,835
635,80	24,944
635,99	23,799
636,19	22,101
636,39	21,045
636,59	19,424
636,79	17,841
636,98	16,400
637,18	14,784
637,38	13,346
637,58	12,249
637,78	10,363
637,97	8,996
638,17	8,003
638,37	6,643
638,57	5,749
638,77	5,396
638,96	4,114
639,16	3,798
639,36	3,178
639,56	2,702
639,76	2,282
639,95	2,083
640,15	1,628
640,35	1,510
640,55	1,337
640,75	1,435
640,94	0,985
641,14	1,004
641,34	1,117
641,54	1,134
641,73	1,017
641,93	0,986
642,13	0,720
642,33	1,020
642,53	0,923
642,72	0,916
642,92	1,116
643,12	0,720
643,32	1,163
643,51	0,785
643,71	0,666
643,91	0,965
644,11	1,066
644,30	0,770
644,50	0,543
644,70	0,612
644,90	0,770
645,09	1,031
645,29	0,487
645,49	1,098
645,69	1,106
645,88	1,036
646,08	1,223
646,28	1,097
646,48	0,965
646,67	0,851
646,87	1,054
647,07	1,038
647,26	0,965
647,46	0,907
647,66	0,898
647,86	1,024
648,05	0,823
648,25	0,873
648,45	0,855
648,65	1,069
648,84	0,985
649,04	1,129
649,24	0,959
649,43	0,749
649,63	1,213
649,83	1,071
650,03	1,053
650,22	0,778
650,42	1,105
650,62	0,512
650,81	1,002
651,01	1,186
651,21	0,822
651,40	0,759
651,60	1,065
651,80	0,871
652,00	0,719
652,19	0,902
652,39	1,244
652,59	0,989
652,78	1,238
652,98	0,856
653,18	0,903
653,37	0,771
653,57	0,873
653,77	0,761
653,96	0,950
654,16	1,154
654,36	0,879
654,55	1,269
654,75	1,113
654,95	0,978
655,14	0,627
655,34	1,158
655,54	0,927
655,73	0,873
655,93	1,374
656,13	0,796
656,32	0,733
656,52	0,795
656,72	0,553
656,91	0,778
657,11	1,173
657,31	0,858
657,50	1,146
657,70	0,781
657,90	0,844
658,09	0,894
658,29	1,299
658,49	0,792
658,68	1,225
658,88	1,174
659,07	0,681
659,27	0,588
659,47	0,964
659,66	0,809
659,86	1,168
660,06	0,881
660,25	0,476
660,45	0,945
660,64	0,935
660,84	0,913
661,04	1,023
661,23	0,808
661,43	0,820
661,63	0,828
661,82	0,804
662,02	1,130
662,21	1,005
662,41	0,773
662,61	1,022
662,80	0,273
663,00	0,865
663,19	1,045
663,39	1,450
663,59	1,245
663,78	0,613
663,98	0,854
664,17	0,885
664,37	1,076
664,57	0,886
664,76	1,451
664,96	0,779
665,15	0,627
665,35	1,086
665,55	0,838
665,74	0,914
665,94	0,310
666,13	1,343
666,33	0,439
666,53	1,039
666,72	0,809
666,92	1,330
667,11	1,112
667,31	0,841
667,50	0,941
667,70	0,938
667,90	0,944
668,09	0,845
668,29	0,804
668,48	1,006
668,68	1,027
668,87	0,718
669,07	0,919
669,26	0,976
669,46	0,965
669,66	0,894
669,85	0,890
670,05	0,479
670,24	0,759
670,44	0,955
670,63	0,895
670,83	0,860
671,02	1,058
671,22	1,209
671,42	0,610
671,61	0,869
671,81	0,732
672,00	0,785
672,20	0,914
672,39	0,485
672,59	0,755
672,78	0,871
672,98	0,711
673,17	0,623
673,37	0,845
673,56	0,868
673,76	0,572
673,95	0,619
674,15	0,368
674,34	0,722
674,54	0,547
674,73	0,789
674,93	0,950
675,13	0,523
675,32	0,763
675,52	0,859
675,71	0,688
675,91	0,835
676,10	0,447
676,30	0,357
676,49	0,910
676,69	0,881
676,88	1,025
677,08	0,622
677,27	0,629
677,47	0,571
677,66	0,643
677,86	0,583
678,05	0,877
678,24	0,443
678,44	0,747
678,63	0,719
678,83	0,485
679,02	0,858
679,22	0,318
679,41	0,558
679,61	0,449
679,80	0,445
680,00	0,571
680,19	0,700
680,39	0,909
680,58	0,526
680,78	0,322
680,97	0,552
681,17	0,581
681,36	0,683
681,56	0,705
681,75	0,613
681,94	0,606
682,14	0,559
682,33	0,624
682,53	0,792
682,72	0,578
682,92	0,849
683,11	0,639
683,31	0,303
683,50	0,497
683,69	0,484
683,89	0,522
684,08	0,754
684,28	0,251
684,47	0,692
684,67	0,416
684,86	0,121
685,06	0,364
685,25	0,464
685,44	0,570
685,64	0,437
685,83	0,526
686,03	0,354
686,22	0,379
686,42	0,420
686,61	0,546
686,80	0,493
687,00	0,397
687,19	0,645
687,39	0,246
687,58	0,077
687,77	0,323
687,97	0,457
688,16	0,184
688,36	0,304
688,55	0,406
688,74	0,601
688,94	0,233
689,13	0,428
689,33	0,409
689,52	0,324
689,71	0,481
689,91	0,319
690,10	0,379
690,30	0,493
690,49	0,300
690,68	0,477
690,88	0,450
691,07	0,254
691,27	0,298
691,46	0,259
691,65	0,456
691,85	0,403
692,04	0,246
692,23	0,348
692,43	0,330
692,62	0,384
692,82	0,473
693,01	0,340
693,20	0,482
693,40	0,245
693,59	0,401
693,78	0,476
693,98	0,279
694,17	0,167
694,36	0,557
694,56	0,465
694,75	0,437
694,94	0,483
695,14	0,505
695,33	0,213
695,53	0,522
695,72	0,489
695,91	0,315
696,11	0,476
696,30	0,312
696,49	0,394
696,69	0,581
696,88	0,353
697,07	0,366
697,27	0,237
697,46	0,650
697,65	0,321
697,85	0,342
698,04	0,672
698,23	0,399
698,43	0,867
698,62	0,512
698,81	0,474
699,01	0,981
699,20	0,580
699,39	0,786
699,58	0,769
699,78	0,839
699,97	0,571
700,16	1,256
700,36	0,804
700,55	0,993
700,74	0,917
700,94	1,073
701,13	1,167
701,32	1,138
701,52	1,130
701,71	0,854
701,90	1,059
702,09	1,324
702,29	1,489
702,48	1,493
702,67	1,109
702,87	1,171
703,06	1,616
703,25	1,700
703,44	0,943
703,64	1,376
703,83	2,156
704,02	1,320
704,22	1,218
704,41	1,301
704,60	2,087
704,79	1,141
704,99	2,318
705,18	2,464
705,37	2,260
705,56	2,730
705,76	2,390
705,95	1,794
706,14	1,832
706,33	2,732
706,53	2,422
706,72	2,805
706,91	3,617
707,11	2,890
707,30	2,259
707,49	3,131
707,68	2,039
707,88	2,379
708,07	1,624
708,26	2,607
708,45	3,071
708,64	2,723
708,84	3,286
709,03	2,622
709,22	3,189
709,41	3,136
709,61	3,516
709,80	3,022
709,99	4,543
710,18	3,058
710,38	3,684
710,57	2,608
710,76	2,998
710,95	1,704
711,14	4,703
711,34	3,405
711,53	3,770
711,72	4,608
711,91	3,380
712,11	4,795
712,30	5,386
712,49	3,708
712,68	4,802
712,87	5,337
713,07	5,872
713,26	4,335
713,45	5,058
713,64	3,296
713,83	4,738
714,03	7,107
714,22	5,624
714,41	4,737
714,60	5,501
714,79	4,769
714,99	5,610
715,18	4,002
715,37	4,203
715,56	5,892
715,75	4,812
715,94	4,645
716,14	3,893
716,33	6,034
716,52	4,688
716,71	6,425
716,90	7,422
717,10	6,481
717,29	4,171
717,48	4,918
717,67	4,576
717,86	4,574
718,05	4,017
718,24	6,231
718,44	5,376
718,63	4,294
718,82	9,446
719,01	6,987
719,20	5,384
719,39	8,424
719,59	2,498
719,78	3,451
719,97	7,183
720,16	6,374
720,35	7,022
720,54	8,956
720,73	7,219
720,93	10,108
721,12	7,011
721,31	8,908
721,50	8,160
721,69	5,576
721,88	9,578
722,07	7,263
722,27	8,211
722,46	9,443
722,65	4,497
722,84	7,300
723,03	2,997
723,22	9,091
723,41	7,161
723,60	11,445
723,79	7,972
723,99	7,131
724,18	12,175
724,37	9,622
724,56	7,939
724,75	11,408
724,94	13,426
725,13	14,014
725,32	9,030
725,51	6,503
725,71	8,712
725,90	12,300
726,09	13,118
726,28	10,811
726,47	4,590
726,66	8,651
726,85	7,787
727,04	8,100
727,23	10,040
727,42	13,073
727,61	6,984
727,81	11,157
728,00	15,127
728,19	12,243
728,38	8,855
728,57	15,514
728,76	13,466
728,95	14,621
729,14	9,966
729,33	17,892
729,52	9,111
729,71	15,499
729,90	13,088
730,09	9,229
730,28	15,358
730,48	9,861
730,67	13,180
730,86	10,199
731,05	15,888
731,24	9,914
731,43	11,447
731,62	18,170
731,81	12,452
732,00	10,801
732,19	9,706
732,38	8,901
732,57	10,490
732,76	16,667
732,95	8,000
733,14	6,242
733,33	10,165
733,52	16,828
733,71	8,685
733,90	17,609
734,09	7,366
734,28	18,483
734,47	9,868
734,66	13,433
734,85	11,773
735,04	15,259
735,23	13,889
735,42	20,173
735,61	15,600
735,81	17,379
736,00	17,620
736,19	17,899
736,38	17,778
736,57	20,056
736,76	11,938
736,95	18,182
737,14	18,541
737,33	17,175
737,52	10,709
737,71	15,064
737,90	12,859
738,09	20,092
738,28	18,820
738,47	20,588
738,66	13,594
738,85	16,151
739,04	20,034
739,22	17,061
739,41	17,419
739,60	11,204
739,79	19,178
739,98	5,989
740,17	17,177
740,36	22,857
740,55	26,279
740,74	8,696
740,93	21,138
741,12	20,404
741,31	10,294
741,50	18,079
741,69	15,185
741,88	19,200
742,07	24,549
742,26	13,296
742,45	17,589
742,64	28,777
742,83	15,745
743,02	16,937
743,21	19,718
743,40	19,578
743,59	10,246
743,78	22,926
743,97	20,113
744,16	18,404
744,34	20,866
744,53	12,090
744,72	25,156
744,91	16,421
745,10	25,793
745,29	21,040
745,48	16,243
745,67	19,145
745,86	10,798
746,05	22,374
746,24	27,887
746,43	30,733
746,62	20,276
746,81	19,635
747,00	26,096
747,18	30,330
747,37	23,028
747,56	26,292
747,75	21,007
747,94	27,352
748,13	18,721
748,32	19,017
748,51	28,894
748,70	33,573
748,89	25,362
749,08	25,143
749,26	15,274
749,45	35,294
749,64	27,792
749,83	27,735
750,02	17,680
750,21	29,619
750,40	19,792
750,59	37,972
750,78	28,994
750,96	18,994
751,15	21,585
751,34	32,461
751,53	33,990
751,72	21,294
751,91	21,370
752,10	20,370
752,29	19,492
752,47	34,831
752,66	34,648
752,85	28,483
753,04	25,237
753,23	9,603
753,42	25,228
753,61	17,320
753,80	31,165
753,98	21,404
754,17	25,460
754,36	22,599
754,55	27,900
754,74	33,815
754,93	34,006
755,12	29,600
755,30	33,518
755,49	40,061
755,68	31,124
755,87	24,324
756,06	36,592
756,25	33,651
756,43	25,517
756,62	23,145
756,81	37,294
757,00	43,768
757,19	37,671
757,38	32,492
757,56	42,903
757,75	34,967
757,94	25,552
758,13	40,260
758,32	21,970
758,51	31,985
758,69	22,800
758,88	32,132
759,07	33,333
759,26	27,442
759,45	27,511
759,63	47,212
759,82	36,364
760,01	24,080
760,20	30,739
760,39	41,791
760,57	44,215
760,76	27,928
760,95	25,000
761,14	42,449
761,33	29,375
761,51	47,670
761,70	57,241
761,89	46,311
762,08	36,279
762,27	37,363
762,45	49,027
762,64	23,077
762,83	40,708
763,02	45,116
763,21	38,793
763,39	49,796
763,58	25,660
763,77	44,402
763,96	67,871
764,14	46,667
764,33	27,839
764,52	57,940
764,71	62,332
764,89	50,980
765,08	47,845
765,27	49,814
765,46	42,391
765,65	64,192
765,83	54,113
766,02	26,809
766,21	60,221
766,40	48,095
766,58	50,000
766,77	26,368
766,96	66,364
767,15	53,623
767,33	42,690
767,52	82,317
767,71	45,217
767,90	60,674
768,08	52,918
768,27	44,500
768,46	49,609
768,64	58,031
768,83	35,938
769,02	60,000
769,21	50,218
769,39	59,302
769,58	48,555
769,77	67,050
769,96	49,738
770,14	31,973
770,33	44,860
770,52	42,328
770,70	28,000
770,89	74,497
771,08	48,305
771,27	70,103
771,45	53,509
771,64	69,792
771,83	61,682
772,01	50,000
772,20	60,804
772,39	23,333
772,57	62,016
772,76	62,963
772,95	43,972
773,14	66,667
773,32	77,419
773,51	61,194
773,70	92,500
773,88	84,153
774,07	61,780
774,26	68,794
774,44	46,951
774,63	84,772
774,82	91,463
775,00	56,000
775,19	52,000
775,38	92,486
775,56	41,667
775,75	67,470
775,94	79,114
776,12	40,331
776,31	82,353
776,50	66,477
776,68	63,158
776,87	61,932
777,06	49,655
777,24	95,000
777,43	64,744
777,62	72,059
777,80	99,324
777,99	76,571
778,18	61,881
778,36	55,200
778,55	66,942
778,74	62,500
778,92	50,888
779,11	73,333
779,29	54,088
779,48	73,469
779,67	82,946
779,85	68,293
780,04	65,405
780,23	59,712
780,41	79,687
780,60	41,053
780,79	66,667
780,97	91,447
781,16	60,000
781,34	82,474
781,53	84,615
781,72	80,292
781,90	38,281
782,09	50,968
782,28	105,109
782,46	68,889
782,65	65,000
782,83	62,921
783,02	75,000
783,21	98,000
783,39	131,304
783,58	76,331
783,76	73,743
783,95	64,242
784,14	96,026
784,32	80,537
784,51	104,310
784,69	85,593
784,88	92,793
785,06	73,950
785,25	83,439
785,44	98,561
785,62	85,714
785,81	94,366
785,99	74,101
786,18	87,838
786,37	64,444
786,55	66,055
786,74	85,526
786,92	107,031
787,11	83,333
787,29	79,851
787,48	65,333
787,67	98,795
787,85	71,552
788,04	57,921
788,22	76,230
788,41	110,588
788,59	111,927
788,78	61,818
788,96	112,264
789,15	113,684
789,34	98,182
789,52	87,611
789,71	87,597
789,89	127,660
790,08	78,082
790,26	71,429
790,45	89,394
790,63	73,148
790,82	98,788
791,00	91,667
791,19	122,581
791,38	107,639
791,56	95,614
791,75	109,174
791,93	80,460
792,12	81,657
792,30	100,000
792,49	71,429
792,67	101,493
792,86	62,791
793,04	118,692
793,23	105,833
793,41	102,532
793,60	109,091
793,78	84,211
793,97	120,513
794,15	113,636
794,34	126,374
794,52	80,519
794,71	146,914
794,89	47,778
795,08	106,796
795,26	88,889
795,45	114,925
795,63	100,758
795,82	89,720
796,00	116,514
796,19	85,833
796,37	106,569
796,56	132,258
796,74	113,274
796,93	107,865
797,11	132,911
797,30	96,667
797,48	100,000
797,67	112,500
797,85	85,714
798,04	134,375
798,22	103,968
798,41	144,118
798,59	90,526
798,77	149,231
798,96	98,925
799,14	93,103
799,33	111,450
799,51	90,769
799,70	68,456
799,88	160,606
800,07	76,316
800,25	77,241
800,44	88,889
800,62	65,882
800,80	133,333
800,99	158,730
801,17	107,759
801,36	100,690
801,54	138,542
801,73	78,788
801,91	68,852
802,10	101,190
802,28	122,430
802,46	88,889
802,65	116,092
802,83	139,326
803,02	112,632
803,20	95,313
803,39	81,034
803,57	130,120
803,75	66,892
803,94	79,832
804,12	72,500
804,31	91,150
804,49	96,154
804,67	89,600
804,86	88,393
805,04	88,514
805,23	83,448
805,41	75,410
805,59	77,049
805,78	78,788
805,96	73,077
806,15	128,906
806,33	112,605
806,51	89,381
806,70	135,000
806,88	101,626
807,07	85,714
807,25	79,245
807,43	98,675
807,62	80,488
807,80	138,710
807,99	72,222
808,17	96,454
808,35	82,456
808,54	120,430
808,72	86,400
808,90	84,211
809,09	116,667
809,27	111,712
809,46	139,286
809,64	110,784
809,82	101,149
810,01	93,939
810,19	106,000
810,37	60,769
810,56	124,390
810,74	61,589
810,92	99,242
811,11	149,020
811,29	109,220
811,48	86,869
811,66	114,729
811,84	144,954
812,03	72,727
812,21	50,000
812,39	105,085
812,58	100,000
812,76	77,570
812,94	106,000
813,13	51,587
813,31	95,000
813,49	102,174
813,68	99,130
813,86	106,122
814,04	136,893
814,23	157,576
814,41	64,706
814,59	77,401
814,78	79,412
814,96	121,622
815,14	111,111
815,33	84,058
815,51	82,222
815,69	100,000
815,87	75,652
816,06	95,625
816,24	93,377
816,42	58,974
816,61	84,746
816,79	153,012
816,97	102,703
817,16	67,097
817,34	85,517
817,52	107,586
817,70	120,635
817,89	83,471
818,07	73,276
818,25	73,874
818,44	86,047
818,62	63,793
818,80	100,000
818,98	80,952
819,17	81,538
819,35	75,882
819,53	107,921
819,72	58,721
819,90	88,623
820,08	55,844
820,26	112,281
820,45	93,373
820,63	77,604
820,81	89,262
820,99	90,226
821,18	92,593
821,36	84,286
821,54	65,116
821,73	94,054
821,91	53,191
822,09	93,529
822,27	72,081
822,46	93,750
822,64	88,079
822,82	67,805
823,00	75,676
823,19	90,152
823,37	92,143
823,55	85,294
823,73	53,333
823,91	55,801
824,10	83,240
824,28	88,148
824,46	66,279
824,64	51,961
824,83	91,870
825,01	65,217
825,19	54,857
825,37	70,312
825,56	54,375
825,74	68,571
825,92	59,551
826,10	77,640
826,28	81,879
826,47	48,780
826,65	67,568
826,83	66,129
827,01	62,879
827,19	61,392
827,38	56,995
827,56	75,481
827,74	71,138
827,92	67,805
828,10	68,478
828,29	84,762
828,47	69,737
828,65	72,973
828,83	76,263
829,01	53,333
829,20	62,025
829,38	51,037
829,56	55,466
829,74	84,848
829,92	56,186
830,10	72,973
830,29	67,027
830,47	66,667
830,65	43,750
830,83	63,429
831,01	42,917
831,20	54,950
831,38	55,122
831,56	69,636
831,74	66,286
831,92	77,273
832,10	60,000
832,29	57,346
832,47	45,575
832,65	53,617
832,83	54,884
833,01	29,644
833,19	61,086
833,37	60,370
833,56	61,972
833,74	69,231
833,92	59,735
834,10	63,452
834,28	41,154
834,46	52,941
834,64	54,297
834,83	47,782
835,01	59,533
835,19	45,024
835,37	43,028
835,55	60,289
835,73	55,147
835,91	42,857
836,09	54,772
836,28	49,618
836,46	47,368
836,64	49,590
836,82	37,313
837,00	53,741
837,18	40,316
837,36	35,294
837,54	42,045
837,72	41,833
837,91	37,751
838,09	37,200
838,27	51,282
838,45	46,926
838,63	27,458
838,81	48,684
838,99	47,387
839,17	48,220
839,35	46,296
839,53	57,383
839,72	29,237
839,90	28,267
840,08	38,462
840,26	48,580
840,44	32,099
840,62	29,293
840,80	31,481
840,98	40,785
841,16	19,573
841,34	38,551
841,52	37,380
841,70	37,374
841,89	38,065
842,07	34,324
842,25	34,740
842,43	41,935
842,61	42,091
842,79	35,976
842,97	25,305
843,15	39,828
843,33	37,530
843,51	24,105
843,69	34,444
843,87	36,927
844,05	36,927
844,23	38,108
844,41	29,648
844,59	26,420
844,77	19,597
844,95	33,495
845,13	37,978
845,31	36,034
845,50	44,330
845,68	40,155
845,86	37,028
846,04	25,432
846,22	42,959
846,40	13,123
846,58	24,397
846,76	20,698
846,94	24,760
847,12	27,488
847,30	30,184
847,48	39,568
847,66	32,439
847,84	28,173
848,02	36,175
848,20	32,892
848,38	24,160
848,56	30,753
848,74	29,752
848,92	25,261
849,10	31,696
849,28	28,322
849,46	21,028
849,64	25,476
849,82	23,798
850,00	18,480
850,18	25,173
850,36	24,561
850,54	25,785
850,72	21,414
850,90	31,387
851,08	22,840
851,26	30,769
851,44	23,896
851,62	22,958
851,80	19,483
851,98	31,070
852,16	30,247
852,34	33,586
852,52	23,857
852,70	24,900
852,87	26,095
853,05	27,455
853,23	29,020
853,41	18,609
853,59	24,906
853,77	22,222
853,95	26,695
854,13	24,660
854,31	28,970
854,49	22,244
854,67	24,060
854,85	27,130
855,03	25,670
855,21	23,858
855,39	19,128
855,57	27,717
855,75	19,224
855,93	20,318
856,11	23,923
856,28	24,132
856,46	23,039
856,64	20,065
856,82	22,339
857,00	22,318
857,18	19,875
857,36	21,513
857,54	19,426
857,72	13,189
857,90	17,133
858,08	17,130
858,26	16,208
858,44	17,702
858,61	20,797
858,79	21,395
858,97	15,330
859,15	14,155
859,33	15,031
859,51	15,655
859,69	16,071
859,87	19,180
860,05	17,155
860,23	10,152
860,40	11,982
860,58	11,638
860,76	20,763
860,94	10,534
861,12	14,731
861,30	19,289
861,48	16,856
861,66	16,196
861,84	16,760
862,01	22,594
862,19	19,648
862,37	16,327
862,55	11,421
862,73	14,946
862,91	18,727
863,09	20,806
863,27	10,306
863,44	14,305
863,62	15,849
863,80	12,608
863,98	15,581
864,16	14,797
864,34	17,273
864,52	13,554
864,69	15,783
864,87	20,858
865,05	11,454
865,23	14,614
865,41	8,582
865,59	15,204
865,76	13,566
865,94	16,166
866,12	12,571
866,30	13,129
866,48	13,217
866,66	16,920
866,83	13,786
867,01	13,293
867,19	10,302
867,37	10,084
867,55	12,623
867,73	15,148
867,90	14,251
868,08	16,667
868,26	10,946
868,44	9,979
868,62	13,584
868,79	8,009
868,97	13,006
869,15	10,828
869,33	9,592
869,51	18,153
869,69	13,556
869,86	10,872
870,04	12,698
870,22	8,533
870,40	16,465
870,57	14,900
870,75	13,985
870,93	12,799
871,11	15,565
871,29	11,280
871,46	12,487
871,64	10,682
871,82	9,171
872,00	12,265
872,18	14,913
872,35	15,241
872,53	12,098
872,71	7,700
872,89	14,365
873,06	13,376
873,24	9,743
873,42	12,724
873,60	7,989
873,77	9,698
873,95	9,166
874,13	9,928
874,31	7,041
874,49	11,072
874,66	9,278
874,84	6,217
875,02	11,147
875,20	13,223
875,37	8,348
875,55	3,726
875,73	7,852
875,91	9,297
876,08	11,306
876,26	7,993
876,44	8,706
876,61	9,695
876,79	10,903
876,97	9,505
877,15	13,206
877,32	7,165
877,50	9,702
877,68	8,927
877,86	8,455
878,03	5,909
878,21	6,858
878,39	8,148
878,56	9,808
878,74	8,243
878,92	7,567
879,10	8,802
879,27	7,490
879,45	10,650
879,63	7,631
879,80	8,634
879,98	6,690
880,16	5,099
880,34	7,360
880,51	9,236
880,69	8,450
880,87	6,048
881,04	6,383
881,22	9,816
881,40	3,278
881,57	5,163
881,75	7,526
881,93	8,484
882,10	7,175
882,28	8,463
882,46	6,487
882,63	7,977
882,81	6,897
882,99	8,910
883,16	7,838
883,34	9,568
883,52	5,420
883,69	6,678
883,87	7,454
884,05	3,605
884,22	6,311
884,40	6,153
884,58	4,134
884,75	6,799
884,93	9,267
885,11	5,169
885,28	7,334
885,46	6,302
885,64	5,340
885,81	6,431
885,99	5,709
886,17	3,928
886,34	5,454
886,52	6,059
886,70	5,564
886,87	7,095
887,05	4,522
887,22	5,484
887,40	7,856
887,58	3,980
887,75	6,530
887,93	6,237
888,11	1,977
888,28	5,073
888,46	4,202
888,63	6,939
888,81	5,090
888,99	2,986
889,16	3,376
889,34	4,583
889,51	6,098
889,69	5,736
889,87	3,947
890,04	4,529
890,22	4,974
890,39	2,344
890,57	5,592
890,75	6,584
890,92	6,152
891,10	6,234
891,27	3,899
891,45	4,792
891,63	6,375
891,80	4,310
891,98	5,604
892,15	4,653
892,33	4,235
892,51	3,869
892,68	4,204
892,86	3,177
893,03	5,562
893,21	4,177
893,38	5,257
893,56	3,889
893,74	4,022
893,91	4,888
894,09	3,649
894,26	4,075
894,44	3,082
894,61	4,963
894,79	4,200
894,96	4,301
895,14	5,259
895,32	4,640
895,49	5,504
895,67	4,399
895,84	5,834
896,02	4,099
896,19	3,667
896,37	5,200
896,54	4,050
896,72	2,321
896,89	2,951
897,07	4,079
897,25	5,781
897,42	4,718
897,60	5,116
897,77	6,228
897,95	5,020
898,12	2,689
898,30	4,569
898,47	3,378
898,65	4,168
898,82	3,775
899,00	4,745
899,17	3,882
899,35	3,573
899,52	3,396
899,70	3,769
899,87	3,872
900,05	5,178
900,22	5,808
900,40	3,405
900,57	4,118
900,75	2,770
900,92	4,145
901,10	4,215
901,27	4,018
901,45	4,592
901,62	4,101
901,80	4,146
901,97	3,478
902,15	4,092
902,32	4,476
902,50	3,303
902,67	4,322
902,85	3,812
903,02	4,271
903,20	3,212
903,37	3,506
903,54	5,130
903,72	4,508
903,89	2,868
904,07	3,130
904,24	2,989
904,42	3,201
904,59	3,423
904,77	3,862
904,94	4,479
905,12	2,143
905,29	3,321
905,47	3,978
905,64	3,835
905,81	3,046
905,99	3,234
906,16	4,884
906,34	3,143
906,51	2,884
906,69	4,005
906,86	3,591
907,03	3,452
907,21	2,718
907,38	1,351
907,56	3,314
907,73	4,068
907,91	4,843
908,08	3,601
908,25	2,804
908,43	4,047
908,60	2,703
908,78	3,753
908,95	4,705
909,13	4,803
909,30	1,672
909,47	3,085
909,65	3,792
909,82	3,558
910,00	2,216
910,17	3,731
910,34	3,954
910,52	1,447
910,69	3,908
910,87	4,233
911,04	1,892
911,21	3,216
911,39	4,516
911,56	3,557
911,73	3,133
911,91	3,830
912,08	4,290
912,26	1,786
912,43	2,927
912,60	3,695
912,78	2,678
912,95	3,896
913,13	2,275
913,30	3,272
913,47	3,983
913,65	1,999
913,82	3,691
913,99	2,574
914,17	3,012
914,34	3,194
914,51	3,985
914,69	2,829
914,86	3,674
915,03	3,348
915,21	3,392
915,38	2,648
915,56	2,799
915,73	2,315
915,90	3,376
916,08	2,654
916,25	2,456
916,42	3,070
916,60	2,477
916,77	3,130
916,94	2,075
917,12	4,116
917,29	3,058
917,46	2,398
917,64	2,549
917,81	3,001
917,98	2,451
918,16	2,800
918,33	4,032
918,50	3,660
918,67	3,049
918,85	3,268
919,02	2,326
919,19	4,374
919,37	3,304
919,54	3,246
919,71	3,450
919,89	2,312
920,06	2,023
920,23	3,063
920,41	3,382
920,58	2,150
920,75	2,857
920,92	1,658
921,10	2,397
921,27	1,051
921,44	3,639
921,62	1,290
921,79	2,515
921,96	2,389
922,13	1,448
922,31	1,803
922,48	2,929
922,65	2,311
922,82	2,444
923,00	3,520
923,17	1,496
923,34	2,632
923,52	1,675
923,69	2,859
923,86	1,474
924,03	1,586
924,21	2,115
924,38	2,809
924,55	3,841
924,72	3,448
924,90	3,221
925,07	2,752
925,24	2,398
925,41	2,202
925,59	1,658
925,76	2,522
925,93	2,617
926,10	2,944
926,28	1,959
926,45	3,410
926,62	2,293
926,79	2,027
926,96	2,683
927,14	2,587
927,31	1,306
927,48	2,287
927,65	2,609
927,83	1,409
928,00	1,819
928,17	1,998
928,34	2,363
928,51	2,806
928,69	1,737
928,86	2,469
929,03	3,878
929,20	2,452
929,37	3,021
929,55	2,267
929,72	2,497
929,89	2,492
930,06	1,910
930,23	2,224
930,41	2,813
930,58	2,845
930,75	2,467
930,92	1,452
931,09	2,197
931,27	2,248
931,44	1,415
931,61	2,513
931,78	2,247
931,95	1,820
932,12	1,810
932,30	2,559
932,47	2,983
932,64	2,986
932,81	2,808
932,98	1,214
933,16	1,157
933,33	2,597
933,50	2,376
933,67	3,475
933,84	1,960
934,01	2,128
934,18	2,234
934,36	1,410
934,53	1,825
934,70	2,448
934,87	1,756
935,04	2,778
935,21	1,569
935,38	1,985
935,56	1,513
935,73	2,217
935,90	1,031
936,07	2,214
936,24	2,198
936,41	2,287
936,58	0,772
936,76	2,598
936,93	1,013
937,10	2,303
937,27	2,125
937,44	1,223
937,61	2,163
937,78	2,108
937,95	1,566
938,13	2,113
938,30	1,705
938,47	1,991
938,64	2,467
938,81	1,427
938,98	2,174
939,15	1,829
939,32	1,805
939,49	2,145
939,66	2,729
939,84	2,214
940,01	1,957
940,18	2,088
940,35	1,801
940,52	0,135
940,69	2,884
940,86	1,626
941,03	1,512
941,20	2,017
941,37	2,460
941,54	0,435
941,71	0,891
941,89	1,982
942,06	2,144
942,23	2,360
942,40	2,446
942,57	2,007
942,74	2,314
942,91	0,992
943,08	3,346
943,25	2,158
943,42	1,787
943,59	1,800
943,76	2,974
943,93	1,764
944,10	1,800
944,27	2,034
944,44	2,124
944,61	2,567
944,79	2,036
944,96	3,583
945,13	1,279
945,30	1,758
945,47	2,753
945,64	3,253
945,81	2,802
945,98	2,629
946,15	2,926
946,32	1,782
946,49	2,665
946,66	2,882
946,83	2,332
947,00	3,357
947,17	2,341
947,34	2,984
947,51	2,262
947,68	3,268
947,85	2,148
948,02	3,021
948,19	4,534
948,36	2,913
948,53	3,255
948,70	4,289
948,87	4,281
949,04	2,210
949,21	1,315
949,38	3,715
949,55	3,028
949,72	2,552
949,89	3,235
950,06	2,390
950,23	3,399
950,40	3,724
950,57	2,236
950,74	4,663
950,91	2,956
951,08	2,221
951,25	5,512
951,42	5,906
951,59	4,418
951,76	2,879
951,93	4,784
952,10	3,693
952,27	4,145
952,44	2,910
952,61	3,454
952,77	2,301
952,94	3,771
953,11	5,358
953,28	3,537
953,45	2,352
953,62	5,542
953,79	3,635
953,96	6,729
954,13	4,604
954,30	6,509
954,47	5,303
954,64	6,652
954,81	4,494
954,98	5,246
955,15	6,316
955,32	4,586
955,49	3,580
955,65	6,884
955,82	7,783
955,99	5,682
956,16	6,899
956,33	6,625
956,50	6,745
956,67	7,843
956,84	6,519
957,01	7,566
957,18	6,761
957,35	6,134
957,52	7,550
957,68	11,000
957,85	8,936
958,02	6,632
958,19	8,964
958,36	13,209
958,53	10,138
958,70	10,045
958,87	8,806
959,04	11,770
959,21	12,121
959,37	11,688
959,54	11,466
959,71	7,594
959,88	9,221
960,05	17,219
960,22	9,704
960,39	12,800
960,56	10,759
960,72	12,045
960,89	14,956
961,06	18,089
961,23	12,227
961,40	13,853
961,57	10,984
961,74	15,823
961,90	18,125
962,07	15,525
962,24	20,163
962,41	15,745
962,58	16,351
962,75	13,982
962,92	22,243
963,08	18,182
963,25	17,658
963,42	19,082
963,59	16,942
963,76	22,247
963,93	24,714
964,10	18,844
964,26	32,675
964,43	35,659
964,60	23,057
964,77	37,590
964,94	23,864
965,10	31,548
965,27	27,415
965,44	32,727
965,61	36,088
965,78	30,032
965,95	28,443
966,11	47,059
966,28	36,059
966,45	36,449
966,62	44,000
966,79	48,163
966,95	34,925
967,12	33,438
967,29	32,986
967,46	49,621
967,63	39,623
967,79	46,396
967,96	43,290
968,13	43,000
968,30	45,161
968,47	65,979
968,63	55,405
968,80	63,303
968,97	63,942
969,14	49,419
969,31	48,889
969,47	52,941
969,64	68,687
969,81	56,995
969,98	59,341
970,14	58,896
970,31	58,491
970,48	60,000
970,65	79,882
970,81	69,178
970,98	122,628
971,15	131,633
971,32	56,250
971,48	80,272
971,65	50,769
971,82	128,431
971,99	109,195
972,15	87,324
972,32	106,306
972,49	95,105
972,66	161,818
972,82	169,767
972,99	94,309
973,16	142,529
973,33	88,393
973,49	125,263
973,66	129,032
973,83	135,922
974,00	102,326
974,16	122,549
974,33	137,719
974,50	112,632
974,67	167,368
974,83	97,619
975,00	127,368
975,17	106,593
975,33	152,809
975,50	100,000
975,67	181,633
975,84	207,463
976,00	121,348
976,17	180,328
976,34	94,000
976,50	170,787
976,67	90,291
976,84	2533,333
977,00	232,653
977,17	204,444
977,34	193,407
977,50	164,179
977,67	217,857
977,84	187,097
978,01	236,170
978,17	644,444
978,34	236,111
978,51	241,176
978,67	171,053
978,84	125,000
979,01	264,865
979,17	143,590
979,34	123,288
979,51	261,224
979,67	130,864
979,84	365,306
980,01	206,667
980,17	257,746
980,34	433,333
980,51	172,464
980,67	143,529
980,84	420,000
981,01	605,000
981,17	564,000
981,34	555,556
981,50	172,059
981,67	291,525
981,84	3600,000
982,00	390,000
982,17	278,571
982,34	140,000
982,50	853,333
982,67	200,000
982,84	2120,000
983,00	1800,000
983,17	185,075
983,33	162,069
983,50	1780,000
983,67	-313,793
983,83	400,000
984,00	-1785,714
984,17	533,333
984,33	-4400,000
984,50	422,857
984,66	336,957
984,83	205,195
985,00	-454,167
985,16	427,586
985,33	541,176
985,49	561,111
985,66	414,706
985,83	343,478
985,99	433,333
986,16	-2925,000
986,32	800,000
986,49	8200,000
986,66	333,333
986,82	916,667
986,99	335,849
987,15	-447,368
987,32	-282,143
987,49	242,000
987,65	5700,000
987,82	437,500
987,98	295,918
988,15	390,000
988,31	800,000
988,48	-1733,333
988,65	342,857
988,81	352,778
988,98	319,512
989,14	288,095
989,31	628,571
989,47	314,706
989,64	-784,615
989,80	581,250
989,97	345,946
990,14	-317,391
990,30	-477,273
990,47	316,327
990,63	388,889
990,80	200,000
990,96	-680,000
991,13	450,000
991,29	441,379
991,46	0,000
991,62	-746,154
991,79	1116,667
991,95	10300,000
992,12	-1070,000
992,29	-712,500
992,45	162,353
992,62	288,372
992,78	336,364
992,95	-693,333
993,11	535,714
993,28	1330,000
993,44	-1310,000
993,61	-643,750
993,77	-2750,000
993,94	-4533,333
994,10	-108,000
994,27	931,579
994,43	220,930
994,60	0,000
994,76	3100,000
994,93	380,000
995,09	-823,529
995,26	1188,889
995,42	272,549
995,59	619,048
995,75	1046,154
995,92	2685,714
996,08	383,333
996,25	-1100,000
996,41	-6200,000
996,58	800,000
996,74	406,818
996,91	368,966
997,07	0,000
997,23	13200,000
997,40	-15200,000
997,56	-938,462
997,73	-1687,500
997,89	363,158
998,06	1100,000
998,22	-494,444
998,39	604,000
998,55	1555,556
998,72	-2037,500
998,88	-293,333
999,05	-44,872
999,21	333,333
999,37	-900,000
999,54	-1125,000
999,70	-326,667
999,87	825,000
1000,03	325,641
1000,20	333,333
1000,36	0,000
1000,52	525,000
1000,69	-604,762
1000,85	-990,000
1001,02	-437,500
1001,18	2250,000
1001,35	923,077
1001,51	682,353
1001,67	-907,692
1001,84	-2900,000
1002,00	313,514
1002,17	1263,636
1002,33	-2500,000
1002,50	442,857
1002,66	-761,538
1002,82	425,000
1002,99	850,000
1003,15	-957,143
1003,32	-954,545
1003,48	500,000
1003,64	846,667
1003,81	429,630
1003,97	-7250,000
1004,14	1045,455
1004,30	286,667
1004,46	-606,667
1004,63	942,857
1004,79	325,000
1004,95	900,000
1005,12	4000,000
1005,28	531,034
1005,45	448,649
1005,61	368,966
1005,77	-212,500
1005,94	-461,905
1006,10	-4000,000
1006,26	1100,000
1006,43	-342,308
1006,59	-1572,727
1006,76	900,000
1006,92	1411,111
1007,08	10800,000
1007,25	-296,296
1007,41	465,517
1007,57	6350,000
1007,74	1070,000
1007,90	-327,586
1008,06	284,783
1008,23	941,176
1008,39	-587,500
1008,55	-253,846
1008,72	-1685,714
1008,88	0,000
1009,04	356,098
1009,21	-292,105
1009,37	-675,000
1009,53	273,810
1009,70	2400,000
1009,86	-457,143
1010,02	3500,000
1010,19	1136,364
1010,35	229,412
1010,51	-5650,000
1010,68	-1550,000
1010,84	-213,636
1011,00	643,750
1011,17	-263,636
1011,33	0,000
1011,49	-853,333
1011,66	971,429
1011,82	548,387
1011,98	664,286
1012,14	-436,364
1012,31	387,179
1012,47	0,000
1012,63	2283,333
1012,80	785,714
1012,96	-962,500
1013,12	-1966,667
1013,29	566,667
1013,45	365,854
1013,61	4433,333
1013,77	-146,429
1013,94	2920,000
1014,10	191,525
1014,26	-3300,000
1014,43	-356,000
1014,59	710,000
1014,75	-311,111
1014,91	-1040,000
1015,08	408,333
1015,24	10900,000
1015,40	711,765
1015,56	-10500,000
1015,73	204,762
1015,89	590,909
1016,05	3050,000
1016,21	-1437,500
1016,38	826,316
1016,54	1015,385
1016,70	-3400,000
1016,86	496,875
1017,03	737,500
1017,19	-915,385
1017,35	-741,176
1017,51	-1840,000
1017,68	-860,000
1017,84	-1642,857
1018,00	340,476
1018,16	526,923
1018,33	-1385,714
1018,49	-1058,333
1018,65	-351,351
1018,81	335,897
1018,97	-2057,143
1019,14	-3266,667
1019,30	-338,462
1019,46	0,000
1019,62	-488,235
1019,79	-3800,000
1019,95	1291,667
1020,11	8400,000
1020,27	-355,556
1020,43	-484,615
1020,60	2100,000
1020,76	750,000
1020,92	640,000
1021,08	890,000
1021,24	1280,000
1021,41	1277,778
1021,57	2212,500
1021,73	792,308
1021,89	2720,000
1022,05	-364,286
1022,21	660,000
1022,38	-700,000
1022,54	-2300,000
1022,70	284,444
1022,86	-1762,500
1023,02	475,000
1023,19	2120,000
1023,35	3733,333
1023,51	483,333
1023,67	514,815
1023,83	-593,750
1023,99	352,632
1024,16	-434,615
1024,32	-1400,000
1024,48	-870,000
1024,64	326,190
1024,80	552,174
1024,96	412,821
1025,12	542,857
1025,29	519,048
1025,45	357,895
1025,61	888,889
1025,77	-2500,000
1025,93	-8800,000
1026,09	-1528,571
1026,26	1275,000
1026,42	600,000
1026,58	418,182
1026,74	1866,667
1026,90	388,000
1027,06	317,857
1027,22	785,714
1027,38	275,000
1027,55	4700,000
1027,71	1150,000
1027,87	-280,000
1028,03	1100,000
1028,19	396,875
1028,35	615,000
1028,51	1940,000
1028,67	925,000
1028,83	-3050,000
1029,00	-230,952
1029,16	1340,000
1029,32	-114,286
1029,48	308,889
1029,64	358,333
1029,80	6250,000
1029,96	753,333
1030,12	473,913
1030,28	-3166,667
1030,44	-630,769
1030,61	-333,333
1030,77	-277,143
1030,93	-833,333
1031,09	1800,000
1031,25	-7900,000
1031,41	-373,333
1031,57	380,769
1031,73	681,250
1031,89	-754,545
1032,05	-351,852
1032,21	900,000
1032,37	-207,407
1032,53	-892,857
1032,69	-291,667
1032,86	562,963
1033,02	-290,000
1033,18	-681,250
1033,34	631,579
1033,50	-5450,000
1033,66	-246,341
1033,82	491,304
1033,98	-440,741
1034,14	202,564
1034,30	380,645
1034,46	-4033,333
1034,62	695,000
1034,78	-657,143
1034,94	413,158
1035,10	-646,154
1035,26	-181,395
1035,42	-289,655
1035,58	-516,667
1035,74	883,333
1035,90	-715,385
1036,06	-1050,000
1036,22	1766,667
1036,38	-647,059
1036,54	-304,167
1036,70	-209,091
1036,86	12100,000
1037,02	683,333
1037,18	910,526
1037,34	180,952
1037,50	-180,488
1037,66	-464,706
1037,82	2820,000
1037,98	-292,593
1038,14	-432,000
1038,30	-1475,000
1038,46	-578,571
1038,62	413,043
1038,78	-4100,000
1038,94	-452,632
1039,10	672,727
1039,26	396,296
1039,42	-891,667
1039,58	1742,857
1039,74	-405,263
1039,90	331,250
1040,06	-515,385
>>>>>End Processed Spectral Data<<<<<
