SpectraSuite Data File
++++++++++++++++++++++++++++++++++++
Date: Wed Feb 01 16:22:09 EET 2017
User: optolab
Dark Spectrum Present: Yes
Reference Spectrum Present: Yes
Number of Sampled Component Spectra: 1
Spectrometers: USB4C02475
Integration Time (usec): 100000 (USB4C02475)
Spectra Averaged: 1 (USB4C02475)
Boxcar Smoothing: 0 (USB4C02475)
Correct for Electrical Dark: No (USB4C02475)
Strobe/Lamp Enabled: No (USB4C02475)
Correct for Detector Non-linearity: No (USB4C02475)
Correct for Stray Light: No (USB4C02475)
Number of Pixels in Processed Spectrum: 3648
>>>>>Begin Processed Spectral Data<<<<<
344,91	3950,000
345,13	3950,000
345,35	3950,000
345,57	0,000
345,79	236,842
346,00	-1866,667
346,22	-2014,286
346,44	341,176
346,66	-616,667
346,87	-12700,000
347,09	421,212
347,31	-540,909
347,53	-289,744
347,74	283,077
347,96	493,939
348,18	821,053
348,40	335,484
348,61	1064,706
348,83	371,429
349,05	286,275
349,27	-4550,000
349,48	550,000
349,70	-320,690
349,92	370,968
350,14	316,981
350,35	290,000
350,57	2875,000
350,79	704,000
351,01	-647,619
351,22	264,815
351,44	707,692
351,66	-440,000
351,87	-576,190
352,09	265,385
352,31	213,115
352,53	251,563
352,74	338,889
352,96	283,117
353,18	689,474
353,40	584,000
353,61	300,000
353,83	285,294
354,05	1036,364
354,26	2500,000
354,48	174,000
354,70	303,030
354,92	-334,483
355,13	190,909
355,35	393,182
355,57	525,000
355,78	244,578
356,00	-4450,000
356,22	473,077
356,44	5950,000
356,65	329,545
356,87	615,385
357,09	612,500
357,30	271,111
357,52	272,414
357,74	890,000
357,95	243,590
358,17	240,984
358,39	269,355
358,60	327,027
358,82	466,667
359,04	500,000
359,26	554,286
359,47	6400,000
359,69	370,000
359,91	503,030
360,12	509,524
360,34	625,000
360,56	-146,296
360,77	2150,000
360,99	700,000
361,21	288,000
361,42	5600,000
361,64	212,245
361,86	247,692
362,07	-406,452
362,29	184,000
362,51	-464,706
362,72	592,000
362,94	370,588
363,16	283,721
363,37	-985,714
363,59	400,000
363,81	400,000
364,02	700,000
364,24	495,833
364,46	4100,000
364,67	1027,273
364,89	2371,429
365,11	192,857
365,32	351,724
365,54	333,333
365,76	416,327
365,97	402,941
366,19	198,276
366,41	640,909
366,62	385,185
366,84	232,558
367,05	365,306
367,27	2016,667
367,49	-807,692
367,70	711,765
367,92	249,180
368,14	335,417
368,35	-9200,000
368,57	520,000
368,79	400,000
369,00	302,174
369,22	-825,000
369,43	282,353
369,65	272,581
369,87	351,351
370,08	148,193
370,30	237,500
370,51	190,164
370,73	257,778
370,95	287,097
371,16	242,857
371,38	506,667
371,60	1525,000
371,81	153,125
372,03	880,000
372,24	476,667
372,46	339,623
372,68	232,857
372,89	396,970
373,11	538,462
373,32	352,273
373,54	-853,846
373,76	915,385
373,97	666,667
374,19	618,182
374,40	290,625
374,62	-3433,333
374,84	4450,000
375,05	528,571
375,27	374,000
375,48	-9000,000
375,70	198,667
375,92	289,286
376,13	293,750
376,35	183,562
376,56	1243,750
376,78	287,500
376,99	471,429
377,21	320,833
377,43	206,061
377,64	188,406
377,86	389,655
378,07	366,667
378,29	-1587,500
378,51	512,903
378,72	283,333
378,94	-1500,000
379,15	324,242
379,37	976,471
379,58	244,615
379,80	633,333
380,01	800,000
380,23	237,255
380,45	2280,000
380,66	5000,000
380,88	293,182
381,09	242,857
381,31	188,889
381,52	298,039
381,74	1377,778
381,95	659,091
382,17	480,769
382,39	671,429
382,60	246,939
382,82	312,821
383,03	344,231
383,25	370,968
383,46	270,455
383,68	511,111
383,89	440,000
384,11	374,194
384,32	-3366,667
384,54	466,667
384,76	-5066,667
384,97	233,333
385,19	448,276
385,40	309,804
385,62	222,807
385,83	359,524
386,05	221,569
386,26	298,000
386,48	205,747
386,69	262,500
386,91	565,000
387,12	250,847
387,34	215,517
387,55	191,935
387,77	396,875
387,98	480,769
388,20	169,565
388,41	376,471
388,63	10800,000
388,84	191,803
389,06	330,952
389,27	778,947
389,49	366,667
389,70	269,388
389,92	360,000
390,13	222,449
390,35	286,275
390,56	314,815
390,78	507,407
390,99	990,000
391,21	442,105
391,42	297,778
391,64	317,073
391,85	206,897
392,07	218,182
392,28	101,333
392,50	357,576
392,71	-750,000
392,93	205,769
393,14	391,667
393,36	291,837
393,57	139,098
393,79	1033,333
394,00	289,362
394,22	156,164
394,43	151,807
394,65	239,535
394,86	1137,500
395,08	619,048
395,29	166,038
395,50	800,000
395,72	488,889
395,93	871,429
396,15	200,000
396,36	176,471
396,58	266,667
396,79	262,500
397,01	250,000
397,22	288,889
397,44	192,424
397,65	189,474
397,87	247,619
398,08	244,898
398,29	375,000
398,51	317,857
398,72	204,878
398,94	184,615
399,15	331,429
399,37	238,596
399,58	161,538
399,80	572,727
400,01	233,333
400,22	414,286
400,44	209,877
400,65	492,857
400,87	160,294
401,08	141,429
401,30	297,826
401,51	219,298
401,72	357,692
401,94	179,747
402,15	500,000
402,37	139,496
402,58	611,111
402,80	220,000
403,01	188,732
403,22	1118,182
403,44	257,971
403,65	208,929
403,87	168,571
404,08	374,359
404,30	141,176
404,51	-2666,667
404,72	127,143
404,94	153,922
405,15	220,000
405,37	194,937
405,58	123,529
405,79	171,951
406,01	297,561
406,22	196,552
406,44	195,745
406,65	250,877
406,86	81,250
407,08	122,785
407,29	145,631
407,51	169,512
407,72	154,630
407,93	132,609
408,15	77,778
408,36	227,907
408,58	151,546
408,79	97,500
409,00	158,333
409,22	163,492
409,43	154,430
409,64	80,745
409,86	98,742
410,07	106,154
410,29	85,821
410,50	110,638
410,71	115,179
410,93	95,541
411,14	141,860
411,35	97,024
411,57	101,316
411,78	103,906
412,00	100,000
412,21	137,419
412,42	78,307
412,64	84,120
412,85	92,784
413,06	73,780
413,28	76,126
413,49	82,938
413,70	88,043
413,92	86,166
414,13	70,124
414,34	83,525
414,56	67,832
414,77	87,342
414,98	62,416
415,20	60,208
415,41	64,023
415,63	50,746
415,84	58,889
416,05	56,044
416,27	54,264
416,48	46,348
416,69	45,133
416,91	48,108
417,12	51,070
417,33	48,421
417,55	45,272
417,76	52,361
417,97	47,303
418,19	52,883
418,40	58,085
418,61	55,741
418,83	49,818
419,04	51,262
419,25	50,312
419,46	46,617
419,68	57,778
419,89	55,738
420,10	54,830
420,32	46,202
420,53	55,006
420,74	55,781
420,96	54,250
421,17	52,771
421,38	52,013
421,60	50,552
421,81	54,442
422,02	56,113
422,23	47,512
422,45	49,678
422,66	47,404
422,87	49,695
423,09	49,007
423,30	50,289
423,51	49,449
423,73	46,512
423,94	46,148
424,15	42,925
424,36	44,444
424,58	42,938
424,79	41,786
425,00	41,486
425,22	44,398
425,43	40,479
425,64	38,602
425,85	41,948
426,07	44,842
426,28	38,652
426,49	39,714
426,71	41,503
426,92	40,885
427,13	42,462
427,34	47,293
427,56	44,854
427,77	42,282
427,98	44,672
428,19	46,008
428,41	46,348
428,62	46,563
428,83	45,085
429,04	47,319
429,26	49,262
429,47	50,412
429,68	50,851
429,89	52,115
430,11	55,087
430,32	58,910
430,53	61,950
430,74	62,248
430,96	63,101
431,17	64,385
431,38	66,446
431,59	63,812
431,81	68,829
432,02	64,896
432,23	65,539
432,44	65,261
432,66	64,307
432,87	63,064
433,08	60,949
433,29	58,313
433,51	53,743
433,72	54,134
433,93	51,140
434,14	48,700
434,35	48,160
434,57	45,841
434,78	45,769
434,99	45,102
435,20	44,475
435,42	42,594
435,63	42,529
435,84	45,041
436,05	43,133
436,26	43,265
436,48	44,132
436,69	44,942
436,90	43,983
437,11	43,741
437,32	44,828
437,54	45,283
437,75	44,631
437,96	47,052
438,17	46,195
438,38	47,726
438,60	47,039
438,81	46,076
439,02	48,462
439,23	46,519
439,44	45,576
439,66	45,925
439,87	45,120
440,08	43,335
440,29	42,630
440,50	41,309
440,72	40,231
440,93	38,524
441,14	37,626
441,35	36,273
441,56	33,700
441,77	32,030
441,99	31,492
442,20	29,968
442,41	28,319
442,62	27,898
442,83	27,166
443,04	27,681
443,26	26,703
443,47	26,476
443,68	25,831
443,89	25,973
444,10	25,399
444,31	26,092
444,53	25,203
444,74	25,129
444,95	24,662
445,16	24,922
445,37	23,690
445,58	22,667
445,80	21,920
446,01	20,636
446,22	18,870
446,43	17,897
446,64	16,305
446,85	15,079
447,06	13,385
447,28	12,553
447,49	11,336
447,70	10,459
447,91	9,287
448,12	8,580
448,33	7,612
448,54	6,966
448,76	6,048
448,97	5,760
449,18	4,750
449,39	4,490
449,60	3,982
449,81	3,883
450,02	3,212
450,23	2,869
450,45	2,571
450,66	2,319
450,87	2,421
451,08	2,138
451,29	2,120
451,50	1,590
451,71	1,618
451,92	1,214
452,13	0,942
452,35	1,394
452,56	1,229
452,77	1,238
452,98	0,926
453,19	0,963
453,40	0,671
453,61	0,973
453,82	0,502
454,03	0,900
454,25	0,995
454,46	0,787
454,67	0,914
454,88	0,686
455,09	0,986
455,30	0,865
455,51	0,790
455,72	0,756
455,93	0,467
456,14	0,936
456,35	1,013
456,56	1,019
456,78	0,761
456,99	0,728
457,20	1,057
457,41	0,678
457,62	0,823
457,83	0,712
458,04	0,790
458,25	0,617
458,46	0,605
458,67	0,948
458,88	0,944
459,09	0,583
459,30	0,846
459,51	0,759
459,73	0,612
459,94	1,072
460,15	0,791
460,36	0,883
460,57	0,595
460,78	0,397
460,99	0,525
461,20	0,635
461,41	0,496
461,62	0,428
461,83	0,650
462,04	0,712
462,25	0,815
462,46	0,482
462,67	0,641
462,88	0,681
463,09	0,754
463,30	0,470
463,51	0,691
463,72	0,669
463,93	0,561
464,15	0,470
464,36	0,611
464,57	0,287
464,78	0,470
464,99	0,503
465,20	0,551
465,41	0,496
465,62	0,450
465,83	0,685
466,04	0,532
466,25	0,496
466,46	0,486
466,67	0,480
466,88	0,522
467,09	0,541
467,30	0,548
467,51	0,659
467,72	0,451
467,93	0,662
468,14	0,428
468,35	0,552
468,56	0,421
468,77	0,701
468,98	0,632
469,19	0,477
469,40	0,505
469,61	0,563
469,82	0,431
470,03	0,648
470,24	0,697
470,45	0,577
470,66	0,621
470,87	0,480
471,08	0,670
471,29	0,488
471,50	0,550
471,71	0,550
471,92	0,738
472,13	0,604
472,34	0,524
472,55	0,739
472,76	0,647
472,97	0,817
473,18	0,487
473,39	0,490
473,60	0,567
473,81	0,651
474,01	0,717
474,22	0,553
474,43	0,890
474,64	0,732
474,85	0,463
475,06	0,581
475,27	0,578
475,48	0,520
475,69	0,474
475,90	0,713
476,11	0,776
476,32	0,635
476,53	0,653
476,74	0,782
476,95	0,676
477,16	0,458
477,37	0,768
477,58	0,780
477,79	0,754
478,00	0,848
478,21	0,626
478,41	0,712
478,62	0,662
478,83	0,957
479,04	0,968
479,25	0,562
479,46	0,601
479,67	1,055
479,88	0,850
480,09	0,853
480,30	1,054
480,51	1,148
480,72	0,924
480,93	1,206
481,14	1,221
481,34	1,276
481,55	1,325
481,76	1,439
481,97	1,941
482,18	2,095
482,39	2,736
482,60	3,088
482,81	3,790
483,02	3,741
483,23	4,911
483,44	5,503
483,65	6,360
483,85	7,061
484,06	8,028
484,27	8,897
484,48	10,276
484,69	11,160
484,90	12,371
485,11	13,566
485,32	15,328
485,53	16,985
485,73	18,572
485,94	19,851
486,15	21,788
486,36	23,557
486,57	24,931
486,78	27,001
486,99	28,650
487,20	30,354
487,41	32,863
487,61	34,339
487,82	36,043
488,03	38,316
488,24	40,201
488,45	42,331
488,66	43,454
488,87	45,789
489,08	47,512
489,28	49,586
489,49	51,789
489,70	53,274
489,91	55,150
490,12	56,948
490,33	58,512
490,54	59,646
490,74	61,273
490,95	61,975
491,16	62,986
491,37	64,815
491,58	66,178
491,79	66,489
492,00	68,268
492,20	68,716
492,41	68,435
492,62	68,338
492,83	67,707
493,04	67,192
493,25	66,732
493,45	65,072
493,66	63,330
493,87	62,033
494,08	60,556
494,29	58,902
494,50	57,618
494,70	56,364
494,91	55,439
495,12	53,698
495,33	52,181
495,54	50,663
495,75	49,236
495,95	47,762
496,16	47,171
496,37	46,137
496,58	45,064
496,79	43,718
496,99	42,478
497,20	41,732
497,41	41,532
497,62	40,117
497,83	39,673
498,04	38,967
498,24	38,951
498,45	38,463
498,66	38,004
498,87	38,069
499,08	37,350
499,28	38,237
499,49	37,698
499,70	37,498
499,91	37,950
500,12	37,512
500,32	36,976
500,53	37,299
500,74	37,699
500,95	37,361
501,15	37,608
501,36	37,939
501,57	37,433
501,78	37,637
501,99	37,353
502,19	37,394
502,40	36,145
502,61	36,692
502,82	37,087
503,02	36,686
503,23	37,072
503,44	37,058
503,65	36,272
503,86	35,622
504,06	35,531
504,27	35,745
504,48	35,553
504,69	35,688
504,89	35,556
505,10	35,926
505,31	36,132
505,52	36,414
505,72	37,240
505,93	38,022
506,14	38,326
506,35	39,978
506,55	40,275
506,76	42,245
506,97	43,357
507,18	45,179
507,38	46,618
507,59	47,437
507,80	49,738
508,01	50,469
508,21	52,430
508,42	54,960
508,63	57,395
508,84	58,322
509,04	59,850
509,25	61,896
509,46	62,375
509,67	63,309
509,87	64,442
510,08	65,803
510,29	66,031
510,49	66,554
510,70	66,049
510,91	65,791
511,12	64,483
511,32	64,294
511,53	62,526
511,74	61,368
511,94	59,883
512,15	58,649
512,36	57,377
512,57	55,156
512,77	53,335
512,98	51,163
513,19	50,272
513,39	47,993
513,60	45,737
513,81	45,178
514,01	43,819
514,22	41,701
514,43	40,525
514,64	39,123
514,84	37,692
515,05	36,684
515,26	35,102
515,46	34,251
515,67	32,485
515,88	30,901
516,08	29,685
516,29	28,203
516,50	26,660
516,70	24,922
516,91	23,364
517,12	21,156
517,32	20,243
517,53	18,516
517,74	16,939
517,95	15,149
518,15	14,154
518,36	12,675
518,57	11,796
518,77	10,607
518,98	9,543
519,19	8,732
519,39	8,381
519,60	7,938
519,80	7,440
520,01	6,851
520,22	6,665
520,42	6,438
520,63	5,928
520,84	5,557
521,04	5,360
521,25	5,295
521,46	4,843
521,66	4,315
521,87	3,810
522,08	3,379
522,28	3,154
522,49	2,303
522,70	2,413
522,90	2,019
523,11	1,591
523,31	1,541
523,52	1,068
523,73	1,157
523,93	0,970
524,14	0,733
524,35	0,718
524,55	0,877
524,76	0,600
524,97	0,612
525,17	0,806
525,38	0,623
525,58	0,678
525,79	0,521
526,00	0,759
526,20	0,694
526,41	0,544
526,61	0,702
526,82	0,568
527,03	0,728
527,23	0,625
527,44	0,611
527,64	0,443
527,85	0,506
528,06	0,710
528,26	0,807
528,47	0,626
528,68	0,603
528,88	0,697
529,09	0,534
529,29	0,664
529,50	0,385
529,70	0,670
529,91	0,722
530,12	0,635
530,32	0,382
530,53	0,425
530,73	0,636
530,94	0,504
531,15	0,669
531,35	0,464
531,56	0,448
531,76	0,534
531,97	0,633
532,17	0,493
532,38	0,485
532,59	0,420
532,79	0,786
533,00	0,623
533,20	0,739
533,41	0,596
533,61	0,517
533,82	0,649
534,03	0,398
534,23	0,759
534,44	0,493
534,64	0,408
534,85	0,390
535,05	0,627
535,26	0,402
535,46	0,622
535,67	0,630
535,88	0,567
536,08	0,321
536,29	0,659
536,49	0,596
536,70	0,571
536,90	0,522
537,11	0,502
537,31	0,467
537,52	0,542
537,72	0,669
537,93	0,661
538,13	0,569
538,34	0,713
538,55	0,674
538,75	0,451
538,96	0,538
539,16	0,690
539,37	0,551
539,57	0,437
539,78	0,445
539,98	0,679
540,19	0,462
540,39	0,525
540,60	0,484
540,80	0,673
541,01	0,553
541,21	0,647
541,42	0,631
541,62	0,605
541,83	0,526
542,03	0,876
542,24	0,374
542,44	0,590
542,65	0,366
542,85	0,778
543,06	0,573
543,26	0,448
543,47	0,480
543,67	0,671
543,88	0,727
544,08	0,617
544,29	0,526
544,49	0,626
544,70	0,726
544,90	0,629
545,11	0,410
545,31	0,852
545,52	0,493
545,72	0,766
545,93	0,587
546,13	0,614
546,34	0,412
546,54	0,639
546,75	0,697
546,95	0,570
547,15	0,381
547,36	0,571
547,56	0,778
547,77	0,538
547,97	0,675
548,18	0,626
548,38	0,462
548,59	0,606
548,79	0,383
549,00	0,414
549,20	0,685
549,41	0,427
549,61	0,597
549,81	0,474
550,02	0,756
550,22	0,501
550,43	0,555
550,63	0,627
550,84	0,590
551,04	0,629
551,25	0,544
551,45	0,541
551,65	0,695
551,86	0,681
552,06	0,607
552,27	0,454
552,47	0,627
552,68	0,772
552,88	0,470
553,08	0,564
553,29	0,549
553,49	0,596
553,70	0,614
553,90	0,359
554,11	0,512
554,31	0,599
554,51	0,686
554,72	0,565
554,92	0,741
555,13	0,801
555,33	0,728
555,53	0,877
555,74	0,655
555,94	0,720
556,15	0,711
556,35	0,503
556,56	0,738
556,76	0,652
556,96	0,506
557,17	0,725
557,37	0,624
557,58	0,823
557,78	0,490
557,98	0,590
558,19	0,588
558,39	0,838
558,59	0,692
558,80	0,698
559,00	0,585
559,21	0,706
559,41	0,650
559,61	0,680
559,82	0,926
560,02	0,814
560,23	1,167
560,43	1,072
560,63	1,193
560,84	1,225
561,04	1,289
561,24	1,434
561,45	1,710
561,65	1,894
561,85	2,383
562,06	2,311
562,26	2,752
562,47	3,245
562,67	3,621
562,87	4,093
563,08	4,591
563,28	5,266
563,48	5,972
563,69	6,981
563,89	7,917
564,09	8,902
564,30	9,583
564,50	11,052
564,70	12,457
564,91	13,799
565,11	15,252
565,31	16,897
565,52	18,977
565,72	20,041
565,92	22,002
566,13	23,777
566,33	25,610
566,53	27,459
566,74	29,487
566,94	31,008
567,14	33,304
567,35	34,134
567,55	35,721
567,75	37,421
567,96	39,218
568,16	39,860
568,36	40,891
568,57	41,376
568,77	41,905
568,97	42,561
569,18	43,180
569,38	44,421
569,58	43,653
569,79	43,932
569,99	44,344
570,19	44,351
570,39	45,165
570,60	44,351
570,80	45,390
571,00	45,424
571,21	45,240
571,41	44,870
571,61	45,512
571,82	45,795
572,02	45,700
572,22	46,078
572,42	46,073
572,63	46,050
572,83	46,592
573,03	46,736
573,24	46,964
573,44	47,466
573,64	47,145
573,84	46,966
574,05	48,048
574,25	48,473
574,45	48,556
574,66	49,129
574,86	50,625
575,06	51,308
575,26	52,271
575,47	53,585
575,67	55,883
575,87	58,329
576,07	60,220
576,28	62,760
576,48	64,433
576,68	67,466
576,88	70,345
577,09	73,443
577,29	75,692
577,49	79,737
577,69	81,528
577,90	83,577
578,10	84,901
578,30	86,419
578,50	87,519
578,71	88,108
578,91	89,171
579,11	89,605
579,31	89,738
579,52	89,548
579,72	88,129
579,92	88,266
580,12	88,267
580,33	87,973
580,53	86,562
580,73	86,783
580,93	85,906
581,13	86,361
581,34	86,828
581,54	85,585
581,74	86,545
581,94	87,253
582,15	87,209
582,35	87,201
582,55	88,064
582,75	88,123
582,95	87,311
583,16	88,644
583,36	89,513
583,56	90,245
583,76	89,671
583,96	90,200
584,17	90,869
584,37	91,071
584,57	89,903
584,77	90,534
584,97	90,291
585,18	90,593
585,38	90,197
585,58	89,557
585,78	89,002
585,98	89,028
586,19	88,513
586,39	87,421
586,59	87,876
586,79	87,520
586,99	88,027
587,20	87,457
587,40	87,890
587,60	87,884
587,80	89,009
588,00	87,613
588,20	88,085
588,41	89,160
588,61	89,415
588,81	88,872
589,01	89,887
589,21	89,369
589,41	89,107
589,62	90,340
589,82	89,798
590,02	88,736
590,22	90,024
590,42	89,596
590,62	90,338
590,83	88,955
591,03	88,741
591,23	88,745
591,43	87,812
591,63	87,497
591,83	87,956
592,03	86,084
592,24	86,097
592,44	86,160
592,64	84,929
592,84	85,235
593,04	83,983
593,24	82,615
593,44	82,560
593,65	81,462
593,85	80,529
594,05	79,015
594,25	77,838
594,45	76,721
594,65	74,963
594,85	73,459
595,06	72,077
595,26	69,380
595,46	68,177
595,66	66,292
595,86	64,039
596,06	62,684
596,26	61,200
596,46	59,316
596,66	57,747
596,87	56,712
597,07	54,537
597,27	54,149
597,47	53,851
597,67	52,444
597,87	51,114
598,07	50,157
598,27	49,884
598,47	49,186
598,67	49,158
598,88	49,047
599,08	48,398
599,28	48,403
599,48	48,203
599,68	47,847
599,88	47,748
600,08	46,752
600,28	46,942
600,48	47,112
600,68	46,493
600,88	46,203
601,09	46,005
601,29	44,546
601,49	44,758
601,69	44,118
601,89	43,275
602,09	42,909
602,29	41,910
602,49	41,370
602,69	41,221
602,89	39,794
603,09	39,747
603,29	39,364
603,49	38,131
603,69	37,896
603,90	36,786
604,10	37,258
604,30	36,650
604,50	36,782
604,70	36,494
604,90	36,231
605,10	36,050
605,30	36,249
605,50	36,028
605,70	37,020
605,90	36,756
606,10	36,320
606,30	37,233
606,50	38,076
606,70	38,341
606,90	37,570
607,10	38,526
607,30	39,357
607,50	39,254
607,70	39,950
607,90	39,810
608,10	40,236
608,30	40,672
608,50	41,164
608,70	41,048
608,90	41,482
609,11	41,699
609,31	41,011
609,51	40,718
609,71	41,255
609,91	40,423
610,11	39,966
610,31	39,735
610,51	39,437
610,71	38,764
610,91	38,665
611,11	37,980
611,31	37,944
611,51	36,932
611,71	37,227
611,91	35,720
612,11	36,405
612,31	35,526
612,51	34,370
612,71	33,949
612,91	33,157
613,11	32,762
613,31	32,522
613,51	31,786
613,71	31,447
613,91	30,868
614,11	30,710
614,31	29,644
614,50	29,752
614,70	29,578
614,90	28,732
615,10	28,294
615,30	28,117
615,50	27,640
615,70	27,670
615,90	27,647
616,10	26,781
616,30	26,572
616,50	26,721
616,70	26,160
616,90	26,224
617,10	25,443
617,30	25,195
617,50	25,130
617,70	24,826
617,90	23,988
618,10	22,715
618,30	22,076
618,50	21,402
618,70	20,595
618,90	19,356
619,10	17,840
619,30	17,735
619,49	16,279
619,69	15,184
619,89	13,401
620,09	12,718
620,29	11,815
620,49	10,615
620,69	9,306
620,89	8,117
621,09	7,252
621,29	6,363
621,49	5,620
621,69	4,753
621,89	4,305
622,09	3,492
622,29	3,069
622,48	2,549
622,68	2,166
622,88	1,779
623,08	1,804
623,28	1,343
623,48	1,157
623,68	0,941
623,88	1,073
624,08	0,959
624,28	0,564
624,48	0,773
624,67	0,808
624,87	0,708
625,07	0,638
625,27	0,469
625,47	0,650
625,67	0,513
625,87	0,535
626,07	0,516
626,27	0,374
626,47	0,345
626,66	0,357
626,86	0,412
627,06	0,321
627,26	0,633
627,46	0,409
627,66	0,404
627,86	0,531
628,06	0,360
628,25	0,314
628,45	0,485
628,65	0,298
628,85	0,501
629,05	0,627
629,25	0,531
629,45	0,392
629,65	0,494
629,84	0,503
630,04	0,455
630,24	0,480
630,44	0,319
630,64	0,556
630,84	0,545
631,04	0,518
631,23	0,279
631,43	0,529
631,63	0,507
631,83	0,458
632,03	0,501
632,23	0,418
632,42	0,486
632,62	0,524
632,82	0,379
633,02	0,417
633,22	0,615
633,42	0,581
633,62	0,463
633,81	0,596
634,01	0,265
634,21	0,496
634,41	0,663
634,61	0,521
634,80	0,523
635,00	0,478
635,20	0,367
635,40	0,606
635,60	0,465
635,80	0,386
635,99	0,495
636,19	0,435
636,39	0,764
636,59	0,703
636,79	0,744
636,98	0,739
637,18	0,551
637,38	0,945
637,58	0,576
637,78	0,783
637,97	0,555
638,17	0,878
638,37	0,460
638,57	0,718
638,77	0,786
638,96	0,563
639,16	0,732
639,36	0,564
639,56	0,595
639,76	0,729
639,95	0,702
640,15	0,450
640,35	0,813
640,55	0,337
640,75	0,901
640,94	0,508
641,14	0,521
641,34	0,810
641,54	0,709
641,73	0,648
641,93	0,627
642,13	0,506
642,33	0,935
642,53	1,027
642,72	0,844
642,92	0,706
643,12	0,314
643,32	1,136
643,51	0,615
643,71	0,449
643,91	0,589
644,11	1,080
644,30	0,586
644,50	0,634
644,70	0,548
644,90	0,728
645,09	0,860
645,29	0,388
645,49	0,789
645,69	1,177
645,88	0,777
646,08	0,507
646,28	0,901
646,48	1,017
646,67	0,741
646,87	0,820
647,07	0,672
647,26	0,696
647,46	0,862
647,66	0,883
647,86	0,812
648,05	0,769
648,25	0,873
648,45	0,794
648,65	1,069
648,84	0,698
649,04	0,926
649,24	1,044
649,43	0,889
649,63	1,331
649,83	0,969
650,03	0,784
650,22	0,953
650,42	0,940
650,62	0,656
650,81	0,638
651,01	0,825
651,21	0,838
651,40	0,485
651,60	0,887
651,80	0,550
652,00	0,986
652,19	0,556
652,39	1,031
652,59	0,681
652,78	1,041
652,98	0,573
653,18	0,530
653,37	0,838
653,57	1,172
653,77	0,786
653,96	0,555
654,16	1,237
654,36	0,836
654,55	1,404
654,75	0,953
654,95	1,182
655,14	0,737
655,34	0,743
655,54	0,808
655,73	0,582
655,93	1,193
656,13	0,411
656,32	0,741
656,52	0,943
656,72	0,925
656,91	0,898
657,11	0,816
657,31	0,867
657,50	0,905
657,70	0,772
657,90	0,577
658,09	0,619
658,29	1,002
658,49	0,637
658,68	1,216
658,88	1,226
659,07	0,500
659,27	0,926
659,47	1,199
659,66	0,749
659,86	1,011
660,06	0,890
660,25	0,944
660,45	1,024
660,64	1,073
660,84	0,612
661,04	0,892
661,23	1,042
661,43	0,984
661,63	0,976
661,82	0,441
662,02	0,865
662,21	0,771
662,41	0,746
662,61	0,901
662,80	0,335
663,00	0,708
663,19	0,895
663,39	1,256
663,59	1,228
663,78	0,788
663,98	0,977
664,17	0,903
664,37	0,787
664,57	0,999
664,76	1,217
664,96	0,788
665,15	1,065
665,35	1,051
665,55	0,616
665,74	1,060
665,94	0,595
666,13	1,157
666,33	0,422
666,53	1,115
666,72	0,750
666,92	1,289
667,11	0,674
667,31	0,558
667,50	0,858
667,70	0,996
667,90	0,714
668,09	0,704
668,29	0,572
668,48	0,676
668,68	0,677
668,87	0,644
669,07	1,098
669,26	0,904
669,46	0,764
669,66	1,176
669,85	0,987
670,05	0,343
670,24	0,830
670,44	0,605
670,63	0,808
670,83	0,908
671,02	0,964
671,22	1,396
671,42	0,579
671,61	0,497
671,81	0,701
672,00	0,899
672,20	0,775
672,39	0,349
672,59	0,613
672,78	0,736
672,98	0,830
673,17	0,593
673,37	0,927
673,56	0,589
673,76	0,919
673,95	0,641
674,15	0,339
674,34	0,744
674,54	0,655
674,73	0,654
674,93	0,900
675,13	0,488
675,32	0,714
675,52	0,804
675,71	0,461
675,91	0,753
676,10	0,487
676,30	0,587
676,49	0,570
676,69	0,654
676,88	0,913
677,08	0,609
677,27	0,589
677,47	0,421
677,66	0,857
677,86	0,692
678,05	0,966
678,24	0,398
678,44	1,038
678,63	0,638
678,83	0,750
679,02	0,420
679,22	0,554
679,41	0,687
679,61	0,652
679,80	0,549
680,00	0,673
680,19	0,404
680,39	0,508
680,58	0,424
680,78	0,446
680,97	0,217
681,17	0,459
681,36	0,567
681,56	0,637
681,75	0,624
681,94	0,543
682,14	0,667
682,33	0,641
682,53	0,836
682,72	0,572
682,92	0,734
683,11	0,720
683,31	0,146
683,50	0,534
683,69	0,420
683,89	0,227
684,08	0,459
684,28	0,501
684,47	0,738
684,67	0,431
684,86	0,216
685,06	0,223
685,25	0,409
685,44	0,445
685,64	0,418
685,83	0,423
686,03	0,184
686,22	0,245
686,42	0,410
686,61	0,641
686,80	0,484
687,00	0,434
687,19	0,709
687,39	0,378
687,58	0,191
687,77	0,441
687,97	0,373
688,16	0,337
688,36	0,379
688,55	0,402
688,74	0,457
688,94	0,334
689,13	0,303
689,33	0,405
689,52	0,400
689,71	0,472
689,91	0,311
690,10	0,441
690,30	0,348
690,49	0,362
690,68	0,396
690,88	0,527
691,07	0,314
691,27	0,435
691,46	0,324
691,65	0,407
691,85	0,390
692,04	0,266
692,23	0,220
692,43	0,192
692,62	0,505
692,82	0,579
693,01	0,413
693,20	0,415
693,40	0,170
693,59	0,335
693,78	0,455
693,98	0,380
694,17	0,351
694,36	0,566
694,56	0,483
694,75	0,274
694,94	0,380
695,14	0,523
695,33	0,417
695,53	0,367
695,72	0,355
695,91	0,252
696,11	0,372
696,30	0,399
696,49	0,290
696,69	0,554
696,88	0,217
697,07	0,338
697,27	0,366
697,46	0,269
697,65	0,570
697,85	0,452
698,04	0,377
698,23	0,536
698,43	0,611
698,62	0,393
698,81	0,618
699,01	0,878
699,20	0,595
699,39	0,739
699,58	0,810
699,78	0,822
699,97	0,355
700,16	0,628
700,36	0,484
700,55	1,180
700,74	0,599
700,94	1,242
701,13	0,733
701,32	1,328
701,52	1,066
701,71	0,809
701,90	1,362
702,09	1,185
702,29	1,247
702,48	1,138
702,67	0,854
702,87	1,131
703,06	1,493
703,25	1,028
703,44	1,457
703,64	1,980
703,83	1,831
704,02	1,733
704,22	1,185
704,41	1,451
704,60	2,356
704,79	0,948
704,99	1,587
705,18	1,783
705,37	1,379
705,56	2,595
705,76	2,528
705,95	1,915
706,14	1,520
706,33	3,351
706,53	2,747
706,72	2,410
706,91	2,495
707,11	2,467
707,30	3,365
707,49	2,935
707,68	2,240
707,88	2,788
708,07	1,676
708,26	2,314
708,45	2,528
708,64	2,915
708,84	3,033
709,03	3,544
709,22	1,835
709,41	4,083
709,61	3,332
709,80	3,753
709,99	2,976
710,18	4,046
710,38	2,954
710,57	2,574
710,76	2,391
710,95	2,295
711,14	4,738
711,34	2,652
711,53	3,953
711,72	4,234
711,91	1,826
712,11	5,800
712,30	6,891
712,49	5,804
712,68	3,758
712,87	5,972
713,07	6,264
713,26	3,348
713,45	5,793
713,64	4,722
713,83	5,230
714,03	6,786
714,22	4,957
714,41	6,051
714,60	5,745
714,79	4,523
714,99	4,134
715,18	2,925
715,37	7,646
715,56	4,797
715,75	4,393
715,94	6,159
716,14	4,892
716,33	3,987
716,52	5,660
716,71	6,536
716,90	6,912
717,10	8,357
717,29	4,629
717,48	6,792
717,67	5,491
717,86	5,439
718,05	1,978
718,24	6,711
718,44	7,124
718,63	8,328
718,82	7,179
719,01	8,921
719,20	4,399
719,39	6,997
719,59	2,836
719,78	5,074
719,97	7,950
720,16	4,798
720,35	7,093
720,54	7,546
720,73	5,718
720,93	7,168
721,12	4,649
721,31	7,543
721,50	7,122
721,69	7,893
721,88	7,692
722,07	7,951
722,27	6,423
722,46	7,910
722,65	4,170
722,84	10,911
723,03	6,079
723,22	10,619
723,41	6,403
723,60	9,440
723,79	8,682
723,99	7,646
724,18	10,564
724,37	7,977
724,56	10,437
724,75	11,497
724,94	13,165
725,13	13,841
725,32	11,882
725,51	10,633
725,71	9,470
725,90	10,423
726,09	9,164
726,28	10,904
726,47	7,813
726,66	12,558
726,85	8,094
727,04	9,346
727,23	7,058
727,42	13,659
727,61	3,492
727,81	14,181
728,00	12,183
728,19	9,268
728,38	10,259
728,57	10,692
728,76	13,466
728,95	17,299
729,14	7,135
729,33	16,246
729,52	14,511
729,71	12,974
729,90	10,333
730,09	10,981
730,28	11,663
730,48	13,573
730,67	11,125
730,86	5,224
731,05	9,579
731,24	13,219
731,43	10,189
731,62	15,038
731,81	13,088
732,00	13,723
732,19	10,983
732,38	6,806
732,57	5,858
732,76	13,690
732,95	12,133
733,14	9,493
733,33	9,890
733,52	11,743
733,71	12,005
733,90	17,481
734,09	13,858
734,28	19,034
734,47	8,421
734,66	14,518
734,85	17,305
735,04	18,256
735,23	16,402
735,42	14,986
735,61	19,200
735,81	16,000
736,00	18,524
736,19	10,503
736,38	12,296
736,57	22,006
736,76	6,357
736,95	14,697
737,14	16,109
737,33	15,891
737,52	15,234
737,71	13,782
737,90	16,490
738,09	18,865
738,28	14,833
738,47	20,588
738,66	15,000
738,85	15,979
739,04	22,071
739,22	18,074
739,41	19,032
739,60	15,217
739,79	15,925
739,98	14,338
740,17	20,238
740,36	24,464
740,55	27,513
740,74	14,957
740,93	17,886
741,12	15,625
741,31	14,154
741,50	16,196
741,69	18,704
741,88	16,000
742,07	16,787
742,26	14,419
742,45	10,870
742,64	27,698
742,83	14,681
743,02	25,225
743,21	28,571
743,40	14,587
743,59	19,262
743,78	18,122
743,97	18,609
744,16	15,743
744,34	21,260
744,53	15,779
744,72	29,314
744,91	9,474
745,10	27,273
745,29	17,494
745,48	17,808
745,67	19,756
745,86	22,066
746,05	19,406
746,24	27,887
746,43	27,896
746,62	9,217
746,81	23,973
747,00	26,722
747,18	30,110
747,37	28,785
747,56	18,202
747,75	29,103
747,94	35,011
748,13	22,831
748,32	24,359
748,51	26,862
748,70	30,216
748,89	31,643
749,08	11,714
749,26	18,377
749,45	31,059
749,64	21,588
749,83	17,812
750,02	23,481
750,21	23,754
750,40	22,135
750,59	26,887
750,78	28,402
750,96	17,877
751,15	16,667
751,34	32,461
751,53	33,990
751,72	35,040
751,91	21,096
752,10	22,531
752,29	35,311
752,47	21,629
752,66	22,535
752,85	31,269
753,04	25,552
753,23	26,490
753,42	32,219
753,61	32,680
753,80	38,211
753,98	27,368
754,17	33,436
754,36	27,119
754,55	20,690
754,74	32,081
754,93	28,242
755,12	35,467
755,30	19,668
755,49	37,920
755,68	35,159
755,87	17,718
756,06	36,313
756,25	31,111
756,43	27,241
756,62	37,982
756,81	23,762
757,00	27,536
757,19	42,466
757,38	35,647
757,56	31,290
757,75	28,105
757,94	42,271
758,13	18,831
758,32	36,742
758,51	23,162
758,69	36,000
758,88	38,438
759,07	29,032
759,26	36,279
759,45	30,131
759,63	43,494
759,82	35,354
760,01	25,084
760,20	31,518
760,39	39,552
760,57	50,826
760,76	22,523
760,95	44,444
761,14	31,837
761,33	36,250
761,51	46,595
761,70	41,724
761,89	39,754
762,08	39,070
762,27	50,183
762,45	45,914
762,64	34,066
762,83	51,770
763,02	37,209
763,21	35,776
763,39	43,265
763,58	46,038
763,77	39,382
763,96	60,241
764,14	47,917
764,33	43,223
764,52	62,232
764,71	46,188
764,89	55,882
765,08	41,810
765,27	43,123
765,46	55,978
765,65	35,808
765,83	42,424
766,02	38,723
766,21	54,144
766,40	51,905
766,58	53,659
766,77	66,667
766,96	62,273
767,15	71,014
767,33	9,357
767,52	75,000
767,71	45,652
767,90	23,596
768,08	39,300
768,27	51,500
768,46	42,578
768,64	62,694
768,83	47,396
769,02	69,000
769,21	38,865
769,39	52,326
769,58	46,821
769,77	65,517
769,96	55,497
770,14	42,177
770,33	55,140
770,52	61,376
770,70	49,333
770,89	76,510
771,08	46,610
771,27	57,732
771,45	60,088
771,64	76,042
771,83	74,299
772,01	35,542
772,20	80,905
772,39	55,333
772,57	59,690
772,76	62,963
772,95	58,865
773,14	52,151
773,32	64,516
773,51	46,766
773,70	70,000
773,88	80,874
774,07	56,545
774,26	46,099
774,44	37,805
774,63	86,294
774,82	45,122
775,00	50,667
775,19	48,000
775,38	76,879
775,56	61,979
775,75	66,265
775,94	84,810
776,12	47,514
776,31	60,000
776,50	53,409
776,68	54,737
776,87	59,091
777,06	79,310
777,24	71,111
777,43	73,718
777,62	103,676
777,80	73,649
777,99	72,571
778,18	66,337
778,36	68,800
778,55	76,033
778,74	71,528
778,92	73,373
779,11	116,667
779,29	62,893
779,48	61,224
779,67	68,992
779,85	95,935
780,04	85,946
780,23	52,518
780,41	60,156
780,60	35,789
780,79	80,226
780,97	61,842
781,16	53,333
781,34	93,814
781,53	61,538
781,72	64,234
781,90	75,000
782,09	75,484
782,28	92,701
782,46	85,926
782,65	79,286
782,83	129,213
783,02	61,250
783,21	107,333
783,39	100,000
783,58	105,325
783,76	81,564
783,95	70,909
784,14	82,119
784,32	85,906
784,51	84,483
784,69	100,000
784,88	87,387
785,06	65,546
785,25	77,070
785,44	84,892
785,62	96,429
785,81	190,141
785,99	72,662
786,18	83,108
786,37	90,370
786,55	87,156
786,74	75,658
786,92	117,188
787,11	93,333
787,29	75,373
787,48	68,000
787,67	124,096
787,85	73,276
788,04	68,812
788,22	61,475
788,41	105,882
788,59	90,826
788,78	83,636
788,96	88,679
789,15	127,368
789,34	103,636
789,52	81,416
789,71	79,070
789,89	195,745
790,08	100,000
790,26	124,286
790,45	64,394
790,63	73,148
790,82	103,636
791,00	90,278
791,19	109,677
791,38	95,139
791,56	108,772
791,75	111,927
791,93	85,057
792,12	78,698
792,30	93,600
792,49	59,664
792,67	91,045
792,86	120,930
793,04	114,019
793,23	77,500
793,41	98,734
793,60	113,131
793,78	109,649
793,97	143,590
794,15	77,273
794,34	117,582
794,52	146,753
794,71	155,556
794,89	90,000
795,08	113,592
795,26	91,667
795,45	107,463
795,63	119,697
795,82	120,561
796,00	82,569
796,19	87,500
796,37	81,752
796,56	115,054
796,74	112,389
796,93	91,011
797,11	131,646
797,30	109,167
797,48	95,862
797,67	130,000
797,85	124,490
798,04	159,375
798,22	92,857
798,41	135,294
798,59	160,000
798,77	147,692
798,96	75,269
799,14	117,241
799,33	111,450
799,51	62,308
799,70	110,738
799,88	92,424
800,07	59,868
800,25	79,310
800,44	85,859
800,62	115,294
800,80	176,812
800,99	120,635
801,17	84,483
801,36	95,172
801,54	100,000
801,73	85,859
801,91	81,967
802,10	86,905
802,28	125,234
802,46	98,765
802,65	128,736
802,83	138,202
803,02	117,895
803,20	124,219
803,39	39,655
803,57	108,434
803,75	58,108
803,94	91,597
804,12	72,500
804,31	82,301
804,49	86,538
804,67	94,400
804,86	58,929
805,04	93,919
805,23	90,345
805,41	134,426
805,59	91,803
805,78	69,697
805,96	111,538
806,15	138,281
806,33	104,202
806,51	100,000
806,70	165,000
806,88	82,114
807,07	84,127
807,25	87,421
807,43	97,351
807,62	84,553
807,80	107,527
807,99	96,825
808,17	106,383
808,35	89,474
808,54	110,753
808,72	89,600
808,90	146,053
809,09	120,833
809,27	115,315
809,46	89,286
809,64	75,490
809,82	85,057
810,01	119,697
810,19	65,000
810,37	90,000
810,56	119,512
810,74	70,861
810,92	123,485
811,11	260,784
811,29	114,184
811,48	140,404
811,66	82,171
811,84	98,165
812,03	43,636
812,21	98,718
812,39	113,559
812,58	86,275
812,76	93,458
812,94	91,333
813,13	85,714
813,31	137,500
813,49	127,174
813,68	80,000
813,86	138,776
814,04	124,272
814,23	133,333
814,41	71,324
814,59	73,446
814,78	99,265
814,96	86,486
815,14	203,333
815,33	93,478
815,51	56,296
815,69	86,420
815,87	89,565
816,06	103,750
816,24	92,053
816,42	58,333
816,61	94,915
816,79	126,506
816,97	94,595
817,16	57,419
817,34	108,966
817,52	95,862
817,70	160,317
817,89	79,339
818,07	116,379
818,25	85,586
818,44	72,674
818,62	90,517
818,80	85,315
818,98	88,571
819,17	83,077
819,35	73,529
819,53	97,030
819,72	58,140
819,90	102,395
820,08	66,883
820,26	127,193
820,45	104,217
820,63	73,437
820,81	67,785
820,99	96,992
821,18	62,222
821,36	90,000
821,54	80,233
821,73	80,541
821,91	72,872
822,09	80,588
822,27	56,853
822,46	82,500
822,64	82,119
822,82	68,293
823,00	73,874
823,19	76,515
823,37	90,000
823,55	65,882
823,73	63,333
823,91	67,956
824,10	102,235
824,28	84,444
824,46	56,977
824,64	57,843
824,83	86,179
825,01	92,754
825,19	67,429
825,37	71,354
825,56	75,000
825,74	64,762
825,92	60,674
826,10	68,323
826,28	71,812
826,47	60,163
826,65	70,270
826,83	62,366
827,01	52,273
827,19	72,785
827,38	69,948
827,56	74,519
827,74	65,854
827,92	79,512
828,10	79,891
828,29	60,476
828,47	59,211
828,65	64,324
828,83	61,616
829,01	34,667
829,20	62,658
829,38	49,793
829,56	65,182
829,74	109,091
829,92	70,619
830,10	59,910
830,29	76,216
830,47	81,250
830,65	51,339
830,83	58,286
831,01	34,583
831,20	54,455
831,38	51,220
831,56	68,016
831,74	77,143
831,92	53,977
832,10	69,545
832,29	49,763
832,47	44,690
832,65	63,404
832,83	54,419
833,01	26,877
833,19	42,534
833,37	57,037
833,56	58,216
833,74	60,729
833,92	47,345
834,10	50,761
834,28	35,769
834,46	61,938
834,64	51,953
834,83	48,123
835,01	61,089
835,19	56,398
835,37	54,582
835,55	41,516
835,73	73,529
835,91	42,471
836,09	52,282
836,28	56,107
836,46	53,684
836,64	51,230
836,82	33,955
837,00	48,639
837,18	54,545
837,36	40,642
837,54	33,333
837,72	29,482
837,91	28,514
838,09	42,400
838,27	47,985
838,45	53,398
838,63	43,051
838,81	53,947
838,99	50,871
839,17	46,926
839,35	38,148
839,53	38,926
839,72	27,966
839,90	36,170
840,08	42,628
840,26	51,104
840,44	32,716
840,62	34,680
840,80	39,815
840,98	46,526
841,16	34,875
841,34	36,232
841,52	41,214
841,70	31,987
841,89	46,452
842,07	33,514
842,25	37,987
842,43	41,613
842,61	36,997
842,79	46,951
842,97	30,488
843,15	38,968
843,33	37,767
843,51	33,652
843,69	31,111
843,87	33,154
844,05	33,154
844,23	28,649
844,41	30,151
844,59	28,409
844,77	27,666
844,95	33,252
845,13	37,432
845,31	27,654
845,50	37,371
845,68	27,202
845,86	39,623
846,04	27,407
846,22	29,117
846,40	20,735
846,58	26,542
846,76	29,676
846,94	21,875
847,12	27,962
847,30	33,641
847,48	26,139
847,66	36,341
847,84	17,766
848,02	29,314
848,20	37,969
848,38	24,790
848,56	32,473
848,74	26,033
848,92	23,382
849,10	41,741
849,28	30,719
849,46	23,598
849,64	26,429
849,82	17,548
850,00	23,203
850,18	23,788
850,36	26,535
850,54	29,821
850,72	30,977
850,90	17,275
851,08	16,872
851,26	29,352
851,44	27,108
851,62	23,620
851,80	22,664
851,98	29,630
852,16	32,510
852,34	30,361
852,52	23,062
852,70	16,064
852,87	20,381
853,05	28,056
853,23	24,902
853,41	14,724
853,59	16,981
853,77	24,206
853,95	20,339
854,13	20,388
854,31	28,272
854,49	16,834
854,67	30,075
854,85	23,304
855,03	26,628
855,21	24,196
855,39	16,946
855,57	28,804
855,75	22,091
855,93	22,615
856,11	24,880
856,28	22,396
856,46	16,176
856,64	30,744
856,82	18,499
857,00	22,318
857,18	26,448
857,36	20,840
857,54	18,412
857,72	21,369
857,90	14,662
858,08	18,210
858,26	8,563
858,44	16,304
858,61	19,931
858,79	29,147
858,97	23,926
859,15	17,047
859,33	13,957
859,51	15,815
859,69	12,351
859,87	20,059
860,05	18,271
860,23	12,121
860,40	18,894
860,58	20,259
860,76	17,655
860,94	13,282
861,12	15,722
861,30	27,086
861,48	17,989
861,66	17,682
861,84	24,162
862,01	17,112
862,19	20,190
862,37	13,557
862,55	13,092
862,73	21,196
862,91	15,055
863,09	20,676
863,27	11,142
863,44	14,172
863,62	13,604
863,80	10,260
863,98	12,899
864,16	10,727
864,34	16,883
864,52	17,084
864,69	18,554
864,87	15,137
865,05	16,602
865,23	13,647
865,41	16,925
865,59	16,069
865,76	14,083
865,94	15,820
866,12	10,419
866,30	14,356
866,48	11,222
866,66	18,113
866,83	10,175
867,01	16,766
867,19	14,446
867,37	12,125
867,55	16,465
867,73	13,212
867,90	13,647
868,08	13,617
868,26	15,735
868,44	11,373
868,62	16,405
868,79	11,039
868,97	12,793
869,15	10,297
869,33	8,269
869,51	12,102
869,69	12,826
869,86	12,513
870,04	16,296
870,22	6,868
870,40	10,808
870,57	13,900
870,75	11,207
870,93	9,677
871,11	8,749
871,29	8,537
871,46	7,956
871,64	15,628
871,82	14,341
872,00	15,134
872,18	12,992
872,35	12,567
872,53	13,327
872,71	7,603
872,89	12,697
873,06	11,993
873,24	9,743
873,42	7,258
873,60	9,826
873,77	11,121
873,95	8,836
874,13	11,896
874,31	10,963
874,49	13,078
874,66	9,107
874,84	6,483
875,02	12,368
875,20	11,074
875,37	7,922
875,55	6,605
875,73	7,593
875,91	10,938
876,08	9,076
876,26	8,326
876,44	8,227
876,61	8,779
876,79	11,916
876,97	8,091
877,15	11,145
877,32	6,614
877,50	9,626
877,68	10,319
877,86	11,760
878,03	8,289
878,21	8,628
878,39	8,444
878,56	11,136
878,74	7,231
878,92	8,383
879,10	6,953
879,27	8,946
879,45	9,377
879,63	8,902
879,80	7,886
879,98	8,897
880,16	5,642
880,34	6,144
880,51	9,369
880,69	7,687
880,87	6,735
881,04	5,803
881,22	11,660
881,40	5,370
881,57	6,590
881,75	8,482
881,93	5,383
882,10	8,008
882,28	7,156
882,46	8,446
882,63	8,794
882,81	7,356
882,99	6,480
883,16	7,601
883,34	7,320
883,52	5,122
883,69	8,806
883,87	6,709
884,05	2,482
884,22	5,221
884,40	5,725
884,58	6,369
884,75	3,759
884,93	8,743
885,11	7,073
885,28	6,021
885,46	4,518
885,64	4,084
885,81	7,538
885,99	3,105
886,17	5,669
886,34	6,188
886,52	5,230
886,70	5,918
886,87	5,852
887,05	5,640
887,22	5,382
887,40	6,488
887,58	3,582
887,75	7,228
887,93	6,289
888,11	3,806
888,28	4,220
888,46	3,164
888,63	7,642
888,81	6,565
888,99	2,938
889,16	5,040
889,34	3,889
889,51	5,431
889,69	3,197
889,87	4,981
890,04	3,677
890,22	5,317
890,39	4,113
890,57	4,811
890,75	7,396
890,92	6,509
891,10	6,362
891,27	4,549
891,45	4,167
891,63	4,727
891,80	3,570
891,98	6,974
892,15	4,188
892,33	4,486
892,51	2,953
892,68	3,916
892,86	3,693
893,03	5,189
893,21	3,819
893,38	6,037
893,56	3,930
893,74	3,345
893,91	4,218
894,09	4,451
894,26	5,172
894,44	4,487
894,61	4,451
894,79	5,486
894,96	5,108
895,14	4,864
895,32	5,394
895,49	5,116
895,67	2,880
895,84	4,162
896,02	3,567
896,19	3,630
896,37	4,789
896,54	3,940
896,72	5,085
896,89	4,611
897,07	4,190
897,25	5,781
897,42	4,865
897,60	5,403
897,77	5,633
897,95	5,056
898,12	3,857
898,30	2,320
898,47	3,917
898,65	2,258
898,82	3,775
899,00	4,082
899,17	4,122
899,35	4,203
899,52	3,846
899,70	3,734
899,87	3,488
900,05	5,110
900,22	3,883
900,40	3,813
900,57	4,799
900,75	1,627
900,92	3,220
901,10	4,583
901,27	4,220
901,45	4,196
901,62	3,261
901,80	4,719
901,97	3,512
902,15	5,261
902,32	3,879
902,50	3,134
902,67	3,451
902,85	4,150
903,02	4,271
903,20	5,052
903,37	4,240
903,54	4,564
903,72	2,797
903,89	4,450
904,07	3,358
904,24	4,353
904,42	3,170
904,59	2,463
904,77	3,311
904,94	3,051
905,12	2,473
905,29	4,693
905,47	4,139
905,64	4,120
905,81	3,513
905,99	3,391
906,16	4,352
906,34	4,540
906,51	3,437
906,69	2,887
906,86	3,686
907,03	3,880
907,21	2,199
907,38	2,764
907,56	3,435
907,73	3,188
907,91	3,933
908,08	3,357
908,25	2,316
908,43	3,104
908,60	4,474
908,78	4,226
908,95	3,356
909,13	3,401
909,30	0,608
909,47	4,759
909,65	4,805
909,82	4,440
910,00	1,896
910,17	2,657
910,34	3,665
910,52	2,200
910,69	4,446
910,87	3,976
911,04	2,513
911,21	3,604
911,39	3,819
911,56	4,594
911,73	3,218
911,91	3,719
912,08	2,869
912,26	2,903
912,43	2,189
912,60	3,477
912,78	3,580
912,95	3,537
913,13	3,158
913,30	2,368
913,47	4,037
913,65	1,839
913,82	3,240
913,99	2,574
914,17	3,114
914,34	3,503
914,51	4,062
914,69	3,593
914,86	3,777
915,03	3,914
915,21	2,937
915,38	2,800
915,56	2,799
915,73	3,205
915,90	4,001
916,08	2,778
916,25	2,529
916,42	2,996
916,60	2,380
916,77	2,879
916,94	2,734
917,12	3,528
917,29	3,450
917,46	2,178
917,64	3,240
917,81	2,905
917,98	2,641
918,16	3,200
918,33	2,941
918,50	3,130
918,67	2,192
918,85	2,984
919,02	3,276
919,19	3,816
919,37	2,785
919,54	2,492
919,71	2,806
919,89	2,335
920,06	2,137
920,23	2,291
920,41	3,450
920,58	2,942
920,75	2,722
920,92	1,908
921,10	1,971
921,27	1,668
921,44	3,661
921,62	1,401
921,79	2,821
921,96	2,190
922,13	2,074
922,31	2,001
922,48	2,821
922,65	2,116
922,82	2,251
923,00	3,327
923,17	2,266
923,34	2,399
923,52	2,234
923,69	2,012
923,86	1,285
924,03	1,736
924,21	2,813
924,38	3,437
924,55	2,666
924,72	2,660
924,90	2,463
925,07	2,586
925,24	2,440
925,41	2,078
925,59	1,699
925,76	2,563
925,93	2,201
926,10	2,820
926,28	2,224
926,45	2,940
926,62	2,416
926,79	2,784
926,96	2,866
927,14	3,397
927,31	2,296
927,48	2,488
927,65	2,609
927,83	2,194
928,00	2,092
928,17	3,045
928,34	2,740
928,51	2,490
928,69	2,537
928,86	2,722
929,03	2,528
929,20	1,805
929,37	2,185
929,55	1,485
929,72	2,036
929,89	1,955
930,06	2,273
930,23	2,814
930,41	2,469
930,58	3,361
930,75	2,428
930,92	2,150
931,09	2,121
931,27	2,097
931,44	1,849
931,61	3,008
931,78	2,093
931,95	1,494
932,12	1,194
932,30	2,313
932,47	2,850
932,64	2,611
932,81	2,111
932,98	1,889
933,16	1,549
933,33	1,501
933,50	2,095
933,67	3,118
933,84	1,848
934,01	1,651
934,18	2,420
934,36	1,429
934,53	2,126
934,70	1,996
934,87	2,223
935,04	3,019
935,21	1,790
935,38	1,654
935,56	0,959
935,73	1,635
935,90	1,381
936,07	2,085
936,24	2,454
936,41	1,900
936,58	1,268
936,76	2,377
936,93	0,828
937,10	1,621
937,27	2,601
937,44	1,880
937,61	2,292
937,78	2,072
937,95	1,902
938,13	1,982
938,30	2,347
938,47	3,288
938,64	2,077
938,81	2,446
938,98	1,953
939,15	2,225
939,32	1,786
939,49	2,257
939,66	2,447
939,84	2,139
940,01	2,417
940,18	2,552
940,35	1,877
940,52	0,962
940,69	3,317
940,86	2,149
941,03	1,183
941,20	2,343
941,37	2,594
941,54	1,166
941,71	0,396
941,89	1,590
942,06	1,866
942,23	1,880
942,40	2,749
942,57	2,715
942,74	1,710
942,91	1,881
943,08	2,705
943,25	1,411
943,42	2,186
943,59	2,379
943,76	2,358
943,93	2,583
944,10	2,118
944,27	2,056
944,44	2,250
944,61	2,028
944,79	2,193
944,96	3,182
945,13	1,548
945,30	0,982
945,47	2,321
945,64	3,091
945,81	3,006
945,98	2,815
946,15	3,402
946,32	3,232
946,49	3,217
946,66	3,054
946,83	1,637
947,00	3,155
947,17	2,549
947,34	2,649
947,51	1,979
947,68	3,427
947,85	2,765
948,02	2,695
948,19	4,896
948,36	3,801
948,53	2,671
948,70	3,047
948,87	3,796
949,04	2,504
949,21	3,078
949,38	3,295
949,55	2,302
949,72	3,383
949,89	3,203
950,06	2,489
950,23	3,305
950,40	3,986
950,57	2,541
950,74	4,560
950,91	2,853
951,08	4,478
951,25	4,510
951,42	5,209
951,59	3,474
951,76	4,062
951,93	3,922
952,10	3,137
952,27	3,109
952,44	3,121
952,61	4,120
952,77	3,238
952,94	4,126
953,11	7,519
953,28	5,351
953,45	4,939
953,62	3,422
953,79	4,926
953,96	6,139
954,13	3,414
954,30	5,399
954,47	5,570
954,64	4,630
954,81	6,629
954,98	4,743
955,15	5,143
955,32	5,301
955,49	4,523
955,65	8,213
955,82	9,340
955,99	6,217
956,16	10,118
956,33	6,695
956,50	7,551
956,67	10,084
956,84	11,259
957,01	6,240
957,18	7,207
957,35	9,161
957,52	10,403
957,68	8,000
957,85	8,596
958,02	10,508
958,19	8,790
958,36	12,766
958,53	10,046
958,70	9,502
958,87	9,491
959,04	12,682
959,21	13,939
959,37	12,121
959,54	9,482
959,71	6,631
959,88	12,404
960,05	15,894
960,22	9,586
960,39	12,400
960,56	8,228
960,72	11,920
960,89	23,574
961,06	14,140
961,23	12,955
961,40	20,346
961,57	17,118
961,74	11,551
961,90	16,094
962,07	15,830
962,24	20,650
962,41	17,253
962,58	13,425
962,75	21,593
962,92	23,178
963,08	9,636
963,25	12,613
963,42	17,150
963,59	27,273
963,76	27,191
963,93	35,469
964,10	20,343
964,26	22,588
964,43	32,558
964,60	27,720
964,77	29,157
964,94	25,568
965,10	29,167
965,27	36,292
965,44	40,260
965,61	38,843
965,78	23,003
965,95	24,251
966,11	33,746
966,28	39,405
966,45	37,072
966,62	32,308
966,79	41,224
966,95	31,642
967,12	35,962
967,29	42,014
967,46	42,424
967,63	47,170
967,79	45,946
967,96	37,229
968,13	36,000
968,30	41,935
968,47	52,234
968,63	46,847
968,80	46,330
968,97	51,923
969,14	56,977
969,31	40,000
969,47	33,529
969,64	64,141
969,81	60,622
969,98	61,538
970,14	57,055
970,31	58,491
970,48	55,833
970,65	64,497
970,81	84,932
970,98	81,752
971,15	105,102
971,32	73,438
971,48	92,517
971,65	38,462
971,82	103,922
971,99	122,989
972,15	101,408
972,32	134,234
972,49	104,895
972,66	150,909
972,82	113,953
972,99	104,065
973,16	151,724
973,33	114,286
973,49	92,632
973,66	110,753
973,83	82,524
974,00	182,558
974,16	183,333
974,33	140,351
974,50	68,421
974,67	131,579
974,83	96,429
975,00	137,895
975,17	91,209
975,33	86,517
975,50	191,045
975,67	287,755
975,84	186,567
976,00	107,865
976,17	239,344
976,34	119,000
976,50	123,596
976,67	107,767
976,84	3466,667
977,00	218,367
977,17	235,556
977,34	206,593
977,50	135,821
977,67	203,571
977,84	240,323
978,01	217,021
978,17	511,111
978,34	150,000
978,51	297,059
978,67	182,895
978,84	115,625
979,01	335,135
979,17	212,821
979,34	117,123
979,51	226,531
979,67	185,185
979,84	308,163
980,01	253,333
980,17	267,606
980,34	348,148
980,51	186,957
980,67	164,706
980,84	516,667
981,01	655,000
981,17	468,000
981,34	1277,778
981,50	235,294
981,67	284,746
981,84	5600,000
982,00	436,667
982,17	288,095
982,34	181,111
982,50	680,000
982,67	176,042
982,84	2400,000
983,00	1216,667
983,17	183,582
983,33	243,103
983,50	1720,000
983,67	-365,517
983,83	218,182
984,00	-1442,857
984,17	705,556
984,33	-6600,000
984,50	414,286
984,66	304,348
984,83	177,922
985,00	-591,667
985,16	475,862
985,33	647,059
985,49	627,778
985,66	400,000
985,83	356,522
985,99	356,410
986,16	-3475,000
986,32	678,571
986,49	7000,000
986,66	460,606
986,82	633,333
986,99	352,830
987,15	-626,316
987,32	-357,143
987,49	238,000
987,65	7150,000
987,82	195,833
987,98	253,061
988,15	380,000
988,31	1130,000
988,48	-1216,667
988,65	380,952
988,81	372,222
988,98	417,073
989,14	369,048
989,31	523,810
989,47	320,588
989,64	-1146,154
989,80	962,500
989,97	383,784
990,14	-250,000
990,30	-604,545
990,47	261,224
990,63	363,889
990,80	288,000
990,96	-570,000
991,13	371,875
991,29	665,517
991,46	0,000
991,62	-761,538
991,79	1133,333
991,95	9800,000
992,12	-1520,000
992,29	-612,500
992,45	161,176
992,62	458,140
992,78	368,182
992,95	-533,333
993,11	589,286
993,28	1240,000
993,44	-850,000
993,61	-712,500
993,77	-3275,000
993,94	-5166,667
994,10	-152,000
994,27	957,895
994,43	281,395
994,60	0,000
994,76	2200,000
994,93	570,000
995,09	-811,765
995,26	1177,778
995,42	292,157
995,59	633,333
995,75	1007,692
995,92	3000,000
996,08	475,000
996,25	-1525,000
996,41	-5350,000
996,58	700,000
996,74	290,909
996,91	462,069
997,07	0,000
997,23	15300,000
997,40	-17900,000
997,56	-984,615
997,73	-1750,000
997,89	410,526
998,06	1138,462
998,22	-788,889
998,39	600,000
998,55	1144,444
998,72	-1637,500
998,88	-220,000
999,05	-134,615
999,21	326,190
999,37	-653,333
999,54	-975,000
999,70	-483,333
999,87	1025,000
1000,03	423,077
1000,20	260,417
1000,36	0,000
1000,52	479,167
1000,69	-752,381
1000,85	-870,000
1001,02	-387,500
1001,18	1850,000
1001,35	830,769
1001,51	923,529
1001,67	-1015,385
1001,84	-2600,000
1002,00	329,730
1002,17	1290,909
1002,33	-3800,000
1002,50	690,476
1002,66	-884,615
1002,82	320,000
1002,99	1200,000
1003,15	-1300,000
1003,32	-1227,273
1003,48	464,286
1003,64	780,000
1003,81	455,556
1003,97	-6150,000
1004,14	827,273
1004,30	273,333
1004,46	-626,667
1004,63	1135,714
1004,79	419,444
1004,95	1053,333
1005,12	4500,000
1005,28	596,552
1005,45	462,162
1005,61	489,655
1005,77	-218,750
1005,94	-547,619
1006,10	-5200,000
1006,26	1192,308
1006,43	-319,231
1006,59	-872,727
1006,76	785,714
1006,92	1877,778
1007,08	6700,000
1007,25	-381,481
1007,41	479,310
1007,57	4000,000
1007,74	1200,000
1007,90	-351,724
1008,06	165,217
1008,23	929,412
1008,39	-631,250
1008,55	-373,077
1008,72	-2114,286
1008,88	0,000
1009,04	363,415
1009,21	-352,632
1009,37	-741,667
1009,53	178,571
1009,70	3433,333
1009,86	-914,286
1010,02	2166,667
1010,19	872,727
1010,35	291,176
1010,51	-6100,000
1010,68	-1712,500
1010,84	-215,909
1011,00	687,500
1011,17	-440,909
1011,33	0,000
1011,49	-526,667
1011,66	1014,286
1011,82	654,839
1011,98	992,857
1012,14	-754,545
1012,31	392,308
1012,47	0,000
1012,63	2266,667
1012,80	1014,286
1012,96	-806,250
1013,12	-1850,000
1013,29	544,444
1013,45	378,049
1013,61	5533,333
1013,77	-157,143
1013,94	2540,000
1014,10	266,102
1014,26	-2975,000
1014,43	-404,000
1014,59	835,000
1014,75	-516,667
1014,91	-446,667
1015,08	494,444
1015,24	9100,000
1015,40	723,529
1015,56	-11300,000
1015,73	347,619
1015,89	881,818
1016,05	2975,000
1016,21	-1762,500
1016,38	757,895
1016,54	1292,308
1016,70	-4433,333
1016,86	418,750
1017,03	812,500
1017,19	-653,846
1017,35	-800,000
1017,51	-2260,000
1017,68	-640,000
1017,84	-1957,143
1018,00	290,476
1018,16	384,615
1018,33	-1100,000
1018,49	-958,333
1018,65	-340,541
1018,81	302,564
1018,97	-1942,857
1019,14	-2366,667
1019,30	-279,487
1019,46	0,000
1019,62	-652,941
1019,79	-4066,667
1019,95	1016,667
1020,11	6000,000
1020,27	-488,889
1020,43	-384,615
1020,60	2100,000
1020,76	827,778
1020,92	946,667
1021,08	695,000
1021,24	1630,000
1021,41	1433,333
1021,57	1350,000
1021,73	823,077
1021,89	2080,000
1022,05	-435,714
1022,21	775,000
1022,38	-791,667
1022,54	-2500,000
1022,70	308,889
1022,86	-1537,500
1023,02	508,333
1023,19	2540,000
1023,35	4066,667
1023,51	329,167
1023,67	466,667
1023,83	-793,750
1023,99	352,632
1024,16	-276,923
1024,32	-1144,444
1024,48	-970,000
1024,64	328,571
1024,80	652,174
1024,96	415,385
1025,12	461,905
1025,29	404,762
1025,45	339,474
1025,61	977,778
1025,77	-2800,000
1025,93	-6700,000
1026,09	-1771,429
1026,26	716,667
1026,42	637,500
1026,58	475,758
1026,74	1950,000
1026,90	408,000
1027,06	410,714
1027,22	1064,286
1027,38	334,615
1027,55	3833,333
1027,71	1466,667
1027,87	-384,000
1028,03	810,000
1028,19	456,250
1028,35	525,000
1028,51	1800,000
1028,67	950,000
1028,83	-2900,000
1029,00	-259,524
1029,16	1290,000
1029,32	-332,143
1029,48	313,333
1029,64	361,111
1029,80	5200,000
1029,96	880,000
1030,12	469,565
1030,28	-3900,000
1030,44	-900,000
1030,61	-454,167
1030,77	-131,429
1030,93	-646,667
1031,09	1700,000
1031,25	-9800,000
1031,41	-230,000
1031,57	523,077
1031,73	706,250
1031,89	-1281,818
1032,05	-362,963
1032,21	1163,636
1032,37	-196,296
1032,53	-1164,286
1032,69	-425,000
1032,86	414,815
1033,02	-172,500
1033,18	-756,250
1033,34	573,684
1033,50	-3850,000
1033,66	-275,610
1033,82	539,130
1033,98	-481,481
1034,14	216,667
1034,30	493,548
1034,46	-3633,333
1034,62	575,000
1034,78	-642,857
1034,94	357,895
1035,10	-784,615
1035,26	-176,744
1035,42	-406,897
1035,58	-533,333
1035,74	933,333
1035,90	-746,154
1036,06	-1450,000
1036,22	2383,333
1036,38	-776,471
1036,54	-387,500
1036,70	-242,424
1036,86	8700,000
1037,02	455,556
1037,18	768,421
1037,34	147,619
1037,50	-221,951
1037,66	-400,000
1037,82	2980,000
1037,98	-355,556
1038,14	-424,000
1038,30	-1250,000
1038,46	-1007,143
1038,62	534,783
1038,78	-3466,667
1038,94	-605,263
1039,10	509,091
1039,26	470,370
1039,42	-941,667
1039,58	1785,714
1039,74	-694,737
1039,90	296,875
1040,06	-303,846
>>>>>End Processed Spectral Data<<<<<
