SpectraSuite Data File
++++++++++++++++++++++++++++++++++++
Date: Wed Feb 01 16:22:53 EET 2017
User: optolab
Dark Spectrum Present: Yes
Reference Spectrum Present: Yes
Number of Sampled Component Spectra: 1
Spectrometers: USB4C02475
Integration Time (usec): 100000 (USB4C02475)
Spectra Averaged: 1 (USB4C02475)
Boxcar Smoothing: 0 (USB4C02475)
Correct for Electrical Dark: No (USB4C02475)
Strobe/Lamp Enabled: No (USB4C02475)
Correct for Detector Non-linearity: No (USB4C02475)
Correct for Stray Light: No (USB4C02475)
Number of Pixels in Processed Spectrum: 3648
>>>>>Begin Processed Spectral Data<<<<<
344,91	4350,000
345,13	4350,000
345,35	4350,000
345,57	0,000
345,79	478,947
346,00	-1766,667
346,22	-1814,286
346,44	367,647
346,66	-670,833
346,87	-12600,000
347,09	415,152
347,31	-572,727
347,53	-397,436
347,74	269,231
347,96	448,485
348,18	894,737
348,40	306,452
348,61	917,647
348,83	328,571
349,05	288,235
349,27	-4950,000
349,48	534,615
349,70	-417,241
349,92	425,806
350,14	305,660
350,35	274,000
350,57	2925,000
350,79	624,000
351,01	-800,000
351,22	242,593
351,44	807,692
351,66	-344,000
351,87	-423,810
352,09	280,769
352,31	234,426
352,53	214,063
352,74	419,444
352,96	255,844
353,18	536,842
353,40	588,000
353,61	257,778
353,83	470,588
354,05	1100,000
354,26	1866,667
354,48	246,000
354,70	372,727
354,92	-348,276
355,13	174,747
355,35	372,727
355,57	429,167
355,78	180,723
356,00	-3625,000
356,22	442,308
356,44	7150,000
356,65	354,545
356,87	561,538
357,09	620,833
357,30	326,667
357,52	317,241
357,74	915,000
357,95	330,769
358,17	224,590
358,39	253,226
358,60	378,378
358,82	508,333
359,04	403,704
359,26	488,571
359,47	6700,000
359,69	340,000
359,91	454,545
360,12	485,714
360,34	641,667
360,56	-140,741
360,77	2550,000
360,99	552,381
361,21	274,000
361,42	5750,000
361,64	230,612
361,86	232,308
362,07	-496,774
362,29	204,000
362,51	-700,000
362,72	472,000
362,94	335,294
363,16	279,070
363,37	-1078,571
363,59	526,923
363,81	315,909
364,02	766,667
364,24	545,833
364,46	2800,000
364,67	1081,818
364,89	2185,714
365,11	190,000
365,32	462,069
365,54	344,444
365,76	285,714
365,97	382,353
366,19	306,897
366,41	572,727
366,62	437,037
366,84	281,395
367,05	375,510
367,27	1566,667
367,49	-607,692
367,70	817,647
367,92	173,770
368,14	314,583
368,35	-6200,000
368,57	528,000
368,79	420,690
369,00	339,130
369,22	-1487,500
369,43	225,882
369,65	272,581
369,87	394,595
370,08	180,723
370,30	294,643
370,51	275,410
370,73	315,556
370,95	275,806
371,16	200,000
371,38	360,000
371,60	1700,000
371,81	164,062
372,03	700,000
372,24	326,667
372,46	213,208
372,68	154,286
372,89	430,303
373,11	542,308
373,32	370,455
373,54	-876,923
373,76	969,231
373,97	833,333
374,19	518,182
374,40	328,125
374,62	-3566,667
374,84	4100,000
375,05	589,286
375,27	336,000
375,48	-11500,000
375,70	168,000
375,92	260,714
376,13	343,750
376,35	168,493
376,56	950,000
376,78	250,000
376,99	389,286
377,21	329,167
377,43	209,091
377,64	227,536
377,86	420,690
378,07	271,795
378,29	-975,000
378,51	541,935
378,72	262,500
378,94	-1211,111
379,15	306,061
379,37	770,588
379,58	253,846
379,80	580,000
380,01	468,750
380,23	260,784
380,45	1980,000
380,66	3366,667
380,88	293,182
381,09	294,286
381,31	151,111
381,52	339,216
381,74	1388,889
381,95	695,455
382,17	561,538
382,39	442,857
382,60	216,327
382,82	325,641
383,03	286,538
383,25	332,258
383,46	300,000
383,68	377,778
383,89	735,000
384,11	287,097
384,32	-3166,667
384,54	433,333
384,76	-2566,667
384,97	324,242
385,19	434,483
385,40	280,392
385,62	235,088
385,83	345,238
386,05	215,686
386,26	272,000
386,48	225,287
386,69	335,417
386,91	515,000
387,12	181,356
387,34	234,483
387,55	198,387
387,77	468,750
387,98	700,000
388,20	207,609
388,41	405,882
388,63	7800,000
388,84	159,016
389,06	273,810
389,27	600,000
389,49	397,222
389,70	226,531
389,92	413,333
390,13	253,061
390,35	333,333
390,56	248,148
390,78	470,370
390,99	690,000
391,21	715,789
391,42	220,000
391,64	273,171
391,85	196,552
392,07	247,727
392,28	190,667
392,50	269,697
392,71	-987,500
392,93	246,154
393,14	519,444
393,36	236,735
393,57	151,880
393,79	966,667
394,00	208,511
394,22	168,493
394,43	172,289
394,65	311,628
394,86	1137,500
395,08	661,905
395,29	173,585
395,50	438,462
395,72	466,667
395,93	842,857
396,15	204,225
396,36	202,941
396,58	278,333
396,79	302,500
397,01	274,000
397,22	283,333
397,44	287,879
397,65	198,246
397,87	221,429
398,08	197,959
398,29	381,250
398,51	291,071
398,72	217,073
398,94	193,846
399,15	394,286
399,37	194,737
399,58	187,912
399,80	486,364
400,01	194,444
400,22	328,571
400,44	200,000
400,65	378,571
400,87	227,941
401,08	202,857
401,30	219,565
401,51	201,754
401,72	361,538
401,94	160,759
402,15	540,000
402,37	134,454
402,58	466,667
402,80	211,429
403,01	207,042
403,22	1018,182
403,44	201,449
403,65	225,000
403,87	151,429
404,08	417,949
404,30	163,529
404,51	-2766,667
404,72	202,857
404,94	148,039
405,15	196,000
405,37	183,544
405,58	164,706
405,79	201,220
406,01	278,049
406,22	206,897
406,44	336,170
406,65	329,825
406,86	218,750
407,08	165,823
407,29	100,971
407,51	146,341
407,72	156,481
407,93	161,957
408,15	105,128
408,36	265,116
408,58	122,680
408,79	109,167
409,00	159,375
409,22	184,127
409,43	175,949
409,64	92,547
409,86	92,453
410,07	98,462
410,29	94,776
410,50	129,078
410,71	120,536
410,93	92,357
411,14	100,775
411,35	109,524
411,57	100,000
411,78	89,063
412,00	105,732
412,21	103,871
412,42	69,312
412,64	80,687
412,85	82,990
413,06	93,293
413,28	56,757
413,49	64,455
413,70	75,000
413,92	72,727
414,13	53,112
414,34	74,713
414,56	65,734
414,77	98,734
414,98	65,772
415,20	65,052
415,41	69,405
415,63	63,433
415,84	71,389
416,05	60,989
416,27	64,341
416,48	78,090
416,69	69,248
416,91	59,730
417,12	64,973
417,33	63,579
417,55	61,368
417,76	66,940
417,97	56,017
418,19	47,316
418,40	59,149
418,61	53,519
418,83	51,091
419,04	50,631
419,25	47,352
419,46	50,526
419,68	49,048
419,89	48,286
420,10	49,388
420,32	42,590
420,53	53,359
420,74	52,986
420,96	47,375
421,17	49,192
421,38	51,795
421,60	49,669
421,81	53,986
422,02	50,157
422,23	45,915
422,45	49,310
422,66	47,739
422,87	45,946
423,09	42,971
423,30	45,672
423,51	41,024
423,73	41,035
423,94	37,255
424,15	35,034
424,36	34,529
424,58	32,250
424,79	33,354
425,00	29,659
425,22	33,916
425,43	31,013
425,64	34,570
425,85	33,569
426,07	36,133
426,28	42,357
426,49	44,894
426,71	45,167
426,92	44,469
427,13	47,121
427,34	47,547
427,56	47,988
427,77	43,868
427,98	47,104
428,19	44,079
428,41	46,165
428,62	41,759
428,83	40,136
429,04	39,460
429,26	38,967
429,47	36,946
429,68	37,736
429,89	36,679
430,11	37,174
430,32	35,526
430,53	37,072
430,74	37,276
430,96	37,372
431,17	38,026
431,38	39,502
431,59	38,665
431,81	39,119
432,02	36,427
432,23	37,447
432,44	37,811
432,66	37,691
432,87	38,113
433,08	36,929
433,29	35,653
433,51	33,973
433,72	36,125
433,93	34,410
434,14	34,234
434,35	34,059
434,57	31,776
434,78	32,634
434,99	31,844
435,20	29,378
435,42	28,896
435,63	28,295
435,84	27,344
436,05	25,832
436,26	24,903
436,48	23,421
436,69	22,433
436,90	21,572
437,11	20,002
437,32	19,943
437,54	20,353
437,75	20,015
437,96	19,801
438,17	19,319
438,38	20,191
438,60	19,704
438,81	19,168
439,02	20,364
439,23	19,778
439,44	18,729
439,66	18,963
439,87	17,945
440,08	17,026
440,29	16,175
440,50	14,693
440,72	13,787
440,93	12,588
441,14	11,361
441,35	10,398
441,56	9,054
441,77	8,383
441,99	7,412
442,20	6,867
442,41	5,931
442,62	5,226
442,83	5,350
443,04	4,487
443,26	4,193
443,47	3,968
443,68	3,350
443,89	3,313
444,10	2,906
444,31	2,705
444,53	2,650
444,74	2,319
444,95	2,297
445,16	1,882
445,37	2,054
445,58	1,964
445,80	1,688
446,01	1,619
446,22	1,538
446,43	1,240
446,64	1,178
446,85	0,878
447,06	1,158
447,28	0,805
447,49	1,037
447,70	1,075
447,91	0,848
448,12	0,710
448,33	0,821
448,54	0,546
448,76	0,861
448,97	0,887
449,18	0,787
449,39	0,865
449,60	0,931
449,81	0,758
450,02	0,907
450,23	0,682
450,45	0,702
450,66	0,601
450,87	0,754
451,08	0,797
451,29	1,048
451,50	0,666
451,71	0,819
451,92	0,488
452,13	0,520
452,35	0,850
452,56	0,852
452,77	0,931
452,98	0,906
453,19	0,589
453,40	0,704
453,61	0,852
453,82	0,560
454,03	0,756
454,25	1,022
454,46	0,887
454,67	0,947
454,88	0,813
455,09	0,815
455,30	1,002
455,51	0,783
455,72	0,699
455,93	0,812
456,14	0,728
456,35	1,100
456,56	0,925
456,78	0,858
456,99	0,820
457,20	0,852
457,41	0,520
457,62	0,881
457,83	0,596
458,04	0,883
458,25	0,769
458,46	0,726
458,67	0,905
458,88	0,868
459,09	0,725
459,30	0,600
459,51	0,764
459,73	0,622
459,94	1,007
460,15	0,810
460,36	0,543
460,57	0,581
460,78	0,466
460,99	0,548
461,20	0,486
461,41	0,451
461,62	0,464
461,83	0,611
462,04	0,570
462,25	0,694
462,46	0,746
462,67	0,478
462,88	0,582
463,09	0,602
463,30	0,618
463,51	0,699
463,72	0,693
463,93	0,557
464,15	0,470
464,36	0,495
464,57	0,486
464,78	0,505
464,99	0,621
465,20	0,604
465,41	0,522
465,62	0,473
465,83	0,652
466,04	0,617
466,25	0,453
466,46	0,497
466,67	0,469
466,88	0,563
467,09	0,629
467,30	0,476
467,51	0,633
467,72	0,573
467,93	0,606
468,14	0,528
468,35	0,534
468,56	0,417
468,77	0,589
468,98	0,558
469,19	0,528
469,40	0,535
469,61	0,571
469,82	0,401
470,03	0,675
470,24	0,792
470,45	0,503
470,66	0,400
470,87	0,537
471,08	0,693
471,29	0,628
471,50	0,589
471,71	0,572
471,92	0,742
472,13	0,769
472,34	0,731
472,55	0,669
472,76	0,631
472,97	0,821
473,18	0,610
473,39	0,859
473,60	0,844
473,81	0,920
474,01	1,041
474,22	1,234
474,43	1,602
474,64	1,690
474,85	1,754
475,06	2,255
475,27	2,636
475,48	3,132
475,69	3,438
475,90	4,568
476,11	5,289
476,32	5,712
476,53	6,515
476,74	7,799
476,95	9,050
477,16	9,632
477,37	11,003
477,58	11,894
477,79	13,235
478,00	14,557
478,21	15,710
478,41	17,478
478,62	18,918
478,83	20,486
479,04	22,213
479,25	23,823
479,46	25,006
479,67	27,080
479,88	28,739
480,09	30,146
480,30	31,720
480,51	32,933
480,72	33,744
480,93	35,474
481,14	37,310
481,34	38,801
481,55	39,603
481,76	40,853
481,97	42,619
482,18	44,990
482,39	46,058
482,60	46,695
482,81	48,883
483,02	49,814
483,23	50,537
483,44	52,515
483,65	52,865
483,85	53,751
484,06	54,601
484,27	54,589
484,48	54,648
484,69	54,439
484,90	54,998
485,11	54,298
485,32	56,402
485,53	54,803
485,73	54,914
485,94	54,676
486,15	53,738
486,36	52,769
486,57	51,070
486,78	50,528
486,99	49,686
487,20	47,322
487,41	46,377
487,61	45,194
487,82	43,376
488,03	42,259
488,24	41,144
488,45	39,625
488,66	38,356
488,87	36,876
489,08	35,483
489,28	34,494
489,49	34,175
489,70	32,631
489,91	31,454
490,12	31,539
490,33	30,399
490,54	29,960
490,74	29,983
490,95	29,174
491,16	28,795
491,37	28,522
491,58	28,330
491,79	28,246
492,00	27,762
492,20	28,261
492,41	28,127
492,62	28,109
492,83	27,877
493,04	27,861
493,25	28,283
493,45	27,827
493,66	27,801
493,87	27,864
494,08	27,670
494,29	27,226
494,50	27,006
494,70	27,356
494,91	28,019
495,12	27,285
495,33	27,285
495,54	27,535
495,75	27,179
495,95	27,036
496,16	26,858
496,37	27,487
496,58	27,429
496,79	27,219
496,99	27,187
497,20	27,013
497,41	27,209
497,62	27,564
497,83	27,783
498,04	27,423
498,24	27,512
498,45	28,180
498,66	28,412
498,87	28,438
499,08	29,454
499,28	29,713
499,49	30,440
499,70	30,723
499,91	31,613
500,12	32,188
500,32	33,277
500,53	33,952
500,74	34,592
500,95	36,157
501,15	37,406
501,36	37,950
501,57	39,908
501,78	41,014
501,99	42,300
502,19	42,520
502,40	44,048
502,61	45,355
502,82	46,311
503,02	46,609
503,23	47,019
503,44	47,803
503,65	47,177
503,86	46,840
504,06	46,624
504,27	46,733
504,48	46,542
504,69	45,405
504,89	45,014
505,10	44,171
505,31	43,058
505,52	42,007
505,72	41,094
505,93	40,461
506,14	39,797
506,35	38,246
506,55	37,068
506,76	36,665
506,97	35,818
507,18	34,713
507,38	34,569
507,59	33,427
507,80	32,859
508,01	31,462
508,21	30,354
508,42	29,707
508,63	28,590
508,84	27,607
509,04	26,210
509,25	24,675
509,46	23,270
509,67	21,657
509,87	20,275
510,08	18,626
510,29	17,214
510,49	15,349
510,70	13,876
510,91	12,693
511,12	11,345
511,32	10,309
511,53	9,100
511,74	8,054
511,94	7,484
512,15	6,741
512,36	6,114
512,57	5,555
512,77	5,308
512,98	5,011
513,19	4,877
513,39	4,462
513,60	4,313
513,81	4,418
514,01	4,223
514,22	4,394
514,43	4,182
514,64	3,805
514,84	3,729
515,05	3,360
515,26	3,097
515,46	2,799
515,67	2,494
515,88	2,327
516,08	2,009
516,29	1,856
516,50	1,431
516,70	1,054
516,91	1,181
517,12	0,882
517,32	0,752
517,53	0,808
517,74	0,758
517,95	0,542
518,15	0,593
518,36	0,585
518,57	0,642
518,77	0,489
518,98	0,488
519,19	0,401
519,39	0,517
519,60	0,567
519,80	0,636
520,01	0,432
520,22	0,626
520,42	0,553
520,63	0,588
520,84	0,441
521,04	0,587
521,25	0,728
521,46	0,601
521,66	0,546
521,87	0,250
522,08	0,604
522,28	0,655
522,49	0,356
522,70	0,643
522,90	0,568
523,11	0,476
523,31	0,719
523,52	0,367
523,73	0,736
523,93	0,814
524,14	0,407
524,35	0,662
524,55	0,588
524,76	0,535
524,97	0,591
525,17	0,486
525,38	0,474
525,58	0,554
525,79	0,432
526,00	0,389
526,20	0,613
526,41	0,499
526,61	0,605
526,82	0,535
527,03	0,504
527,23	0,448
527,44	0,445
527,64	0,451
527,85	0,518
528,06	0,501
528,26	0,677
528,47	0,598
528,68	0,444
528,88	0,673
529,09	0,470
529,29	0,497
529,50	0,439
529,70	0,556
529,91	0,666
530,12	0,659
530,32	0,386
530,53	0,652
530,73	0,716
530,94	0,590
531,15	0,495
531,35	0,371
531,56	0,533
531,76	0,461
531,97	0,625
532,17	0,370
532,38	0,446
532,59	0,543
532,79	0,637
533,00	0,623
533,20	0,618
533,41	0,452
533,61	0,431
533,82	0,605
534,03	0,345
534,23	0,686
534,44	0,546
534,64	0,624
534,85	0,642
535,05	0,479
535,26	0,345
535,46	0,683
535,67	0,708
535,88	0,550
536,08	0,447
536,29	0,540
536,49	0,596
536,70	0,453
536,90	0,587
537,11	0,592
537,31	0,496
537,52	0,579
537,72	0,616
537,93	0,762
538,13	0,629
538,34	0,688
538,55	0,661
538,75	0,499
538,96	0,497
539,16	0,436
539,37	0,668
539,57	0,571
539,78	0,623
539,98	0,578
540,19	0,526
540,39	0,557
540,60	0,572
540,80	0,560
541,01	0,549
541,21	0,570
541,42	0,599
541,62	0,472
541,83	0,638
542,03	0,659
542,24	0,475
542,44	0,445
542,65	0,517
542,85	0,698
543,06	0,784
543,26	0,432
543,47	0,432
543,67	0,647
543,88	0,719
544,08	0,653
544,29	0,784
544,49	0,606
544,70	0,615
544,90	0,637
545,11	0,546
545,31	0,544
545,52	0,548
545,72	0,789
545,93	0,448
546,13	0,737
546,34	0,531
546,54	0,592
546,75	0,619
546,95	0,761
547,15	0,505
547,36	0,619
547,56	0,813
547,77	0,660
547,97	0,714
548,18	0,594
548,38	0,650
548,59	0,684
548,79	0,411
549,00	0,375
549,20	0,713
549,41	0,624
549,61	0,688
549,81	0,663
550,02	0,943
550,22	0,793
550,43	0,779
550,63	0,854
550,84	0,773
551,04	0,993
551,25	1,006
551,45	1,040
551,65	1,065
551,86	1,303
552,06	1,222
552,27	1,245
552,47	1,585
552,68	1,907
552,88	1,873
553,08	2,116
553,29	2,606
553,49	2,675
553,70	3,072
553,90	3,494
554,11	3,996
554,31	4,500
554,51	5,258
554,72	5,789
554,92	6,654
555,13	7,430
555,33	8,528
555,53	9,712
555,74	10,581
555,94	11,828
556,15	13,326
556,35	14,466
556,56	15,820
556,76	17,430
556,96	19,099
557,17	20,901
557,37	22,342
557,58	24,707
557,78	25,966
557,98	28,278
558,19	30,173
558,39	31,188
558,59	33,255
558,80	34,817
559,00	36,504
559,21	37,124
559,41	38,423
559,61	39,073
559,82	40,312
560,02	41,180
560,23	41,209
560,43	42,161
560,63	41,666
560,84	42,347
561,04	42,723
561,24	42,978
561,45	42,970
561,65	43,307
561,85	43,781
562,06	42,945
562,26	43,213
562,47	43,457
562,67	44,112
562,87	44,877
563,08	44,505
563,28	44,368
563,48	44,404
563,69	44,456
563,89	44,930
564,09	44,991
564,30	44,644
564,50	45,173
564,70	45,235
564,91	45,692
565,11	45,318
565,31	45,406
565,52	45,099
565,72	45,438
565,92	46,487
566,13	45,444
566,33	46,203
566,53	46,628
566,74	46,710
566,94	46,578
567,14	46,614
567,35	46,996
567,55	48,029
567,75	48,756
567,96	48,511
568,16	49,671
568,36	49,887
568,57	50,951
568,77	52,001
568,97	53,798
569,18	55,264
569,38	57,252
569,58	58,098
569,79	60,961
569,99	63,061
570,19	65,235
570,39	68,415
570,60	70,139
570,80	72,754
571,00	75,332
571,21	76,111
571,41	77,089
571,61	78,564
571,82	79,439
572,02	80,024
572,22	80,280
572,42	80,861
572,63	78,547
572,83	78,902
573,03	79,160
573,24	79,506
573,44	78,490
573,64	77,908
573,84	78,601
574,05	79,072
574,25	79,362
574,45	78,048
574,66	78,987
574,86	80,570
575,06	80,336
575,26	80,814
575,47	81,573
575,67	81,458
575,87	83,937
576,07	84,223
576,28	84,073
576,48	84,870
576,68	85,275
576,88	85,604
577,09	85,170
577,29	85,853
577,49	86,125
577,69	85,979
577,90	84,781
578,10	83,388
578,30	83,200
578,50	82,946
578,71	82,298
578,91	81,652
579,11	81,344
579,31	80,855
579,52	80,723
579,72	78,841
579,92	78,844
580,12	78,785
580,33	78,883
580,53	77,827
580,73	76,334
580,93	75,603
581,13	76,253
581,34	75,937
581,54	74,112
581,74	74,691
581,94	73,666
582,15	71,947
582,35	71,566
582,55	69,618
582,75	68,331
582,95	67,556
583,16	66,572
583,36	65,772
583,56	63,930
583,76	62,845
583,96	62,013
584,17	59,880
584,37	59,204
584,57	57,224
584,77	56,069
584,97	54,880
585,18	53,612
585,38	51,832
585,58	50,930
585,78	49,639
585,98	48,242
586,19	47,430
586,39	46,205
586,59	45,240
586,79	44,456
586,99	44,189
587,20	42,722
587,40	42,624
587,60	42,287
587,80	42,281
588,00	41,433
588,20	41,558
588,41	41,825
588,61	41,674
588,81	42,092
589,01	42,003
589,21	41,591
589,41	42,664
589,62	43,254
589,82	43,359
590,02	42,803
590,22	43,387
590,42	43,757
590,62	44,208
590,83	44,171
591,03	44,133
591,23	43,694
591,43	43,827
591,63	43,469
591,83	43,598
592,03	42,702
592,24	42,616
592,44	42,182
592,64	41,261
592,84	40,874
593,04	39,981
593,24	38,855
593,44	38,682
593,65	37,792
593,85	37,065
594,05	35,762
594,25	34,882
594,45	34,185
594,65	33,502
594,85	32,907
595,06	32,632
595,26	32,401
595,46	31,373
595,66	31,291
595,86	31,132
596,06	31,174
596,26	31,426
596,46	31,120
596,66	31,739
596,87	31,265
597,07	32,126
597,27	32,802
597,47	32,965
597,67	33,757
597,87	34,064
598,07	34,007
598,27	34,397
598,47	35,273
598,67	35,502
598,88	36,327
599,08	36,086
599,28	36,917
599,48	37,052
599,68	36,670
599,88	37,018
600,08	37,370
600,28	37,031
600,48	37,043
600,68	37,141
600,88	36,862
601,09	36,923
601,29	35,871
601,49	36,272
601,69	35,338
601,89	35,265
602,09	34,803
602,29	34,322
602,49	34,312
602,69	33,614
602,89	33,093
603,09	32,996
603,29	32,719
603,49	32,170
603,69	31,766
603,90	31,615
604,10	31,183
604,30	30,694
604,50	30,388
604,70	29,512
604,90	29,211
605,10	29,158
605,30	28,571
605,50	28,119
605,70	27,794
605,90	27,317
606,10	26,630
606,30	26,683
606,50	26,506
606,70	26,041
606,90	25,410
607,10	24,959
607,30	24,852
607,50	24,209
607,70	23,947
607,90	23,249
608,10	22,780
608,30	21,849
608,50	21,666
608,70	20,460
608,90	19,903
609,11	19,254
609,31	18,013
609,51	17,024
609,71	16,329
609,91	15,403
610,11	14,462
610,31	13,363
610,51	12,493
610,71	11,419
610,91	10,570
611,11	9,949
611,31	9,144
611,51	8,250
611,71	7,423
611,91	6,770
612,11	6,273
612,31	5,927
612,51	5,056
612,71	4,499
612,91	4,029
613,11	3,539
613,31	3,224
613,51	2,666
613,71	2,235
613,91	2,113
614,11	1,720
614,31	1,545
614,50	1,484
614,70	1,328
614,90	1,155
615,10	0,833
615,30	0,793
615,50	0,583
615,70	0,702
615,90	0,857
616,10	0,731
616,30	0,594
616,50	0,471
616,70	0,542
616,90	0,598
617,10	0,461
617,30	0,579
617,50	0,518
617,70	0,567
617,90	0,577
618,10	0,658
618,30	0,520
618,50	0,587
618,70	0,473
618,90	0,300
619,10	0,379
619,30	0,380
619,49	0,554
619,69	0,654
619,89	0,339
620,09	0,519
620,29	0,724
620,49	0,639
620,69	0,353
620,89	0,560
621,09	0,323
621,29	0,510
621,49	0,434
621,69	0,525
621,89	0,431
622,09	0,543
622,29	0,543
622,48	0,429
622,68	0,293
622,88	0,309
623,08	0,420
623,28	0,435
623,48	0,280
623,68	0,371
623,88	0,477
624,08	0,454
624,28	0,205
624,48	0,513
624,67	0,366
624,87	0,415
625,07	0,437
625,27	0,469
625,47	0,479
625,67	0,581
625,87	0,352
626,07	0,422
626,27	0,340
626,47	0,363
626,66	0,394
626,86	0,538
627,06	0,411
627,26	0,460
627,46	0,317
627,66	0,318
627,86	0,335
628,06	0,434
628,25	0,361
628,45	0,437
628,65	0,368
628,85	0,398
629,05	0,547
629,25	0,418
629,45	0,333
629,65	0,372
629,84	0,543
630,04	0,325
630,24	0,447
630,44	0,289
630,64	0,406
630,84	0,379
631,04	0,507
631,23	0,364
631,43	0,482
631,63	0,491
631,83	0,304
632,03	0,292
632,23	0,317
632,42	0,357
632,62	0,491
632,82	0,379
633,02	0,371
633,22	0,385
633,42	0,500
633,62	0,599
633,81	0,436
634,01	0,444
634,21	0,518
634,41	0,644
634,61	0,415
634,80	0,444
635,00	0,317
635,20	0,488
635,40	0,567
635,60	0,485
635,80	0,431
635,99	0,354
636,19	0,334
636,39	0,530
636,59	0,729
636,79	0,754
636,98	0,576
637,18	0,392
637,38	0,843
637,58	0,636
637,78	0,594
637,97	0,582
638,17	0,684
638,37	0,527
638,57	0,583
638,77	0,587
638,96	0,546
639,16	0,450
639,36	0,691
639,56	0,453
639,76	0,800
639,95	0,570
640,15	0,637
640,35	0,667
640,55	0,534
640,75	0,613
640,94	0,390
641,14	0,703
641,34	0,659
641,54	0,475
641,73	0,718
641,93	0,576
642,13	0,519
642,33	0,942
642,53	0,611
642,72	0,707
642,92	0,647
643,12	0,414
643,32	1,049
643,51	0,690
643,71	0,578
643,91	0,390
644,11	0,920
644,30	0,545
644,50	0,739
644,70	0,422
644,90	0,657
645,09	0,946
645,29	0,402
645,49	0,703
645,69	0,825
645,88	0,877
646,08	0,890
646,28	0,872
646,48	1,002
646,67	0,792
646,87	0,893
647,07	0,911
647,26	1,010
647,46	0,637
647,66	0,973
647,86	0,683
648,05	0,716
648,25	1,034
648,45	0,886
648,65	0,894
648,84	0,877
649,04	1,074
649,24	0,859
649,43	0,671
649,63	1,063
649,83	0,696
650,03	1,021
650,22	0,516
650,42	1,042
650,62	0,056
650,81	0,872
651,01	0,897
651,21	0,633
651,40	0,856
651,60	0,831
651,80	0,756
652,00	0,679
652,19	0,782
652,39	1,023
652,59	0,860
652,78	1,147
652,98	0,606
653,18	0,597
653,37	0,871
653,57	0,765
653,77	0,702
653,96	0,538
654,16	0,905
654,36	0,921
654,55	1,269
654,75	0,911
654,95	0,587
655,14	0,923
655,34	1,175
655,54	0,672
655,73	0,359
655,93	1,262
656,13	0,771
656,32	0,371
656,52	0,550
656,72	0,933
656,91	1,045
657,11	1,029
657,31	0,841
657,50	0,983
657,70	0,635
657,90	1,093
658,09	0,610
658,29	1,142
658,49	0,715
658,68	1,380
658,88	1,165
659,07	0,767
659,27	0,606
659,47	1,155
659,66	0,374
659,86	0,820
660,06	0,803
660,25	0,679
660,45	1,094
660,64	0,545
660,84	0,749
661,04	0,621
661,23	0,999
661,43	1,010
661,63	0,880
661,82	0,450
662,02	1,095
662,21	0,910
662,41	0,597
662,61	0,858
662,80	0,643
663,00	1,075
663,19	1,167
663,39	0,896
663,59	1,202
663,78	0,656
663,98	0,645
664,17	1,078
664,37	0,919
664,57	0,712
664,76	1,243
664,96	0,632
665,15	0,498
665,35	0,912
665,55	0,693
665,74	0,948
665,94	0,500
666,13	1,081
666,33	0,310
666,53	1,056
666,72	0,707
666,92	1,031
667,11	0,817
667,31	0,591
667,50	1,166
667,70	0,667
667,90	0,813
668,09	0,945
668,29	0,903
668,48	0,841
668,68	0,652
668,87	0,783
669,07	1,016
669,26	0,784
669,46	0,716
669,66	0,951
669,85	0,914
670,05	0,719
670,24	0,767
670,44	0,876
670,63	0,871
670,83	0,852
671,02	1,090
671,22	1,225
671,42	0,819
671,61	0,388
671,81	0,678
672,00	0,777
672,20	0,637
672,39	0,341
672,59	0,463
672,78	0,698
672,98	0,651
673,17	0,660
673,37	0,710
673,56	0,699
673,76	0,883
673,95	0,823
674,15	0,483
674,34	0,585
674,54	1,029
674,73	0,732
674,93	0,721
675,13	0,565
675,32	0,651
675,52	0,866
675,71	0,282
675,91	0,506
676,10	0,622
676,30	0,310
676,49	0,530
676,69	0,567
676,88	0,833
677,08	0,569
677,27	0,589
677,47	0,778
677,66	0,760
677,86	0,551
678,05	0,909
678,24	0,507
678,44	0,816
678,63	0,606
678,83	0,523
679,02	0,739
679,22	0,424
679,41	0,693
679,61	0,461
679,80	0,653
680,00	0,559
680,19	0,633
680,39	0,622
680,58	0,430
680,78	0,498
680,97	0,464
681,17	0,686
681,36	0,362
681,56	0,728
681,75	0,562
681,94	0,583
682,14	0,537
682,33	0,558
682,53	0,781
682,72	0,671
682,92	0,564
683,11	0,703
683,31	0,346
683,50	0,529
683,69	0,670
683,89	0,395
684,08	0,627
684,28	0,444
684,47	0,543
684,67	0,575
684,86	-0,035
685,06	0,582
685,25	0,245
685,44	0,470
685,64	0,331
685,83	0,341
686,03	0,267
686,22	0,187
686,42	0,430
686,61	0,551
686,80	0,399
687,00	0,518
687,19	0,590
687,39	0,205
687,58	0,296
687,77	0,268
687,97	0,377
688,16	0,436
688,36	0,260
688,55	0,344
688,74	0,444
688,94	0,290
689,13	0,389
689,33	0,286
689,52	0,299
689,71	0,515
689,91	0,245
690,10	0,387
690,30	0,348
690,49	0,320
690,68	0,376
690,88	0,304
691,07	0,330
691,27	0,455
691,46	0,235
691,65	0,484
691,85	0,415
692,04	0,238
692,23	0,224
692,43	0,298
692,62	0,493
692,82	0,409
693,01	0,413
693,20	0,494
693,40	0,253
693,59	0,405
693,78	0,451
693,98	0,359
694,17	0,390
694,36	0,445
694,56	0,544
694,75	0,243
694,94	0,603
695,14	0,514
695,33	0,334
695,53	0,409
695,72	0,547
695,91	0,421
696,11	0,416
696,30	0,379
696,49	0,275
696,69	0,501
696,88	0,636
697,07	0,338
697,27	0,400
697,46	0,322
697,65	0,315
697,85	0,355
698,04	0,571
698,23	0,575
698,43	0,679
698,62	0,603
698,81	0,144
699,01	1,246
699,20	0,549
699,39	0,871
699,58	0,931
699,78	0,922
699,97	0,693
700,16	0,870
700,36	0,886
700,55	0,778
700,74	1,062
700,94	1,202
701,13	0,909
701,32	1,043
701,52	0,775
701,71	0,562
701,90	1,466
702,09	1,243
702,29	1,017
702,48	1,670
702,67	1,288
702,87	1,036
703,06	1,671
703,25	1,271
703,44	1,357
703,64	1,875
703,83	1,070
704,02	1,638
704,22	1,218
704,41	1,585
704,60	2,154
704,79	1,001
704,99	1,676
705,18	1,728
705,37	1,915
705,56	2,498
705,76	2,489
705,95	1,894
706,14	1,312
706,33	3,159
706,53	2,228
706,72	1,227
706,91	2,221
707,11	2,491
707,30	3,292
707,49	2,789
707,68	2,316
707,88	2,763
708,07	0,891
708,26	2,447
708,45	1,712
708,64	3,603
708,84	3,454
709,03	3,803
709,22	1,955
709,41	3,077
709,61	3,546
709,80	3,149
709,99	3,321
710,18	4,428
710,38	2,722
710,57	2,539
710,76	3,426
710,95	3,442
711,14	4,881
711,34	3,118
711,53	4,392
711,72	4,084
711,91	3,069
712,11	4,486
712,30	5,505
712,49	5,965
712,68	3,925
712,87	5,760
713,07	5,785
713,26	4,850
713,45	5,620
713,64	4,499
713,83	4,560
714,03	5,731
714,22	3,622
714,41	4,550
714,60	5,745
714,79	3,589
714,99	3,346
715,18	4,207
715,37	8,152
715,56	5,162
715,75	4,916
715,94	6,159
716,14	6,102
716,33	5,334
716,52	5,146
716,71	7,151
716,90	7,082
717,10	5,742
717,29	6,057
717,48	6,265
717,67	3,722
717,86	5,871
718,05	-0,540
718,24	5,932
718,44	6,801
718,63	3,774
718,82	7,557
719,01	7,985
719,20	6,697
719,39	6,997
719,59	4,119
719,78	6,225
719,97	6,974
720,16	5,689
720,35	7,093
720,54	8,392
720,73	3,002
720,93	8,746
721,12	5,018
721,31	9,626
721,50	6,083
721,69	6,589
721,88	9,351
722,07	6,269
722,27	7,805
722,46	5,085
722,65	6,623
722,84	8,242
723,03	4,966
723,22	10,217
723,41	9,183
723,60	9,357
723,79	7,814
723,99	5,928
724,18	12,355
724,37	7,072
724,56	14,095
724,75	11,141
724,94	15,780
725,13	15,484
725,32	9,791
725,51	11,160
725,71	9,470
725,90	7,793
726,09	13,297
726,28	11,463
726,47	5,371
726,66	8,651
726,85	8,299
727,04	9,346
727,23	7,058
727,42	11,707
727,61	1,799
727,81	10,219
728,00	17,665
728,19	9,954
728,38	7,991
728,57	11,950
728,76	13,987
728,95	13,616
729,14	7,135
729,33	13,063
729,52	13,611
729,71	16,992
729,90	11,251
730,09	7,710
730,28	13,510
730,48	11,137
730,67	15,961
730,86	7,960
731,05	12,734
731,24	6,732
731,43	9,937
731,62	13,283
731,81	11,563
732,00	9,276
732,19	8,301
732,38	10,864
732,57	10,218
732,76	13,095
732,95	9,067
733,14	11,964
733,33	14,011
733,52	15,617
733,71	11,111
733,90	21,080
734,09	11,985
734,28	14,207
734,47	15,263
734,66	14,518
734,85	18,014
735,04	18,392
735,23	15,608
735,42	14,841
735,61	16,267
735,81	18,483
736,00	20,783
736,19	18,195
736,38	8,148
736,57	16,435
736,76	10,853
736,95	15,000
737,14	21,125
737,33	20,867
737,52	11,614
737,71	11,699
737,90	16,188
738,09	16,564
738,28	15,789
738,47	16,176
738,66	13,594
738,85	10,137
739,04	22,750
739,22	12,162
739,41	19,194
739,60	13,378
739,79	10,959
739,98	9,074
740,17	18,878
740,36	19,643
740,55	24,515
740,74	11,478
740,93	19,106
741,12	25,551
741,31	13,419
741,50	15,443
741,69	13,889
741,88	9,200
742,07	16,426
742,26	14,232
742,45	16,996
742,64	25,540
742,83	15,106
743,02	12,072
743,21	30,986
743,40	23,992
743,59	16,803
743,78	18,559
743,97	24,812
744,16	15,965
744,34	17,717
744,53	19,877
744,72	32,432
744,91	7,789
745,10	22,622
745,29	23,877
745,48	20,352
745,67	26,477
745,86	11,972
746,05	26,256
746,24	30,283
746,43	33,570
746,62	18,664
746,81	28,767
747,00	24,217
747,18	31,648
747,37	27,719
747,56	17,753
747,75	28,665
747,94	31,291
748,13	24,658
748,32	31,838
748,51	27,540
748,70	29,257
748,89	18,116
749,08	8,571
749,26	30,072
749,45	23,529
749,64	12,159
749,83	21,883
750,02	27,901
750,21	17,889
750,40	25,781
750,59	36,792
750,78	32,544
750,96	25,978
751,15	24,044
751,34	37,173
751,53	39,901
751,72	32,075
751,91	27,945
752,10	21,914
752,29	33,051
752,47	21,910
752,66	34,930
752,85	16,099
753,04	39,432
753,23	15,232
753,42	27,052
753,61	28,758
753,80	34,959
753,98	30,877
754,17	33,436
754,36	31,073
754,55	11,599
754,74	35,838
754,93	36,023
755,12	29,600
755,30	34,903
755,49	23,242
755,68	42,363
755,87	29,730
756,06	34,637
756,25	30,794
756,43	46,552
756,62	36,795
756,81	20,132
757,00	39,710
757,19	33,904
757,38	38,801
757,56	40,323
757,75	32,026
757,94	41,009
758,13	29,545
758,32	43,182
758,51	36,397
758,69	24,400
758,88	44,144
759,07	24,731
759,26	37,674
759,45	32,314
759,63	44,238
759,82	27,609
760,01	28,094
760,20	36,965
760,39	51,119
760,57	49,587
760,76	20,721
760,95	28,241
761,14	42,449
761,33	35,312
761,51	36,201
761,70	57,586
761,89	23,361
762,08	59,070
762,27	26,374
762,45	42,802
762,64	43,223
762,83	49,558
763,02	51,163
763,21	27,586
763,39	31,837
763,58	41,132
763,77	43,629
763,96	46,988
764,14	55,417
764,33	49,451
764,52	52,361
764,71	55,157
764,89	24,020
765,08	62,931
765,27	45,725
765,46	45,652
765,65	35,808
765,83	53,247
766,02	34,894
766,21	57,459
766,40	61,905
766,58	44,715
766,77	42,786
766,96	56,818
767,15	60,870
767,33	39,766
767,52	37,805
767,71	44,348
767,90	58,427
768,08	58,755
768,27	50,000
768,46	46,875
768,64	74,093
768,83	68,750
769,02	45,500
769,21	41,485
769,39	56,395
769,58	61,272
769,77	61,303
769,96	73,298
770,14	68,707
770,33	57,477
770,52	41,270
770,70	41,333
770,89	66,443
771,08	48,305
771,27	52,577
771,45	53,947
771,64	73,438
771,83	64,953
772,01	49,398
772,20	75,377
772,39	40,000
772,57	53,488
772,76	54,074
772,95	59,574
773,14	56,989
773,32	69,677
773,51	58,209
773,70	80,625
773,88	80,874
774,07	50,785
774,26	46,099
774,44	45,122
774,63	84,772
774,82	48,780
775,00	80,667
775,19	60,800
775,38	73,410
775,56	54,167
775,75	63,253
775,94	72,152
776,12	55,801
776,31	67,059
776,50	63,636
776,68	57,895
776,87	65,909
777,06	49,655
777,24	93,333
777,43	75,000
777,62	100,735
777,80	59,459
777,99	65,143
778,18	68,812
778,36	84,800
778,55	60,331
778,74	70,833
778,92	59,172
779,11	57,500
779,29	67,925
779,48	59,184
779,67	81,395
779,85	91,870
780,04	70,811
780,23	53,957
780,41	68,750
780,60	48,421
780,79	68,362
780,97	84,868
781,16	33,939
781,34	118,557
781,53	104,274
781,72	93,431
781,90	46,094
782,09	69,677
782,28	91,971
782,46	54,815
782,65	59,286
782,83	112,360
783,02	102,500
783,21	96,667
783,39	97,391
783,58	69,822
783,76	60,335
783,95	64,848
784,14	91,391
784,32	87,248
784,51	106,897
784,69	62,712
784,88	128,829
785,06	68,908
785,25	102,548
785,44	79,856
785,62	92,857
785,81	126,761
785,99	94,964
786,18	76,351
786,37	76,296
786,55	63,303
786,74	61,184
786,92	97,656
787,11	113,333
787,29	77,612
787,48	52,000
787,67	102,410
787,85	100,000
788,04	51,485
788,22	67,213
788,41	84,706
788,59	123,853
788,78	78,788
788,96	73,585
789,15	128,421
789,34	121,818
789,52	92,035
789,71	72,093
789,89	234,043
790,08	92,466
790,26	18,571
790,45	54,545
790,63	86,111
790,82	97,576
791,00	57,639
791,19	107,527
791,38	118,750
791,56	107,018
791,75	113,761
791,93	106,897
792,12	89,349
792,30	115,200
792,49	110,084
792,67	105,970
792,86	86,822
793,04	132,710
793,23	57,500
793,41	124,051
793,60	102,020
793,78	128,070
793,97	119,231
794,15	117,273
794,34	107,692
794,52	136,364
794,71	111,111
794,89	96,667
795,08	99,029
795,26	95,556
795,45	102,985
795,63	100,000
795,82	96,262
796,00	110,092
796,19	86,667
796,37	90,511
796,56	123,656
796,74	118,584
796,93	119,101
797,11	131,646
797,30	105,833
797,48	108,276
797,67	131,667
797,85	109,184
798,04	135,417
798,22	104,762
798,41	110,784
798,59	105,263
798,77	196,923
798,96	103,226
799,14	121,552
799,33	85,496
799,51	93,077
799,70	102,685
799,88	106,061
800,07	82,237
800,25	96,552
800,44	125,253
800,62	77,647
800,80	159,420
800,99	136,508
801,17	84,483
801,36	86,207
801,54	85,417
801,73	112,121
801,91	96,721
802,10	98,810
802,28	115,888
802,46	113,580
802,65	132,184
802,83	134,831
803,02	137,895
803,20	114,844
803,39	112,069
803,57	101,205
803,75	92,568
803,94	110,924
804,12	85,833
804,31	119,469
804,49	97,115
804,67	102,400
804,86	70,536
805,04	89,865
805,23	94,483
805,41	106,557
805,59	72,131
805,78	112,121
805,96	105,128
806,15	102,344
806,33	104,202
806,51	84,071
806,70	161,667
806,88	99,187
807,07	89,683
807,25	61,006
807,43	109,272
807,62	91,870
807,80	120,430
807,99	76,984
808,17	94,326
808,35	120,175
808,54	121,505
808,72	51,200
808,90	77,632
809,09	100,833
809,27	86,486
809,46	79,464
809,64	97,059
809,82	66,667
810,01	112,121
810,19	107,000
810,37	74,615
810,56	130,488
810,74	86,755
810,92	120,455
811,11	117,647
811,29	95,035
811,48	98,990
811,66	83,721
811,84	104,587
812,03	68,182
812,21	144,872
812,39	85,593
812,58	87,255
812,76	91,589
812,94	101,333
813,13	104,762
813,31	66,667
813,49	122,826
813,68	119,130
813,86	104,082
814,04	129,126
814,23	133,333
814,41	79,412
814,59	80,791
814,78	88,971
814,96	106,306
815,14	88,889
815,33	105,797
815,51	81,481
815,69	114,815
815,87	115,652
816,06	97,500
816,24	69,536
816,42	75,000
816,61	133,898
816,79	150,602
816,97	109,009
817,16	66,452
817,34	93,793
817,52	85,517
817,70	132,540
817,89	84,298
818,07	94,828
818,25	92,793
818,44	81,977
818,62	112,069
818,80	104,895
818,98	71,429
819,17	96,154
819,35	77,647
819,53	89,109
819,72	81,395
819,90	74,251
820,08	40,909
820,26	122,807
820,45	69,880
820,63	91,667
820,81	75,168
820,99	106,015
821,18	56,296
821,36	93,810
821,54	82,558
821,73	73,514
821,91	53,723
822,09	83,529
822,27	78,680
822,46	76,875
822,64	72,848
822,82	62,927
823,00	76,577
823,19	62,879
823,37	78,571
823,55	86,471
823,73	96,000
823,91	45,304
824,10	64,804
824,28	78,519
824,46	73,256
824,64	48,039
824,83	77,236
825,01	75,362
825,19	84,000
825,37	69,792
825,56	73,125
825,74	87,143
825,92	55,056
826,10	70,186
826,28	83,221
826,47	63,415
826,65	63,514
826,83	68,817
827,01	69,697
827,19	82,278
827,38	72,539
827,56	56,250
827,74	65,447
827,92	78,049
828,10	82,065
828,29	63,810
828,47	73,684
828,65	58,378
828,83	66,667
829,01	76,667
829,20	67,089
829,38	54,772
829,56	58,704
829,74	72,727
829,92	64,433
830,10	69,369
830,29	61,622
830,47	60,938
830,65	45,982
830,83	41,714
831,01	46,250
831,20	50,000
831,38	51,220
831,56	51,417
831,74	80,571
831,92	57,955
832,10	59,545
832,29	47,393
832,47	54,867
832,65	55,319
832,83	57,209
833,01	32,016
833,19	57,919
833,37	51,852
833,56	65,728
833,74	60,729
833,92	46,460
834,10	52,792
834,28	42,308
834,46	57,439
834,64	45,703
834,83	49,488
835,01	50,584
835,19	48,815
835,37	52,191
835,55	56,318
835,73	52,574
835,91	42,085
836,09	53,112
836,28	53,435
836,46	49,474
836,64	66,393
836,82	32,090
837,00	53,401
837,18	45,455
837,36	59,358
837,54	39,015
837,72	45,817
837,91	37,349
838,09	55,600
838,27	41,392
838,45	53,074
838,63	31,864
838,81	52,632
838,99	45,296
839,17	50,809
839,35	33,333
839,53	42,282
839,72	37,712
839,90	26,140
840,08	47,756
840,26	37,539
840,44	32,407
840,62	40,404
840,80	31,173
840,98	44,411
841,16	19,217
841,34	39,130
841,52	23,642
841,70	35,690
841,89	42,258
842,07	39,459
842,25	21,429
842,43	33,871
842,61	40,483
842,79	44,512
842,97	39,634
843,15	32,951
843,33	27,791
843,51	27,208
843,69	28,333
843,87	33,693
844,05	37,197
844,23	29,459
844,41	37,186
844,59	31,534
844,77	23,631
844,95	22,816
845,13	31,148
845,31	35,754
845,50	41,753
845,68	30,052
845,86	31,132
846,04	32,840
846,22	31,265
846,40	22,047
846,58	28,150
846,76	26,185
846,94	27,644
847,12	31,754
847,30	30,415
847,48	35,731
847,66	34,878
847,84	21,827
848,02	31,185
848,20	37,969
848,38	28,992
848,56	40,860
848,74	24,380
848,92	19,833
849,10	37,946
849,28	28,322
849,46	25,234
849,64	21,667
849,82	14,904
850,00	23,203
850,18	27,714
850,36	18,860
850,54	30,942
850,72	24,740
850,90	24,818
851,08	18,107
851,26	31,984
851,44	24,498
851,62	17,660
851,80	28,032
851,98	30,041
852,16	32,716
852,34	33,586
852,52	30,417
852,70	21,084
852,87	18,476
853,05	31,663
853,23	25,098
853,41	16,155
853,59	20,377
853,77	16,865
853,95	19,280
854,13	26,990
854,31	24,258
854,49	10,621
854,67	20,677
854,85	24,870
855,03	22,797
855,21	21,320
855,39	14,262
855,57	30,435
855,75	26,138
855,93	16,961
856,11	27,273
856,28	25,347
856,46	14,869
856,64	26,699
856,82	14,136
857,00	19,377
857,18	22,535
857,36	17,815
857,54	19,426
857,72	25,209
857,90	17,628
858,08	26,389
858,26	16,514
858,44	19,410
858,61	14,731
858,79	26,667
858,97	15,330
859,15	16,134
859,33	15,184
859,51	15,655
859,69	21,429
859,87	19,180
860,05	18,968
860,23	10,909
860,40	19,969
860,58	19,253
860,76	15,678
860,94	12,824
861,12	20,255
861,30	17,647
861,48	17,280
861,66	16,642
861,84	19,413
862,01	21,524
862,19	21,274
862,37	16,035
862,55	14,763
862,73	14,674
862,91	17,013
863,09	15,995
863,27	7,242
863,44	16,291
863,62	16,690
863,80	10,383
863,98	17,880
864,16	6,905
864,34	16,104
864,52	16,059
864,69	13,855
864,87	19,070
865,05	9,653
865,23	12,681
865,41	14,899
865,59	19,283
865,76	13,178
865,94	14,203
866,12	16,421
866,30	12,147
866,48	14,214
866,66	17,570
866,83	13,676
867,01	16,527
867,19	11,086
867,37	15,126
867,55	15,587
867,73	13,667
867,90	11,594
868,08	14,161
868,26	9,920
868,44	11,588
868,62	14,316
868,79	8,442
868,97	17,804
869,15	12,420
869,33	8,269
869,51	17,091
869,69	8,968
869,86	9,846
870,04	10,053
870,22	10,510
870,40	11,919
870,57	16,000
870,75	11,303
870,93	15,609
871,11	12,614
871,29	13,923
871,46	9,063
871,64	9,594
871,82	10,732
872,00	11,771
872,18	12,717
872,35	13,993
872,53	15,028
872,71	6,352
872,89	10,102
873,06	14,114
873,24	12,040
873,42	9,677
873,60	7,713
873,77	9,075
873,95	8,918
874,13	8,855
874,31	8,021
874,49	12,467
874,66	11,082
874,84	6,217
875,02	12,042
875,20	10,000
875,37	7,070
875,55	11,262
875,73	7,161
875,91	11,328
876,08	8,917
876,26	7,660
876,44	8,946
876,61	8,550
876,79	10,125
876,97	9,112
877,15	14,198
877,32	8,740
877,50	10,313
877,68	9,337
877,86	9,070
878,03	8,442
878,21	8,038
878,39	5,852
878,56	8,923
878,74	6,074
878,92	7,864
879,10	7,914
879,27	8,807
879,45	10,851
879,63	6,961
879,80	7,070
879,98	6,619
880,16	6,118
880,34	4,727
880,51	11,694
880,69	7,751
880,87	2,474
881,04	6,383
881,22	8,037
881,40	5,997
881,57	5,231
881,75	8,163
881,93	5,032
882,10	7,047
882,28	5,227
882,46	7,283
882,63	8,920
882,81	7,414
882,99	5,483
883,16	7,126
883,34	6,340
883,52	3,038
883,69	9,515
883,87	8,314
884,05	5,733
884,22	6,655
884,40	7,437
884,58	5,642
884,75	3,925
884,93	6,492
885,11	5,060
885,28	5,638
885,46	4,852
885,64	5,864
885,81	7,538
885,99	5,558
886,17	5,321
886,34	7,027
886,52	3,573
886,70	4,502
886,87	5,800
887,05	4,065
887,22	5,997
887,40	7,653
887,58	6,667
887,75	6,231
887,93	7,165
888,11	4,251
888,28	4,836
888,46	3,757
888,63	6,517
888,81	6,518
888,99	3,318
889,16	3,043
889,34	4,444
889,51	6,193
889,69	4,654
889,87	4,276
890,04	3,094
890,22	4,760
890,39	1,990
890,57	6,025
890,75	7,653
890,92	3,968
891,10	6,576
891,27	4,593
891,45	5,458
891,63	4,423
891,80	3,613
891,98	5,978
892,15	5,161
892,33	3,438
892,51	3,785
892,68	4,122
892,86	4,527
893,03	4,732
893,21	3,739
893,38	4,107
893,56	4,175
893,74	3,783
893,91	6,385
894,09	6,055
894,26	4,428
894,44	2,848
894,61	4,332
894,79	4,767
894,96	5,837
895,14	5,575
895,32	3,848
895,49	4,341
895,67	3,270
895,84	4,942
896,02	4,175
896,19	2,963
896,37	5,312
896,54	4,860
896,72	2,653
896,89	4,353
897,07	4,116
897,25	4,392
897,42	2,986
897,60	4,830
897,77	6,438
897,95	5,163
898,12	3,786
898,30	4,077
898,47	4,456
898,65	5,175
898,82	4,015
899,00	4,047
899,17	6,183
899,35	4,133
899,52	4,019
899,70	3,942
899,87	3,662
900,05	5,487
900,22	4,192
900,40	2,554
900,57	5,140
900,75	3,774
900,92	2,330
901,10	3,747
901,27	3,038
901,45	5,253
901,62	4,000
901,80	4,112
901,97	3,168
902,15	6,041
902,32	4,078
902,50	3,674
902,67	3,518
902,85	3,374
903,02	4,837
903,20	2,643
903,37	4,207
903,54	4,264
903,72	3,192
903,89	4,417
904,07	3,978
904,24	4,548
904,42	2,726
904,59	1,599
904,77	3,051
904,94	3,797
905,12	2,572
905,29	3,544
905,47	5,133
905,64	4,247
905,81	4,228
905,99	2,857
906,16	2,880
906,34	3,302
906,51	3,713
906,69	1,614
906,86	3,750
907,03	3,605
907,21	2,474
907,38	2,611
907,56	2,471
907,73	4,281
907,91	3,229
908,08	3,631
908,25	2,804
908,43	3,439
908,60	2,553
908,78	4,610
908,95	3,206
909,13	4,356
909,30	2,401
909,47	3,261
909,65	4,834
909,82	3,293
910,00	2,829
910,17	2,940
910,34	3,781
910,52	2,402
910,69	3,937
910,87	3,404
911,04	3,304
911,21	3,161
911,39	3,206
911,56	3,249
911,73	3,361
911,91	4,080
912,08	3,955
912,26	1,758
912,43	2,845
912,60	3,695
912,78	2,815
912,95	3,647
913,13	3,506
913,30	3,033
913,47	4,389
913,65	1,466
913,82	3,266
913,99	2,495
914,17	3,522
914,34	3,812
914,51	4,190
914,69	2,854
914,86	3,520
915,03	4,970
915,21	2,430
915,38	2,240
915,56	3,506
915,73	2,569
915,90	3,526
916,08	3,795
916,25	1,994
916,42	2,546
916,60	3,366
916,77	2,103
916,94	2,490
917,12	3,871
917,29	3,768
917,46	3,304
917,64	2,882
917,81	2,617
917,98	1,999
918,16	3,412
918,33	2,657
918,50	3,010
918,67	2,477
918,85	2,605
919,02	2,421
919,19	3,537
919,37	2,974
919,54	2,446
919,71	3,680
919,89	2,747
920,06	2,000
920,23	2,700
920,41	2,746
920,58	3,168
920,75	3,104
920,92	2,885
921,10	1,725
921,27	1,371
921,44	3,332
921,62	2,291
921,79	2,887
921,96	2,434
922,13	3,047
922,31	1,386
922,48	2,625
922,65	2,289
922,82	2,401
923,00	3,091
923,17	2,116
923,34	2,250
923,52	1,976
923,69	2,520
923,86	1,938
924,03	2,486
924,21	1,692
924,38	3,207
924,55	3,065
924,72	3,469
924,90	2,695
925,07	2,752
925,24	2,019
925,41	1,808
925,59	1,925
925,76	2,078
925,93	2,721
926,10	2,861
926,28	1,755
926,45	3,083
926,62	2,457
926,79	2,375
926,96	2,907
927,14	2,153
927,31	1,464
927,48	1,645
927,65	3,291
927,83	1,067
928,00	1,564
928,17	2,366
928,34	2,700
928,51	2,766
928,69	0,937
928,86	2,528
929,03	2,889
929,20	1,216
929,37	2,736
929,55	2,560
929,72	1,940
929,89	2,032
930,06	2,426
930,23	2,460
930,41	2,182
930,58	2,444
930,75	2,043
930,92	2,338
931,09	2,732
931,27	2,210
931,44	1,415
931,61	2,551
931,78	2,228
931,95	1,705
932,12	2,445
932,30	1,915
932,47	2,337
932,64	2,648
932,81	2,205
932,98	1,581
933,16	2,501
933,33	2,405
933,50	1,945
933,67	3,362
933,84	1,530
934,01	1,761
934,18	2,439
934,36	1,707
934,53	1,618
934,70	1,789
934,87	2,671
935,04	2,445
935,21	1,956
935,38	2,021
935,56	1,679
935,73	1,854
935,90	1,215
936,07	1,790
936,24	2,179
936,41	1,623
936,58	0,938
936,76	1,935
936,93	1,160
937,10	1,805
937,27	2,143
937,44	1,825
937,61	2,921
937,78	2,381
937,95	1,454
938,13	1,608
938,30	2,054
938,47	1,845
938,64	2,188
938,81	1,871
938,98	2,082
939,15	2,281
939,32	2,432
939,49	2,089
939,66	2,390
939,84	2,139
940,01	1,918
940,18	2,765
940,35	1,935
940,52	1,559
940,69	3,223
940,86	1,491
941,03	1,900
941,20	2,535
941,37	1,945
941,54	0,672
941,71	1,425
941,89	2,610
942,06	2,144
942,23	2,420
942,40	2,224
942,57	2,224
942,74	2,354
942,91	1,406
943,08	3,036
943,25	2,241
943,42	2,375
943,59	2,255
943,76	3,122
943,93	2,752
944,10	1,715
944,27	1,881
944,44	2,019
944,61	1,704
944,79	2,573
944,96	3,249
945,13	2,557
945,30	1,484
945,47	2,548
945,64	3,160
945,81	3,910
945,98	2,861
946,15	3,330
946,32	2,281
946,49	4,034
946,66	3,103
946,83	2,530
947,00	2,246
947,17	2,523
947,34	2,881
947,51	2,519
947,68	3,533
947,85	2,523
948,02	2,885
948,19	4,715
948,36	3,385
948,53	3,450
948,70	3,922
948,87	3,881
949,04	2,445
949,21	2,481
949,38	3,176
949,55	4,028
949,72	2,952
949,89	2,723
950,06	2,358
950,23	4,060
950,40	3,267
950,57	2,270
950,74	3,938
950,91	3,025
951,08	2,621
951,25	3,830
951,42	3,999
951,59	3,097
951,76	4,140
951,93	4,863
952,10	4,091
952,27	2,073
952,44	3,965
952,61	3,454
952,77	3,792
952,94	3,017
953,11	5,493
953,28	4,328
953,45	5,409
953,62	5,687
953,79	4,639
953,96	4,813
954,13	3,673
954,30	4,642
954,47	5,356
954,64	5,535
954,81	6,011
954,98	5,859
955,15	6,764
955,32	7,207
955,49	4,711
955,65	6,824
955,82	6,663
955,99	4,813
956,16	7,227
956,33	5,509
956,50	6,012
956,67	6,583
956,84	7,185
957,01	6,240
957,18	8,172
957,35	6,599
957,52	10,403
957,68	8,333
957,85	8,000
958,02	7,149
958,19	10,357
958,36	12,943
958,53	12,995
958,70	9,321
958,87	10,176
959,04	13,869
959,21	11,818
959,37	12,771
959,54	13,230
959,71	12,727
959,88	13,392
960,05	17,108
960,22	12,426
960,39	9,200
960,56	10,380
960,72	15,558
960,89	14,829
961,06	12,739
961,23	21,252
961,40	15,007
961,57	16,405
961,74	14,082
961,90	14,375
962,07	20,852
962,24	21,138
962,41	25,628
962,58	18,761
962,75	18,761
962,92	20,748
963,08	26,364
963,25	20,721
963,42	16,667
963,59	25,207
963,76	33,258
963,93	33,638
964,10	31,263
964,26	26,316
964,43	27,907
964,60	34,456
964,77	33,735
964,94	19,602
965,10	43,452
965,27	26,371
965,44	21,558
965,61	39,394
965,78	36,102
965,95	37,725
966,11	32,508
966,28	46,840
966,45	38,941
966,62	47,077
966,79	55,918
966,95	35,821
967,12	37,855
967,29	34,028
967,46	54,167
967,63	40,377
967,79	47,297
967,96	41,126
968,13	33,500
968,30	55,645
968,47	47,079
968,63	62,162
968,80	57,339
968,97	45,192
969,14	58,140
969,31	66,667
969,47	52,353
969,64	66,162
969,81	46,632
969,98	65,385
970,14	74,233
970,31	86,164
970,48	43,333
970,65	72,781
970,81	71,233
970,98	86,131
971,15	82,653
971,32	94,531
971,48	94,558
971,65	87,692
971,82	78,431
971,99	68,966
972,15	99,296
972,32	110,811
972,49	127,273
972,66	182,727
972,82	88,372
972,99	105,691
973,16	105,747
973,33	75,893
973,49	110,526
973,66	117,204
973,83	109,709
974,00	150,000
974,16	150,000
974,33	120,175
974,50	103,158
974,67	149,474
974,83	115,476
975,00	127,368
975,17	117,582
975,33	121,348
975,50	152,239
975,67	255,102
975,84	211,940
976,00	131,461
976,17	226,230
976,34	117,000
976,50	113,483
976,67	130,097
976,84	2800,000
977,00	206,122
977,17	275,556
977,34	129,670
977,50	161,194
977,67	260,714
977,84	201,613
978,01	257,447
978,17	500,000
978,34	275,000
978,51	255,882
978,67	160,526
978,84	116,406
979,01	310,811
979,17	179,487
979,34	110,274
979,51	208,163
979,67	207,407
979,84	285,714
980,01	237,778
980,17	222,535
980,34	425,926
980,51	147,826
980,67	123,529
980,84	483,333
981,01	520,000
981,17	480,000
981,34	1477,778
981,50	238,235
981,67	255,932
981,84	5950,000
982,00	513,333
982,17	195,238
982,34	166,667
982,50	893,333
982,67	164,583
982,84	2260,000
983,00	1333,333
983,17	222,388
983,33	191,379
983,50	2440,000
983,67	-334,483
983,83	360,606
984,00	-1728,571
984,17	677,778
984,33	-5300,000
984,50	482,857
984,66	260,870
984,83	181,818
985,00	-433,333
985,16	493,103
985,33	647,059
985,49	666,667
985,66	405,882
985,83	317,391
985,99	361,538
986,16	-3325,000
986,32	714,286
986,49	10300,000
986,66	418,182
986,82	683,333
986,99	332,075
987,15	-310,526
987,32	-160,714
987,49	308,000
987,65	5550,000
987,82	395,833
987,98	289,796
988,15	463,333
988,31	1350,000
988,48	-1716,667
988,65	326,190
988,81	358,333
988,98	365,854
989,14	392,857
989,31	542,857
989,47	438,235
989,64	-538,462
989,80	781,250
989,97	408,108
990,14	-241,304
990,30	-563,636
990,47	365,306
990,63	402,778
990,80	306,000
990,96	-575,000
991,13	512,500
991,29	503,448
991,46	0,000
991,62	-523,077
991,79	1116,667
991,95	10600,000
992,12	-900,000
992,29	-643,750
992,45	180,000
992,62	320,930
992,78	359,091
992,95	-620,000
993,11	446,429
993,28	1620,000
993,44	-990,000
993,61	-993,750
993,77	-2875,000
993,94	-5033,333
994,10	-117,333
994,27	710,526
994,43	290,698
994,60	0,000
994,76	2925,000
994,93	540,000
995,09	-705,882
995,26	1700,000
995,42	264,706
995,59	680,952
995,75	707,692
995,92	2157,143
996,08	327,778
996,25	-1562,500
996,41	-6100,000
996,58	1206,667
996,74	318,182
996,91	489,655
997,07	0,000
997,23	14700,000
997,40	-13600,000
997,56	-900,000
997,73	-1512,500
997,89	428,947
998,06	853,846
998,22	-711,111
998,39	616,000
998,55	1466,667
998,72	-1362,500
998,88	-406,667
999,05	-134,615
999,21	276,190
999,37	-773,333
999,54	-875,000
999,70	-286,667
999,87	800,000
1000,03	307,692
1000,20	250,000
1000,36	0,000
1000,52	429,167
1000,69	-623,810
1000,85	-820,000
1001,02	-533,333
1001,18	3000,000
1001,35	753,846
1001,51	794,118
1001,67	-1000,000
1001,84	-3000,000
1002,00	332,432
1002,17	700,000
1002,33	-2975,000
1002,50	585,714
1002,66	-969,231
1002,82	355,000
1002,99	1164,286
1003,15	-1671,429
1003,32	-1327,273
1003,48	325,000
1003,64	860,000
1003,81	481,481
1003,97	-5850,000
1004,14	954,545
1004,30	380,000
1004,46	-760,000
1004,63	1028,571
1004,79	327,778
1004,95	1126,667
1005,12	6000,000
1005,28	486,207
1005,45	427,027
1005,61	382,759
1005,77	-254,167
1005,94	-419,048
1006,10	-5100,000
1006,26	961,538
1006,43	-423,077
1006,59	-1227,273
1006,76	1150,000
1006,92	1088,889
1007,08	13600,000
1007,25	-196,296
1007,41	555,172
1007,57	5150,000
1007,74	1040,000
1007,90	-503,448
1008,06	336,957
1008,23	929,412
1008,39	-681,250
1008,55	-326,923
1008,72	-1057,143
1008,88	0,000
1009,04	387,805
1009,21	-336,842
1009,37	-575,000
1009,53	328,571
1009,70	2366,667
1009,86	-628,571
1010,02	3600,000
1010,19	1045,455
1010,35	310,294
1010,51	-6300,000
1010,68	-1487,500
1010,84	-288,636
1011,00	593,750
1011,17	-422,727
1011,33	0,000
1011,49	-753,333
1011,66	650,000
1011,82	483,871
1011,98	907,143
1012,14	-500,000
1012,31	328,205
1012,47	0,000
1012,63	1983,333
1012,80	1135,714
1012,96	-743,750
1013,12	-1950,000
1013,29	750,000
1013,45	402,439
1013,61	5633,333
1013,77	-158,929
1013,94	2620,000
1014,10	242,373
1014,26	-2900,000
1014,43	-360,000
1014,59	620,000
1014,75	-466,667
1014,91	-906,667
1015,08	433,333
1015,24	9300,000
1015,40	811,765
1015,56	-11800,000
1015,73	283,333
1015,89	745,455
1016,05	2975,000
1016,21	-1062,500
1016,38	868,421
1016,54	923,077
1016,70	-3700,000
1016,86	396,875
1017,03	906,250
1017,19	-823,077
1017,35	-935,294
1017,51	-2520,000
1017,68	-990,000
1017,84	-1542,857
1018,00	328,571
1018,16	342,308
1018,33	-1171,429
1018,49	-1083,333
1018,65	-305,405
1018,81	266,667
1018,97	-1657,143
1019,14	-4433,333
1019,30	-356,410
1019,46	0,000
1019,62	-735,294
1019,79	-4400,000
1019,95	1258,333
1020,11	7600,000
1020,27	-318,519
1020,43	-442,308
1020,60	2033,333
1020,76	694,444
1020,92	646,667
1021,08	830,000
1021,24	1010,000
1021,41	1211,111
1021,57	1750,000
1021,73	892,308
1021,89	2300,000
1022,05	-489,286
1022,21	810,000
1022,38	-591,667
1022,54	-2466,667
1022,70	360,000
1022,86	-1575,000
1023,02	504,167
1023,19	2260,000
1023,35	4633,333
1023,51	466,667
1023,67	455,556
1023,83	-500,000
1023,99	247,368
1024,16	-403,846
1024,32	-1400,000
1024,48	-1350,000
1024,64	273,810
1024,80	430,435
1024,96	384,615
1025,12	614,286
1025,29	509,524
1025,45	421,053
1025,61	744,444
1025,77	-2320,000
1025,93	-6300,000
1026,09	-1614,286
1026,26	900,000
1026,42	550,000
1026,58	448,485
1026,74	1766,667
1026,90	388,000
1027,06	350,000
1027,22	1014,286
1027,38	334,615
1027,55	4100,000
1027,71	1366,667
1027,87	-316,000
1028,03	1120,000
1028,19	365,625
1028,35	610,000
1028,51	1740,000
1028,67	1225,000
1028,83	-2625,000
1029,00	-207,143
1029,16	1100,000
1029,32	-407,143
1029,48	226,667
1029,64	338,889
1029,80	5900,000
1029,96	820,000
1030,12	534,783
1030,28	-4033,333
1030,44	-846,154
1030,61	-595,833
1030,77	-280,000
1030,93	-960,000
1031,09	2283,333
1031,25	-10200,000
1031,41	-280,000
1031,57	430,769
1031,73	837,500
1031,89	-1245,455
1032,05	-396,296
1032,21	1054,545
1032,37	-185,185
1032,53	-857,143
1032,69	-362,500
1032,86	477,778
1033,02	-230,000
1033,18	-556,250
1033,34	657,895
1033,50	-6200,000
1033,66	-202,439
1033,82	465,217
1033,98	-359,259
1034,14	175,641
1034,30	377,419
1034,46	-4066,667
1034,62	570,000
1034,78	-614,286
1034,94	334,211
1035,10	-638,462
1035,26	-306,977
1035,42	-355,172
1035,58	-611,111
1035,74	791,667
1035,90	-592,308
1036,06	-1433,333
1036,22	1233,333
1036,38	-788,235
1036,54	-500,000
1036,70	-284,848
1036,86	10900,000
1037,02	700,000
1037,18	821,053
1037,34	171,429
1037,50	-229,268
1037,66	-547,059
1037,82	3120,000
1037,98	-288,889
1038,14	-456,000
1038,30	-1500,000
1038,46	-614,286
1038,62	452,174
1038,78	-3500,000
1038,94	-373,684
1039,10	590,909
1039,26	437,037
1039,42	-1008,333
1039,58	1642,857
1039,74	-621,053
1039,90	306,250
1040,06	-403,846
>>>>>End Processed Spectral Data<<<<<
