SpectraSuite Data File
++++++++++++++++++++++++++++++++++++
Date: Wed Feb 01 16:23:33 EET 2017
User: optolab
Dark Spectrum Present: Yes
Reference Spectrum Present: Yes
Number of Sampled Component Spectra: 1
Spectrometers: USB4C02475
Integration Time (usec): 100000 (USB4C02475)
Spectra Averaged: 1 (USB4C02475)
Boxcar Smoothing: 0 (USB4C02475)
Correct for Electrical Dark: No (USB4C02475)
Strobe/Lamp Enabled: No (USB4C02475)
Correct for Detector Non-linearity: No (USB4C02475)
Correct for Stray Light: No (USB4C02475)
Number of Pixels in Processed Spectrum: 3648
>>>>>Begin Processed Spectral Data<<<<<
344,91	2800,000
345,13	2800,000
345,35	2800,000
345,57	0,000
345,79	431,579
346,00	-1677,778
346,22	-2257,143
346,44	423,529
346,66	-550,000
346,87	-10900,000
347,09	390,909
347,31	-500,000
347,53	-382,051
347,74	240,000
347,96	618,182
348,18	947,368
348,40	358,065
348,61	1129,412
348,83	347,619
349,05	327,451
349,27	-4000,000
349,48	665,385
349,70	-420,690
349,92	425,806
350,14	192,453
350,35	324,000
350,57	3200,000
350,79	440,000
351,01	-866,667
351,22	270,370
351,44	753,846
351,66	-456,000
351,87	-604,762
352,09	219,231
352,31	270,492
352,53	229,688
352,74	411,111
352,96	251,948
353,18	815,789
353,40	520,000
353,61	364,444
353,83	252,941
354,05	836,364
354,26	1166,667
354,48	248,000
354,70	409,091
354,92	-244,828
355,13	212,121
355,35	275,000
355,57	525,000
355,78	214,458
356,00	-3000,000
356,22	426,923
356,44	5650,000
356,65	381,818
356,87	453,846
357,09	679,167
357,30	293,333
357,52	287,931
357,74	805,000
357,95	164,103
358,17	242,623
358,39	233,871
358,60	424,324
358,82	429,167
359,04	337,037
359,26	400,000
359,47	7300,000
359,69	377,500
359,91	312,121
360,12	538,095
360,34	691,667
360,56	-38,889
360,77	2475,000
360,99	652,381
361,21	324,000
361,42	5250,000
361,64	263,265
361,86	273,846
362,07	-432,258
362,29	169,333
362,51	-594,118
362,72	616,000
362,94	302,941
363,16	162,791
363,37	-1221,429
363,59	496,154
363,81	359,091
364,02	716,667
364,24	691,667
364,46	2933,333
364,67	936,364
364,89	2100,000
365,11	192,857
365,32	324,138
365,54	336,111
365,76	334,694
365,97	385,294
366,19	210,345
366,41	563,636
366,62	485,185
366,84	174,419
367,05	320,408
367,27	1483,333
367,49	-715,385
367,70	670,588
367,92	222,951
368,14	275,000
368,35	-8200,000
368,57	608,000
368,79	441,379
369,00	282,609
369,22	-1537,500
369,43	227,059
369,65	264,516
369,87	408,108
370,08	167,470
370,30	214,286
370,51	222,951
370,73	302,222
370,95	204,839
371,16	200,000
371,38	403,333
371,60	1412,500
371,81	181,250
372,03	966,667
372,24	423,333
372,46	220,755
372,68	174,286
372,89	390,909
373,11	357,692
373,32	393,182
373,54	-1038,462
373,76	1046,154
373,97	726,667
374,19	727,273
374,40	265,625
374,62	-2666,667
374,84	4275,000
375,05	439,286
375,27	356,000
375,48	-8800,000
375,70	198,667
375,92	235,714
376,13	306,250
376,35	242,466
376,56	1093,750
376,78	247,222
376,99	514,286
377,21	293,750
377,43	230,303
377,64	204,348
377,86	396,552
378,07	274,359
378,29	-1475,000
378,51	454,839
378,72	260,417
378,94	-1255,556
379,15	333,333
379,37	888,235
379,58	201,538
379,80	633,333
380,01	900,000
380,23	362,745
380,45	1620,000
380,66	3966,667
380,88	288,636
381,09	224,286
381,31	158,889
381,52	231,373
381,74	1322,222
381,95	718,182
382,17	515,385
382,39	623,810
382,60	238,776
382,82	371,795
383,03	271,154
383,25	474,194
383,46	320,455
383,68	444,444
383,89	500,000
384,11	474,194
384,32	-3333,333
384,54	572,222
384,76	-4800,000
384,97	293,939
385,19	424,138
385,40	339,216
385,62	229,825
385,83	261,905
386,05	282,353
386,26	312,000
386,48	158,621
386,69	275,000
386,91	360,000
387,12	271,186
387,34	201,724
387,55	282,258
387,77	406,250
387,98	415,385
388,20	181,522
388,41	370,588
388,63	9000,000
388,84	201,639
389,06	321,429
389,27	600,000
389,49	408,333
389,70	255,102
389,92	320,000
390,13	226,531
390,35	278,431
390,56	298,148
390,78	492,593
390,99	880,000
391,21	600,000
391,42	237,778
391,64	329,268
391,85	182,759
392,07	202,273
392,28	152,000
392,50	233,333
392,71	-812,500
392,93	253,846
393,14	433,333
393,36	216,327
393,57	121,805
393,79	1244,444
394,00	238,298
394,22	156,164
394,43	232,530
394,65	302,326
394,86	1725,000
395,08	480,952
395,29	100,000
395,50	546,154
395,72	800,000
395,93	500,000
396,15	128,169
396,36	245,588
396,58	248,333
396,79	150,000
397,01	264,000
397,22	294,444
397,44	190,909
397,65	207,018
397,87	321,429
398,08	316,327
398,29	478,125
398,51	219,643
398,72	300,000
398,94	140,000
399,15	314,286
399,37	175,439
399,58	191,209
399,80	422,727
400,01	166,667
400,22	309,524
400,44	214,815
400,65	435,714
400,87	217,647
401,08	188,571
401,30	295,652
401,51	257,895
401,72	315,385
401,94	173,418
402,15	505,000
402,37	156,303
402,58	611,111
402,80	260,000
403,01	180,282
403,22	972,727
403,44	224,638
403,65	153,571
403,87	258,571
404,08	382,051
404,30	149,412
404,51	-2466,667
404,72	182,857
404,94	145,098
405,15	244,000
405,37	250,633
405,58	157,647
405,79	163,415
406,01	356,098
406,22	191,379
406,44	274,468
406,65	261,404
406,86	158,333
407,08	143,038
407,29	146,602
407,51	140,244
407,72	147,222
407,93	152,174
408,15	123,077
408,36	209,302
408,58	130,928
408,79	84,167
409,00	137,500
409,22	160,317
409,43	144,304
409,64	102,484
409,86	98,742
410,07	90,000
410,29	113,433
410,50	119,858
410,71	112,500
410,93	82,803
411,14	110,853
411,35	97,619
411,57	103,289
411,78	95,313
412,00	113,376
412,21	102,581
412,42	104,762
412,64	92,275
412,85	97,938
413,06	94,512
413,28	72,973
413,49	82,464
413,70	75,725
413,92	74,704
414,13	66,805
414,34	68,966
414,56	68,881
414,77	85,232
414,98	68,121
415,20	75,087
415,41	60,623
415,63	58,706
415,84	70,278
416,05	63,462
416,27	60,465
416,48	67,978
416,69	53,097
416,91	57,568
417,12	54,545
417,33	62,737
417,55	49,899
417,76	59,343
417,97	48,133
418,19	50,696
418,40	46,170
418,61	40,185
418,83	41,818
419,04	35,489
419,25	35,514
419,46	36,992
419,68	32,857
419,89	33,681
420,10	35,646
420,32	32,752
420,53	34,094
420,74	32,402
420,96	33,500
421,17	31,524
421,38	33,624
421,60	36,534
421,81	39,180
422,02	35,946
422,23	34,648
422,45	40,570
422,66	37,688
422,87	37,663
423,09	35,266
423,30	36,109
423,51	36,772
423,73	35,484
423,94	37,745
424,15	34,354
424,36	33,896
424,58	33,250
424,79	35,978
425,00	34,365
425,22	33,554
425,43	33,575
425,64	36,183
425,85	34,766
426,07	32,919
426,28	32,476
426,49	33,843
426,71	28,539
426,92	26,372
427,13	29,846
427,34	29,907
427,56	31,216
427,77	28,743
427,98	28,571
428,19	26,561
428,41	29,547
428,62	26,866
428,83	26,746
429,04	28,331
429,26	27,037
429,47	26,077
429,68	25,054
429,89	24,905
430,11	21,754
430,32	22,776
430,53	21,429
430,74	19,687
430,96	18,081
431,17	17,077
431,38	17,158
431,59	16,702
431,81	15,705
432,02	15,035
432,23	15,328
432,44	14,817
432,66	14,775
432,87	15,493
433,08	15,677
433,29	14,810
433,51	13,186
433,72	15,403
433,93	14,122
434,14	15,475
434,35	13,703
434,57	12,567
434,78	11,742
434,99	11,535
435,20	9,726
435,42	9,285
435,63	8,960
435,84	7,196
436,05	7,242
436,26	6,340
436,48	5,419
436,69	4,601
436,90	4,633
437,11	4,034
437,32	4,230
437,54	3,913
437,75	3,329
437,96	4,091
438,17	2,526
438,38	3,367
438,60	2,875
438,81	2,655
439,02	2,979
439,23	2,280
439,44	2,110
439,66	2,556
439,87	2,288
440,08	1,908
440,29	1,624
440,50	2,033
440,72	1,308
440,93	1,888
441,14	1,345
441,35	1,512
441,56	1,101
441,77	1,186
441,99	1,091
442,20	0,925
442,41	0,882
442,62	0,635
442,83	0,788
443,04	0,874
443,26	0,721
443,47	1,159
443,68	0,831
443,89	0,803
444,10	0,504
444,31	0,642
444,53	0,723
444,74	0,437
444,95	0,657
445,16	0,706
445,37	0,828
445,58	0,754
445,80	0,775
446,01	0,842
446,22	0,658
446,43	0,772
446,64	0,764
446,85	0,654
447,06	0,801
447,28	0,487
447,49	0,641
447,70	0,834
447,91	0,658
448,12	0,674
448,33	0,746
448,54	0,446
448,76	0,837
448,97	0,700
449,18	0,660
449,39	0,816
449,60	0,703
449,81	0,783
450,02	0,785
450,23	0,737
450,45	0,782
450,66	0,595
450,87	0,742
451,08	0,582
451,29	1,098
451,50	0,879
451,71	0,793
451,92	0,700
452,13	0,501
452,35	0,966
452,56	0,749
452,77	1,075
452,98	0,769
453,19	0,502
453,40	0,562
453,61	0,899
453,82	0,534
454,03	0,874
454,25	1,120
454,46	0,640
454,67	0,842
454,88	1,003
455,09	1,074
455,30	0,800
455,51	0,797
455,72	0,794
455,93	0,825
456,14	0,893
456,35	0,713
456,56	0,919
456,78	0,797
456,99	0,734
457,20	1,093
457,41	0,672
457,62	0,747
457,83	0,671
458,04	0,697
458,25	0,730
458,46	0,841
458,67	0,954
458,88	0,960
459,09	0,610
459,30	0,747
459,51	0,831
459,73	0,617
459,94	0,947
460,15	0,718
460,36	0,529
460,57	0,558
460,78	0,461
460,99	0,695
461,20	0,536
461,41	0,733
461,62	0,473
461,83	0,702
462,04	0,695
462,25	0,630
462,46	0,595
462,67	0,433
462,88	0,610
463,09	0,552
463,30	0,437
463,51	0,667
463,72	0,582
463,93	0,572
464,15	0,678
464,36	0,661
464,57	0,466
464,78	0,574
464,99	0,492
465,20	0,529
465,41	0,611
465,62	0,603
465,83	0,728
466,04	0,766
466,25	0,704
466,46	0,825
466,67	0,791
466,88	0,934
467,09	1,181
467,30	1,179
467,51	1,629
467,72	1,990
467,93	2,329
468,14	2,773
468,35	3,257
468,56	3,581
468,77	4,584
468,98	5,188
469,19	5,802
469,40	6,365
469,61	7,253
469,82	7,996
470,03	9,482
470,24	10,289
470,45	11,599
470,66	12,797
470,87	13,713
471,08	15,200
471,29	16,746
471,50	18,204
471,71	19,736
471,92	21,164
472,13	23,164
472,34	24,843
472,55	25,952
472,76	27,794
472,97	29,179
473,18	30,187
473,39	31,837
473,60	33,049
473,81	34,191
474,01	34,651
474,22	36,220
474,43	37,199
474,64	38,885
474,85	39,992
475,06	40,262
475,27	41,643
475,48	42,082
475,69	42,781
475,90	44,151
476,11	44,789
476,32	44,924
476,53	45,317
476,74	45,791
476,95	45,693
477,16	46,030
477,37	44,872
477,58	45,441
477,79	44,976
478,00	44,175
478,21	44,042
478,41	43,500
478,62	43,087
478,83	41,986
479,04	42,485
479,25	40,360
479,46	39,722
479,67	37,914
479,88	37,697
480,09	36,217
480,30	35,413
480,51	34,256
480,72	32,458
480,93	31,139
481,14	30,686
481,34	29,722
481,55	28,497
481,76	27,436
481,97	27,224
482,18	26,710
482,39	26,165
482,60	25,636
482,81	25,173
483,02	24,461
483,23	24,014
483,44	23,880
483,65	23,261
483,85	23,278
484,06	22,658
484,27	22,418
484,48	22,346
484,69	21,786
484,90	21,863
485,11	21,708
485,32	21,638
485,53	21,680
485,73	21,397
485,94	21,451
486,15	21,160
486,36	20,797
486,57	20,878
486,78	20,845
486,99	20,856
487,20	20,553
487,41	20,665
487,61	20,909
487,82	20,762
488,03	20,907
488,24	20,860
488,45	21,088
488,66	20,871
488,87	21,064
489,08	21,141
489,28	21,122
489,49	21,233
489,70	21,127
489,91	20,973
490,12	21,400
490,33	21,403
490,54	21,565
490,74	21,333
490,95	21,192
491,16	21,194
491,37	21,548
491,58	21,171
491,79	21,354
492,00	21,455
492,20	20,877
492,41	21,300
492,62	21,319
492,83	21,114
493,04	21,368
493,25	21,849
493,45	21,822
493,66	21,781
493,87	22,530
494,08	22,095
494,29	23,021
494,50	23,805
494,70	24,407
494,91	25,192
495,12	25,371
495,33	26,233
495,54	27,147
495,75	27,645
495,95	27,943
496,16	29,428
496,37	30,358
496,58	30,417
496,79	31,157
496,99	31,866
497,20	32,527
497,41	32,429
497,62	32,432
497,83	33,358
498,04	32,663
498,24	32,641
498,45	32,761
498,66	32,246
498,87	32,464
499,08	31,565
499,28	32,069
499,49	31,537
499,70	31,077
499,91	30,766
500,12	29,518
500,32	29,047
500,53	28,432
500,74	28,367
500,95	27,003
501,15	26,610
501,36	25,375
501,57	24,359
501,78	23,467
501,99	21,998
502,19	20,266
502,40	19,614
502,61	17,879
502,82	16,396
503,02	14,862
503,23	13,673
503,44	12,269
503,65	11,210
503,86	9,453
504,06	8,804
504,27	8,022
504,48	6,934
504,69	6,246
504,89	5,437
505,10	4,894
505,31	4,626
505,52	4,203
505,72	3,828
505,93	3,620
506,14	3,416
506,35	3,191
506,55	3,104
506,76	3,268
506,97	3,000
507,18	3,106
507,38	3,248
507,59	2,987
507,80	3,022
508,01	2,933
508,21	2,804
508,42	2,688
508,63	2,579
508,84	2,206
509,04	2,238
509,25	1,897
509,46	1,660
509,67	1,431
509,87	1,286
510,08	1,139
510,29	1,068
510,49	0,831
510,70	0,731
510,91	0,721
511,12	0,727
511,32	0,514
511,53	0,653
511,74	0,519
511,94	0,624
512,15	0,466
512,36	0,353
512,57	0,443
512,77	0,524
512,98	0,397
513,19	0,315
513,39	0,444
513,60	0,537
513,81	0,450
514,01	0,604
514,22	0,835
514,43	0,628
514,64	0,508
514,84	0,704
515,05	0,383
515,26	0,527
515,46	0,569
515,67	0,276
515,88	0,709
516,08	0,500
516,29	0,629
516,50	0,444
516,70	0,427
516,91	0,485
517,12	0,551
517,32	0,625
517,53	0,532
517,74	0,584
517,95	0,394
518,15	0,704
518,36	0,597
518,57	0,412
518,77	0,514
518,98	0,415
519,19	0,309
519,39	0,441
519,60	0,462
519,80	0,616
520,01	0,622
520,22	0,509
520,42	0,589
520,63	0,540
520,84	0,501
521,04	0,437
521,25	0,632
521,46	0,693
521,66	0,497
521,87	0,448
522,08	0,596
522,28	0,493
522,49	0,348
522,70	0,366
522,90	0,496
523,11	0,480
523,31	0,638
523,52	0,411
523,73	0,536
523,93	0,597
524,14	0,448
524,35	0,274
524,55	0,616
524,76	0,349
524,97	0,591
525,17	0,535
525,38	0,494
525,58	0,630
525,79	0,360
526,00	0,491
526,20	0,545
526,41	0,483
526,61	0,670
526,82	0,609
527,03	0,443
527,23	0,500
527,44	0,530
527,64	0,410
527,85	0,383
528,06	0,682
528,26	0,717
528,47	0,663
528,68	0,525
528,88	0,588
529,09	0,559
529,29	0,607
529,50	0,344
529,70	0,564
529,91	0,642
530,12	0,603
530,32	0,378
530,53	0,421
530,73	0,684
530,94	0,521
531,15	0,555
531,35	0,541
531,56	0,525
531,76	0,534
531,97	0,464
532,17	0,436
532,38	0,469
532,59	0,596
532,79	0,745
533,00	0,676
533,20	0,578
533,41	0,390
533,61	0,639
533,82	0,471
534,03	0,544
534,23	0,678
534,44	0,476
534,64	0,713
534,85	0,667
535,05	0,574
535,26	0,394
535,46	0,577
535,67	0,667
535,88	0,456
536,08	0,447
536,29	0,630
536,49	0,649
536,70	0,653
536,90	0,607
537,11	0,617
537,31	0,540
537,52	0,534
537,72	0,726
537,93	0,564
538,13	0,501
538,34	0,664
538,55	0,723
538,75	0,422
538,96	0,652
539,16	0,613
539,37	0,676
539,57	0,624
539,78	0,595
539,98	0,756
540,19	0,550
540,39	0,726
540,60	0,790
540,80	0,641
541,01	0,682
541,21	0,876
541,42	0,747
541,62	0,881
541,83	0,939
542,03	1,029
542,24	0,624
542,44	1,107
542,65	1,038
542,85	1,283
543,06	1,154
543,26	1,215
543,47	1,385
543,67	1,745
543,88	1,970
544,08	1,875
544,29	2,283
544,49	2,331
544,70	2,719
544,90	2,880
545,11	3,195
545,31	3,793
545,52	4,159
545,72	4,824
545,93	5,323
546,13	6,236
546,34	6,887
546,54	7,694
546,75	8,676
546,95	9,854
547,15	11,119
547,36	12,296
547,56	14,050
547,77	15,443
547,97	17,216
548,18	19,048
548,38	21,025
548,59	22,114
548,79	24,088
549,00	25,850
549,20	28,190
549,41	29,371
549,61	31,571
549,81	32,782
550,02	34,313
550,22	34,992
550,43	37,017
550,63	38,024
550,84	38,565
551,04	39,557
551,25	40,136
551,45	40,387
551,65	40,407
551,86	41,353
552,06	41,028
552,27	41,306
552,47	41,272
552,68	42,124
552,88	40,456
553,08	41,127
553,29	41,776
553,49	41,218
553,70	42,072
553,90	41,853
554,11	42,158
554,31	42,518
554,51	42,302
554,72	42,357
554,92	42,386
555,13	42,317
555,33	43,000
555,53	43,335
555,74	42,935
555,94	43,274
556,15	43,662
556,35	43,245
556,56	43,815
556,76	43,870
556,96	44,087
557,17	43,750
557,37	44,875
557,58	44,607
557,78	44,670
557,98	44,480
558,19	45,021
558,39	45,155
558,59	45,408
558,80	45,483
559,00	46,071
559,21	46,755
559,41	45,785
559,61	46,319
559,82	47,036
560,02	47,234
560,23	46,691
560,43	46,930
560,63	46,516
560,84	47,156
561,04	47,583
561,24	47,462
561,45	47,782
561,65	48,448
561,85	48,895
562,06	48,882
562,26	49,485
562,47	50,526
562,67	51,556
562,87	53,150
563,08	53,698
563,28	55,339
563,48	56,687
563,69	58,474
563,89	60,559
564,09	61,641
564,30	62,942
564,50	65,759
564,70	66,986
564,91	67,698
565,11	68,191
565,31	68,488
565,52	68,480
565,72	67,938
565,92	68,387
566,13	67,731
566,33	66,474
566,53	66,769
566,74	65,770
566,94	65,841
567,14	65,358
567,35	65,127
567,55	65,811
567,75	66,782
567,96	65,654
568,16	66,226
568,36	66,492
568,57	66,514
568,77	67,150
568,97	67,122
569,18	67,502
569,38	66,783
569,58	65,851
569,79	66,088
569,99	65,551
570,19	64,697
570,39	63,697
570,60	62,457
570,80	61,154
571,00	60,395
571,21	58,382
571,41	57,994
571,61	56,626
571,82	56,197
572,02	54,492
572,22	54,235
572,42	53,441
572,63	51,916
572,83	52,207
573,03	50,616
573,24	50,284
573,44	49,842
573,64	49,537
573,84	49,179
574,05	48,180
574,25	48,621
574,45	46,594
574,66	46,263
574,86	45,860
575,06	45,052
575,26	44,323
575,47	43,517
575,67	43,431
575,87	42,783
576,07	42,666
576,28	41,715
576,48	41,013
576,68	40,138
576,88	39,416
577,09	39,129
577,29	38,126
577,49	38,251
577,69	37,199
577,90	37,350
578,10	36,745
578,30	36,082
578,50	36,637
578,71	36,460
578,91	36,124
579,11	36,267
579,31	37,169
579,52	37,685
579,72	36,847
579,92	37,835
580,12	38,086
580,33	39,370
580,53	38,492
580,73	39,400
580,93	39,986
581,13	40,236
581,34	40,841
581,54	40,799
581,74	41,077
581,94	41,942
582,15	41,215
582,35	41,123
582,55	41,021
582,75	40,770
582,95	40,422
583,16	39,089
583,36	38,986
583,56	38,120
583,76	37,404
583,96	36,132
584,17	35,459
584,37	34,373
584,57	33,257
584,77	32,580
584,97	31,753
585,18	30,654
585,38	30,210
585,58	29,029
585,78	28,567
585,98	27,701
586,19	26,993
586,39	27,389
586,59	26,893
586,79	26,606
586,99	27,396
587,20	26,590
587,40	27,183
587,60	27,446
587,80	27,886
588,00	28,140
588,20	28,473
588,41	29,468
588,61	30,179
588,81	30,660
589,01	31,292
589,21	31,957
589,41	32,163
589,62	32,760
589,82	33,635
590,02	33,397
590,22	34,667
590,42	34,667
590,62	34,197
590,83	34,762
591,03	34,866
591,23	34,559
591,43	34,670
591,63	34,129
591,83	33,789
592,03	33,349
592,24	33,207
592,44	33,106
592,64	32,585
592,84	32,629
593,04	31,894
593,24	31,374
593,44	31,346
593,65	31,178
593,85	30,019
594,05	30,218
594,25	29,901
594,45	29,488
594,65	28,941
594,85	28,844
595,06	28,478
595,26	27,885
595,46	27,673
595,66	27,289
595,86	27,009
596,06	26,200
596,26	26,447
596,46	25,917
596,66	25,439
596,87	25,198
597,07	24,469
597,27	24,563
597,47	24,465
597,67	23,738
597,87	23,039
598,07	22,405
598,27	22,162
598,47	21,691
598,67	20,936
598,88	20,577
599,08	19,360
599,28	18,915
599,48	18,190
599,68	16,947
599,88	15,976
600,08	15,295
600,28	14,562
600,48	13,539
600,68	12,245
600,88	11,737
601,09	10,665
601,29	10,090
601,49	9,316
601,69	8,898
601,89	8,033
602,09	7,442
602,29	7,180
602,49	6,643
602,69	6,192
602,89	5,921
603,09	5,277
603,29	5,066
603,49	4,496
603,69	4,433
603,90	4,001
604,10	3,602
604,30	3,310
604,50	2,806
604,70	2,836
604,90	2,515
605,10	2,272
605,30	1,952
605,50	1,737
605,70	1,442
605,90	1,324
606,10	1,099
606,30	1,237
606,50	1,203
606,70	0,767
606,90	0,898
607,10	0,752
607,30	0,634
607,50	0,759
607,70	0,731
607,90	0,636
608,10	0,318
608,30	0,450
608,50	0,656
608,70	0,425
608,90	0,406
609,11	0,735
609,31	0,462
609,51	0,511
609,71	0,567
609,91	0,463
610,11	0,471
610,31	0,345
610,51	0,414
610,71	0,396
610,91	0,307
611,11	0,576
611,31	0,400
611,51	0,389
611,71	0,386
611,91	0,435
612,11	0,389
612,31	0,394
612,51	0,352
612,71	0,293
612,91	0,229
613,11	0,557
613,31	0,413
613,51	0,533
613,71	0,370
613,91	0,572
614,11	0,346
614,31	0,494
614,50	0,486
614,70	0,566
614,90	0,391
615,10	0,340
615,30	0,314
615,50	0,419
615,70	0,347
615,90	0,248
616,10	0,594
616,30	0,434
616,50	0,417
616,70	0,468
616,90	0,444
617,10	0,398
617,30	0,378
617,50	0,455
617,70	0,394
617,90	0,470
618,10	0,474
618,30	0,445
618,50	0,470
618,70	0,544
618,90	0,424
619,10	0,511
619,30	0,411
619,49	0,340
619,69	0,351
619,89	0,398
620,09	0,428
620,29	0,469
620,49	0,430
620,69	0,404
620,89	0,250
621,09	0,271
621,29	0,487
621,49	0,225
621,69	0,498
621,89	0,498
622,09	0,277
622,29	0,375
622,48	0,390
622,68	0,359
622,88	0,333
623,08	0,289
623,28	0,385
623,48	0,419
623,68	0,379
623,88	0,311
624,08	0,404
624,28	0,112
624,48	0,425
624,67	0,496
624,87	0,419
625,07	0,395
625,27	0,397
625,47	0,510
625,67	0,452
625,87	0,370
626,07	0,490
626,27	0,408
626,47	0,472
626,66	0,309
626,86	0,490
627,06	0,344
627,26	0,482
627,46	0,276
627,66	0,522
627,86	0,276
628,06	0,408
628,25	0,237
628,45	0,272
628,65	0,240
628,85	0,380
629,05	0,462
629,25	0,418
629,45	0,260
629,65	0,269
629,84	0,330
630,04	0,163
630,24	0,421
630,44	0,289
630,64	0,350
630,84	0,394
631,04	0,443
631,23	0,222
631,43	0,436
631,63	0,378
631,83	0,375
632,03	0,532
632,23	0,386
632,42	0,353
632,62	0,495
632,82	0,233
633,02	0,401
633,22	0,402
633,42	0,383
633,62	0,367
633,81	0,618
634,01	0,206
634,21	0,491
634,41	0,676
634,61	0,554
634,80	0,407
635,00	0,284
635,20	0,512
635,40	0,408
635,60	0,451
635,80	0,371
635,99	0,424
636,19	0,354
636,39	0,519
636,59	0,549
636,79	0,615
636,98	0,634
637,18	0,509
637,38	0,609
637,58	0,582
637,78	0,578
637,97	0,654
638,17	0,800
638,37	0,252
638,57	0,522
638,77	0,501
638,96	0,523
639,16	0,634
639,36	0,476
639,56	0,653
639,76	0,581
639,95	0,690
640,15	0,462
640,35	0,576
640,55	0,374
640,75	0,938
640,94	0,427
641,14	0,527
641,34	0,690
641,54	0,709
641,73	0,585
641,93	0,858
642,13	0,578
642,33	0,667
642,53	0,683
642,72	0,713
642,92	0,667
643,12	0,654
643,32	0,856
643,51	0,778
643,71	0,592
643,91	0,438
644,11	0,747
644,30	0,831
644,50	0,460
644,70	0,359
644,90	0,586
645,09	0,604
645,29	0,331
645,49	0,775
645,69	0,973
645,88	0,712
646,08	0,543
646,28	0,930
646,48	0,834
646,67	0,403
646,87	0,739
647,07	0,567
647,26	0,718
647,46	1,050
647,66	0,875
647,86	0,584
648,05	0,792
648,25	0,697
648,45	0,519
648,65	0,748
648,84	0,815
649,04	0,918
649,24	1,122
649,43	0,694
649,63	1,079
649,83	0,680
650,03	0,942
650,22	0,842
650,42	0,734
650,62	0,376
650,81	0,743
651,01	0,545
651,21	0,814
651,40	0,695
651,60	0,871
651,80	0,583
652,00	0,622
652,19	0,782
652,39	0,761
652,59	0,738
652,78	1,164
652,98	0,432
653,18	0,514
653,37	1,005
653,57	0,989
653,77	0,535
653,96	0,387
654,16	0,797
654,36	0,752
654,55	1,429
654,75	0,675
654,95	0,783
655,14	0,525
655,34	1,072
655,54	0,655
655,73	0,565
655,93	1,236
656,13	0,736
656,32	0,681
656,52	0,612
656,72	0,700
656,91	0,829
657,11	0,833
657,31	0,541
657,50	0,862
657,70	0,832
657,90	0,758
658,09	0,670
658,29	0,863
658,49	0,603
658,68	0,768
658,88	1,147
659,07	0,328
659,27	0,580
659,47	0,634
659,66	0,279
659,86	1,090
660,06	0,759
660,25	0,670
660,45	0,945
660,64	0,770
660,84	0,500
661,04	1,137
661,23	1,129
661,43	0,604
661,63	0,941
661,82	0,476
662,02	0,971
662,21	0,858
662,41	0,773
662,61	0,988
662,80	0,485
663,00	0,446
663,19	0,667
663,39	1,186
663,59	0,810
663,78	0,569
663,98	0,680
664,17	0,640
664,37	0,901
664,57	0,791
664,76	0,878
664,96	0,935
665,15	0,533
665,35	0,895
665,55	0,479
665,74	0,701
665,94	0,543
666,13	1,013
666,33	0,543
666,53	0,963
666,72	0,562
666,92	1,048
667,11	0,834
667,31	0,741
667,50	0,691
667,70	0,963
667,90	0,780
668,09	0,762
668,29	0,737
668,48	0,553
668,68	0,791
668,87	0,824
669,07	0,805
669,26	0,952
669,46	0,410
669,66	0,677
669,85	0,881
670,05	0,591
670,24	0,965
670,44	0,892
670,63	0,555
670,83	0,748
671,02	0,839
671,22	0,897
671,42	0,850
671,61	0,698
671,81	0,501
672,00	0,762
672,20	0,799
672,39	0,516
672,59	0,486
672,78	0,743
672,98	0,299
673,17	0,719
673,37	0,576
673,56	0,618
673,76	0,688
673,95	0,547
674,15	0,570
674,34	0,671
674,54	0,755
674,73	0,703
674,93	0,693
675,13	0,530
675,32	0,812
675,52	0,817
675,71	0,578
675,91	0,465
676,10	0,541
676,30	0,479
676,49	0,665
676,69	0,741
676,88	0,846
677,08	0,537
677,27	0,596
677,47	0,499
677,66	0,539
677,86	0,615
678,05	0,693
678,24	0,366
678,44	0,658
678,63	0,394
678,83	0,649
679,02	0,489
679,22	0,417
679,41	0,350
679,61	0,437
679,80	0,537
680,00	0,517
680,19	0,591
680,39	0,688
680,58	0,412
680,78	0,633
680,97	0,364
681,17	0,506
681,36	0,374
681,56	0,614
681,75	0,471
681,94	0,555
682,14	0,565
682,33	0,580
682,53	0,659
682,72	0,484
682,92	0,712
683,11	0,580
683,31	0,313
683,50	0,582
683,69	0,490
683,89	0,464
684,08	0,385
684,28	0,355
684,47	0,533
684,67	0,632
684,86	0,186
685,06	0,405
685,25	0,379
685,44	0,445
685,64	0,224
685,83	0,492
686,03	0,092
686,22	0,288
686,42	0,363
686,61	0,490
686,80	0,502
687,00	0,392
687,19	0,659
687,39	0,291
687,58	0,305
687,77	0,296
687,97	0,453
688,16	0,274
688,36	0,366
688,55	0,247
688,74	0,553
688,94	0,369
689,13	0,463
689,33	0,580
689,52	0,392
689,71	0,316
689,91	0,274
690,10	0,375
690,30	0,302
690,49	0,304
690,68	0,307
690,88	0,519
691,07	0,250
691,27	0,326
691,46	0,174
691,65	0,452
691,85	0,298
692,04	0,234
692,23	0,188
692,43	0,330
692,62	0,465
692,82	0,340
693,01	0,178
693,20	0,490
693,40	0,290
693,59	0,405
693,78	0,326
693,98	0,355
694,17	0,210
694,36	0,497
694,56	0,483
694,75	0,384
694,94	0,496
695,14	0,573
695,33	0,441
695,53	0,531
695,72	0,427
695,91	0,329
696,11	0,332
696,30	0,348
696,49	0,425
696,69	0,378
696,88	0,375
697,07	0,377
697,27	0,575
697,46	0,439
697,65	0,564
697,85	0,532
698,04	0,684
698,23	0,602
698,43	0,638
698,62	0,322
698,81	0,417
699,01	0,811
699,20	0,541
699,39	0,724
699,58	0,680
699,78	0,729
699,97	0,580
700,16	0,906
700,36	0,566
700,55	1,059
700,74	0,628
700,94	0,904
701,13	0,702
701,32	1,233
701,52	1,270
701,71	0,764
701,90	1,164
702,09	0,852
702,29	1,283
702,48	1,189
702,67	1,096
702,87	1,023
703,06	2,109
703,25	1,371
703,44	1,243
703,64	2,041
703,83	2,079
704,02	1,685
704,22	0,741
704,41	1,418
704,60	1,616
704,79	1,141
704,99	1,926
705,18	2,004
705,37	1,915
705,56	1,917
705,76	1,936
705,95	2,318
706,14	1,582
706,33	2,711
706,53	2,249
706,72	1,052
706,91	2,724
707,11	3,055
707,30	2,932
707,49	2,813
707,68	1,787
707,88	2,661
708,07	1,283
708,26	2,474
708,45	2,039
708,64	2,723
708,84	3,566
709,03	2,881
709,22	2,708
709,41	3,373
709,61	2,476
709,80	3,658
709,99	2,914
710,18	2,453
710,38	2,821
710,57	3,466
710,76	3,712
710,95	3,477
711,14	4,239
711,34	3,620
711,53	3,697
711,72	2,360
711,91	3,302
712,11	6,032
712,30	5,505
712,49	4,837
712,68	4,802
712,87	5,506
713,07	5,002
713,26	4,034
713,45	5,361
713,64	2,717
713,83	3,442
714,03	6,969
714,22	4,099
714,41	4,221
714,60	4,771
714,79	3,147
714,99	6,545
715,18	2,925
715,37	4,203
715,56	6,517
715,75	4,393
715,94	5,480
716,14	5,050
716,33	3,341
716,52	5,089
716,71	6,536
716,90	6,006
717,10	7,106
717,29	3,429
717,48	6,909
717,67	4,759
717,86	5,315
718,05	2,938
718,24	6,771
718,44	5,699
718,63	4,359
718,82	8,375
719,01	5,427
719,20	5,384
719,39	7,065
719,59	4,591
719,78	4,330
719,97	5,927
720,16	8,088
720,35	7,654
720,54	8,533
720,73	5,147
720,93	8,602
721,12	5,683
721,31	9,555
721,50	8,605
721,69	7,676
721,88	8,145
722,07	7,034
722,27	8,293
722,46	8,313
722,65	6,541
722,84	9,890
723,03	2,140
723,22	6,195
723,41	6,318
723,60	7,352
723,79	5,919
723,99	6,787
724,18	11,459
724,37	8,470
724,56	9,991
724,75	8,200
724,94	9,503
725,13	13,149
725,32	6,464
725,51	10,808
725,71	4,924
725,90	7,230
726,09	12,489
726,28	11,277
726,47	8,691
726,66	13,674
726,85	10,041
727,04	9,242
727,23	9,046
727,42	13,268
727,61	6,032
727,81	11,575
728,00	11,574
728,19	11,327
728,38	9,503
728,57	9,539
728,76	10,230
728,95	11,719
729,14	7,814
729,33	14,380
729,52	16,310
729,71	11,825
729,90	13,548
730,09	8,411
730,28	15,589
730,48	6,381
730,67	14,268
730,86	5,100
731,05	11,565
731,24	12,485
731,43	12,453
731,62	17,419
731,81	14,231
732,00	13,596
732,19	8,301
732,38	9,948
732,57	8,447
732,76	15,000
732,95	13,333
733,14	7,022
733,33	13,187
733,52	14,286
733,71	11,622
733,90	19,537
734,09	10,112
734,28	14,345
734,47	11,053
734,66	14,654
734,85	12,624
735,04	15,395
735,23	15,476
735,42	16,571
735,61	18,800
735,81	18,069
736,00	14,006
736,19	18,047
736,38	12,296
736,57	16,017
736,76	12,248
736,95	15,455
737,14	14,894
737,33	12,199
737,52	19,608
737,71	12,179
737,90	16,944
738,09	19,632
738,28	18,820
738,47	16,340
738,66	12,812
738,85	9,622
739,04	21,222
739,22	15,541
739,41	20,161
739,60	12,876
739,79	19,007
739,98	11,797
740,17	18,197
740,36	23,929
740,55	21,869
740,74	21,391
740,93	20,732
741,12	23,346
741,31	15,257
741,50	17,891
741,69	16,667
741,88	12,000
742,07	18,592
742,26	12,172
742,45	17,787
742,64	21,583
742,83	21,277
743,02	18,378
743,21	24,950
743,40	19,578
743,59	21,107
743,78	22,707
743,97	17,857
744,16	16,851
744,34	24,016
744,53	15,574
744,72	27,027
744,91	10,526
745,10	23,256
745,29	15,366
745,48	16,438
745,67	24,644
745,86	11,972
746,05	24,658
746,24	27,887
746,43	21,749
746,62	21,198
746,81	24,658
747,00	17,119
747,18	30,989
747,37	24,520
747,56	19,551
747,75	22,757
747,94	28,228
748,13	19,406
748,32	22,009
748,51	25,959
748,70	24,700
748,89	19,807
749,08	25,429
749,26	27,208
749,45	31,765
749,64	16,377
749,83	21,374
750,02	27,072
750,21	15,543
750,40	21,875
750,59	31,132
750,78	30,473
750,96	19,553
751,15	25,956
751,34	34,817
751,53	29,557
751,72	26,685
751,91	14,247
752,10	23,148
752,29	37,571
752,47	28,090
752,66	35,775
752,85	27,864
753,04	38,170
753,23	0,662
753,42	39,514
753,61	26,797
753,80	33,062
753,98	29,474
754,17	19,939
754,36	30,508
754,55	31,348
754,74	47,399
754,93	28,530
755,12	38,400
755,30	30,471
755,49	32,722
755,68	29,107
755,87	27,327
756,06	32,961
756,25	33,016
756,43	23,103
756,62	27,596
756,81	31,023
757,00	32,464
757,19	28,082
757,38	27,129
757,56	38,710
757,75	32,353
757,94	25,552
758,13	39,610
758,32	36,364
758,51	36,397
758,69	10,800
758,88	33,634
759,07	29,391
759,26	29,302
759,45	20,961
759,63	44,981
759,82	36,364
760,01	27,090
760,20	43,969
760,39	51,119
760,57	38,843
760,76	29,279
760,95	29,167
761,14	27,755
761,33	38,750
761,51	38,351
761,70	43,793
761,89	31,557
762,08	36,279
762,27	26,007
762,45	36,187
762,64	32,234
762,83	42,478
763,02	36,744
763,21	37,500
763,39	46,939
763,58	27,547
763,77	34,749
763,96	67,470
764,14	48,750
764,33	39,927
764,52	74,678
764,71	30,045
764,89	40,196
765,08	53,448
765,27	53,903
765,46	48,913
765,65	46,288
765,83	57,576
766,02	26,809
766,21	58,011
766,40	57,143
766,58	48,780
766,77	54,726
766,96	53,636
767,15	74,396
767,33	30,994
767,52	60,366
767,71	61,304
767,90	49,438
768,08	46,304
768,27	59,000
768,46	62,109
768,64	71,503
768,83	37,500
769,02	34,000
769,21	34,498
769,39	58,140
769,58	50,289
769,77	57,088
769,96	49,215
770,14	46,259
770,33	46,262
770,52	45,503
770,70	48,000
770,89	60,403
771,08	44,492
771,27	72,680
771,45	55,702
771,64	79,167
771,83	53,271
772,01	28,916
772,20	69,347
772,39	18,000
772,57	51,938
772,76	60,000
772,95	52,482
773,14	72,043
773,32	58,065
773,51	67,164
773,70	61,250
773,88	80,874
774,07	45,026
774,26	61,702
774,44	34,146
774,63	69,036
774,82	59,146
775,00	34,000
775,19	56,000
775,38	69,942
775,56	43,229
775,75	68,072
775,94	73,418
776,12	34,807
776,31	64,706
776,50	71,591
776,68	53,684
776,87	64,205
777,06	76,552
777,24	88,889
777,43	63,462
777,62	83,088
777,80	88,514
777,99	58,286
778,18	61,881
778,36	68,800
778,55	81,818
778,74	69,444
778,92	66,272
779,11	54,167
779,29	52,830
779,48	68,707
779,67	76,744
779,85	100,000
780,04	61,081
780,23	74,820
780,41	73,437
780,60	46,842
780,79	71,751
780,97	73,684
781,16	77,576
781,34	105,155
781,53	99,145
781,72	77,372
781,90	27,344
782,09	69,032
782,28	107,299
782,46	65,926
782,65	61,429
782,83	83,146
783,02	100,000
783,21	78,667
783,39	112,174
783,58	68,047
783,76	67,598
783,95	86,667
784,14	85,430
784,32	87,919
784,51	107,759
784,69	66,949
784,88	92,793
785,06	68,908
785,25	100,000
785,44	84,892
785,62	96,429
785,81	147,887
785,99	105,755
786,18	57,432
786,37	87,407
786,55	61,468
786,74	54,605
786,92	88,281
787,11	80,833
787,29	64,925
787,48	58,000
787,67	110,843
787,85	67,241
788,04	72,772
788,22	100,820
788,41	82,353
788,59	107,339
788,78	84,848
788,96	69,811
789,15	178,947
789,34	104,545
789,52	85,841
789,71	63,566
789,89	206,383
790,08	115,068
790,26	61,429
790,45	75,000
790,63	80,556
790,82	104,848
791,00	75,694
791,19	105,376
791,38	96,528
791,56	105,263
791,75	114,679
791,93	58,621
792,12	77,515
792,30	117,600
792,49	86,555
792,67	110,448
792,86	81,395
793,04	80,374
793,23	72,500
793,41	174,684
793,60	115,152
793,78	82,456
793,97	106,410
794,15	99,091
794,34	78,022
794,52	112,987
794,71	169,136
794,89	91,111
795,08	84,466
795,26	100,000
795,45	138,806
795,63	116,667
795,82	109,346
796,00	80,734
796,19	107,500
796,37	110,219
796,56	149,462
796,74	111,504
796,93	79,775
797,11	117,722
797,30	78,333
797,48	69,655
797,67	117,500
797,85	101,020
798,04	114,583
798,22	79,365
798,41	159,804
798,59	116,842
798,77	107,692
798,96	104,301
799,14	125,000
799,33	107,634
799,51	73,077
799,70	91,946
799,88	113,636
800,07	88,816
800,25	72,414
800,44	69,697
800,62	84,706
800,80	142,029
800,99	142,857
801,17	108,621
801,36	96,552
801,54	120,833
801,73	124,242
801,91	95,082
802,10	73,810
802,28	105,607
802,46	130,864
802,65	145,977
802,83	128,090
803,02	135,789
803,20	98,438
803,39	127,586
803,57	124,096
803,75	62,162
803,94	87,395
804,12	55,833
804,31	93,805
804,49	99,038
804,67	100,800
804,86	67,857
805,04	79,054
805,23	93,103
805,41	125,410
805,59	111,475
805,78	84,848
805,96	97,436
806,15	115,625
806,33	115,966
806,51	69,912
806,70	165,000
806,88	113,821
807,07	73,810
807,25	76,730
807,43	91,391
807,62	71,545
807,80	138,710
807,99	83,333
808,17	85,816
808,35	77,193
808,54	125,806
808,72	88,800
808,90	113,158
809,09	85,833
809,27	85,586
809,46	133,036
809,64	81,373
809,82	94,253
810,01	102,273
810,19	96,000
810,37	87,692
810,56	146,341
810,74	74,172
810,92	94,697
811,11	170,588
811,29	98,582
811,48	108,081
811,66	98,450
811,84	110,092
812,03	76,364
812,21	111,538
812,39	107,627
812,58	108,824
812,76	89,720
812,94	118,667
813,13	83,333
813,31	79,167
813,49	132,609
813,68	81,739
813,86	126,531
814,04	104,854
814,23	165,657
814,41	64,706
814,59	95,480
814,78	85,294
814,96	77,477
815,14	102,222
815,33	87,681
815,51	91,111
815,69	87,654
815,87	100,870
816,06	79,375
816,24	93,377
816,42	66,026
816,61	93,220
816,79	160,241
816,97	95,495
817,16	79,355
817,34	88,966
817,52	88,966
817,70	115,079
817,89	83,471
818,07	73,276
818,25	106,306
818,44	81,977
818,62	105,172
818,80	108,392
818,98	89,524
819,17	78,462
819,35	87,059
819,53	80,198
819,72	78,488
819,90	95,210
820,08	48,701
820,26	111,404
820,45	89,759
820,63	58,333
820,81	88,591
820,99	84,962
821,18	57,037
821,36	85,714
821,54	83,721
821,73	82,703
821,91	67,021
822,09	75,882
822,27	59,391
822,46	86,875
822,64	90,066
822,82	80,976
823,00	57,658
823,19	87,121
823,37	83,571
823,55	80,000
823,73	92,667
823,91	66,298
824,10	73,184
824,28	72,593
824,46	54,070
824,64	75,000
824,83	78,862
825,01	80,435
825,19	81,143
825,37	52,604
825,56	74,375
825,74	77,619
825,92	84,270
826,10	89,441
826,28	81,208
826,47	67,480
826,65	45,946
826,83	50,538
827,01	79,545
827,19	80,380
827,38	77,202
827,56	78,365
827,74	70,325
827,92	75,122
828,10	73,370
828,29	67,143
828,47	63,596
828,65	40,000
828,83	58,586
829,01	52,000
829,20	63,291
829,38	56,432
829,56	63,563
829,74	78,788
829,92	51,546
830,10	75,225
830,29	65,405
830,47	60,938
830,65	55,804
830,83	63,429
831,01	64,167
831,20	48,020
831,38	53,659
831,56	57,085
831,74	86,286
831,92	76,136
832,10	52,273
832,29	72,512
832,47	57,522
832,65	54,894
832,83	45,116
833,01	33,597
833,19	49,774
833,37	51,111
833,56	37,559
833,74	52,632
833,92	42,035
834,10	53,807
834,28	51,923
834,46	46,367
834,64	49,609
834,83	49,147
835,01	46,693
835,19	33,175
835,37	58,167
835,55	58,845
835,73	43,750
835,91	33,591
836,09	42,324
836,28	43,893
836,46	57,193
836,64	75,820
836,82	32,090
837,00	54,422
837,18	47,036
837,36	42,246
837,54	39,394
837,72	36,653
837,91	51,406
838,09	46,000
838,27	54,579
838,45	53,398
838,63	39,661
838,81	41,447
838,99	36,934
839,17	54,045
839,35	38,519
839,53	48,322
839,72	46,186
839,90	33,435
840,08	42,949
840,26	35,647
840,44	26,852
840,62	30,640
840,80	37,346
840,98	43,202
841,16	28,826
841,34	41,449
841,52	50,479
841,70	29,293
841,89	32,581
842,07	38,919
842,25	37,013
842,43	31,935
842,61	42,091
842,79	42,378
842,97	21,341
843,15	44,699
843,33	46,318
843,51	29,833
843,69	33,056
843,87	23,989
844,05	35,310
844,23	27,027
844,41	30,151
844,59	37,216
844,77	24,207
844,95	34,951
845,13	32,787
845,31	35,754
845,50	39,948
845,68	30,311
845,86	29,245
846,04	35,556
846,22	34,129
846,40	25,197
846,58	18,499
846,76	22,693
846,94	18,029
847,12	17,536
847,30	33,871
847,48	27,338
847,66	37,805
847,84	21,574
848,02	28,067
848,20	31,567
848,38	27,521
848,56	38,710
848,74	25,000
848,92	19,833
849,10	27,902
849,28	24,401
849,46	19,393
849,64	22,381
849,82	16,106
850,00	23,409
850,18	25,635
850,36	28,728
850,54	28,475
850,72	26,611
850,90	20,925
851,08	17,901
851,26	28,745
851,44	26,305
851,62	26,932
851,80	18,688
851,98	29,630
852,16	32,510
852,34	30,361
852,52	17,893
852,70	13,454
852,87	24,190
853,05	27,054
853,23	24,510
853,41	16,769
853,59	19,623
853,77	23,413
853,95	20,339
854,13	24,272
854,31	25,654
854,49	16,834
854,67	20,865
854,85	23,130
855,03	12,069
855,21	27,411
855,39	16,946
855,57	31,703
855,75	25,126
855,93	18,375
856,11	27,113
856,28	21,007
856,46	17,157
856,64	19,579
856,82	18,325
857,00	19,204
857,18	21,909
857,36	14,958
857,54	16,216
857,72	25,543
857,90	18,451
858,08	18,056
858,26	14,526
858,44	20,186
858,61	15,425
858,79	23,721
858,97	19,771
859,15	17,047
859,33	13,190
859,51	16,134
859,69	14,583
859,87	22,840
860,05	21,060
860,23	15,000
860,40	16,436
860,58	18,966
860,76	17,655
860,94	16,031
861,12	13,456
861,30	19,973
861,48	17,989
861,66	19,019
861,84	22,207
862,01	19,251
862,19	11,518
862,37	16,472
862,55	13,231
862,73	17,391
862,91	12,852
863,09	16,905
863,27	9,889
863,44	17,616
863,62	15,147
863,80	10,630
863,98	16,092
864,16	11,467
864,34	13,506
864,52	16,515
864,69	16,506
864,87	11,204
865,05	13,771
865,23	14,130
865,41	12,277
865,59	11,990
865,76	10,207
865,94	9,469
866,12	12,684
866,30	13,129
866,48	15,461
866,66	18,113
866,83	11,379
867,01	16,287
867,19	14,222
867,37	14,406
867,55	16,356
867,73	18,907
867,90	15,097
868,08	16,776
868,26	11,631
868,44	10,193
868,62	15,465
868,79	12,338
868,97	14,925
869,15	14,544
869,33	9,482
869,51	13,270
869,69	12,722
869,86	10,769
870,04	13,122
870,22	12,175
870,40	12,222
870,57	14,200
870,75	12,548
870,93	9,573
871,11	8,444
871,29	12,093
871,46	11,984
871,64	7,517
871,82	12,585
872,00	14,144
872,18	11,436
872,35	10,695
872,53	10,113
872,71	6,930
872,89	11,863
873,06	11,531
873,24	12,316
873,42	8,154
873,60	6,244
873,77	12,989
873,95	10,652
874,13	9,123
874,31	9,358
874,49	11,595
874,66	6,959
874,84	6,661
875,02	11,391
875,20	9,091
875,37	7,070
875,55	3,133
875,73	9,146
875,91	8,594
876,08	9,713
876,26	8,909
876,44	8,307
876,61	10,687
876,79	9,112
876,97	11,076
877,15	11,527
877,32	8,661
877,50	11,612
877,68	7,535
877,86	8,762
878,03	10,744
878,21	7,448
878,39	7,185
878,56	9,661
878,74	7,158
878,92	6,528
879,10	7,175
879,27	8,807
879,45	11,186
879,63	5,489
879,80	10,061
879,98	8,043
880,16	9,449
880,34	6,280
880,51	7,309
880,69	8,005
880,87	3,849
881,04	7,028
881,22	6,522
881,40	5,788
881,57	7,337
881,75	8,992
881,93	5,910
882,10	9,033
882,28	5,103
882,46	8,140
882,63	9,359
882,81	8,793
882,99	7,103
883,16	9,501
883,34	5,821
883,52	4,110
883,69	7,270
883,87	8,888
884,05	3,014
884,22	4,762
884,40	7,170
884,58	6,313
884,75	5,141
884,93	7,068
885,11	5,441
885,28	7,991
885,46	5,075
885,64	5,445
885,81	9,436
885,99	4,757
886,17	4,575
886,34	5,454
886,52	6,888
886,70	5,716
886,87	7,250
887,05	5,488
887,22	5,177
887,40	5,930
887,58	6,965
887,75	6,630
887,93	5,928
888,11	4,202
888,28	5,832
888,46	3,164
888,63	7,079
888,81	5,519
888,99	4,739
889,16	5,136
889,34	5,185
889,51	5,526
889,69	5,360
889,87	5,827
890,04	2,825
890,22	4,374
890,39	3,317
890,57	5,982
890,75	6,071
890,92	4,369
891,10	6,746
891,27	4,376
891,45	4,667
891,63	4,293
891,80	4,266
891,98	6,725
892,15	3,976
892,33	4,570
892,51	4,700
892,68	4,411
892,86	5,044
893,03	4,027
893,21	4,932
893,38	3,080
893,56	5,731
893,74	5,177
893,91	4,415
894,09	4,651
894,26	4,193
894,44	3,316
894,61	4,254
894,79	4,200
894,96	4,416
895,14	4,191
895,32	4,376
895,49	4,535
895,67	3,776
895,84	6,057
896,02	4,592
896,19	5,407
896,37	5,799
896,54	4,934
896,72	3,095
896,89	4,500
897,07	3,782
897,25	5,143
897,42	4,165
897,60	4,544
897,77	6,123
897,95	5,486
898,12	3,609
898,30	4,148
898,47	3,629
898,65	4,272
898,82	3,191
899,00	2,373
899,17	3,607
899,35	3,853
899,52	2,807
899,70	4,461
899,87	4,709
900,05	4,733
900,22	2,887
900,40	3,882
900,57	4,493
900,75	2,978
900,92	3,563
901,10	5,353
901,27	3,680
901,45	4,823
901,62	4,471
901,80	3,977
901,97	4,029
902,15	5,164
902,32	4,476
902,50	3,573
902,67	4,154
902,85	4,116
903,02	4,648
903,20	4,684
903,37	4,073
903,54	3,664
903,72	2,238
903,89	3,131
904,07	4,336
904,24	3,411
904,42	2,789
904,59	2,815
904,77	4,252
904,94	4,154
905,12	1,583
905,29	4,278
905,47	4,491
905,64	3,550
905,81	3,792
905,99	3,328
906,16	3,601
906,34	2,635
906,51	3,038
906,69	2,701
906,86	3,337
907,03	3,361
907,21	3,726
907,38	2,088
907,56	2,290
907,73	4,797
907,91	4,520
908,08	3,174
908,25	3,353
908,43	3,682
908,60	2,793
908,78	5,024
908,95	4,645
909,13	3,013
909,30	2,523
909,47	3,731
909,65	4,486
909,82	4,087
910,00	3,266
910,17	2,402
910,34	2,684
910,52	2,634
910,69	3,767
910,87	3,776
911,04	1,610
911,21	3,216
911,39	2,955
911,56	4,062
911,73	2,934
911,91	4,524
912,08	3,175
912,26	3,265
912,43	3,283
912,60	2,852
912,78	3,362
912,95	4,421
913,13	3,399
913,30	3,485
913,47	3,739
913,65	2,106
913,82	2,576
913,99	2,706
914,17	3,318
914,34	4,250
914,51	3,830
914,69	3,236
914,86	3,828
915,03	2,292
915,21	2,557
915,38	1,909
915,56	2,825
915,73	2,111
915,90	3,801
916,08	2,951
916,25	2,918
916,42	3,320
916,60	3,703
916,77	2,754
916,94	2,368
917,12	3,601
917,29	3,523
917,46	1,419
917,64	2,644
917,81	3,001
917,98	3,022
918,16	3,765
918,33	2,324
918,50	3,299
918,67	2,620
918,85	2,984
919,02	3,513
919,19	3,979
919,37	2,384
919,54	3,612
919,71	3,933
919,89	2,633
920,06	2,478
920,23	2,790
920,41	2,224
920,58	3,236
920,75	2,227
920,92	2,090
921,10	2,464
921,27	1,714
921,44	4,121
921,62	1,668
921,79	2,712
921,96	2,633
922,13	2,463
922,31	2,243
922,48	2,972
922,65	2,267
922,82	2,508
923,00	4,057
923,17	1,432
923,34	2,505
923,52	2,320
923,69	2,372
923,86	2,464
924,03	2,893
924,21	2,982
924,38	3,500
924,55	3,820
924,72	3,299
924,90	3,179
925,07	2,524
925,24	2,566
925,41	1,974
925,59	1,925
925,76	2,684
925,93	2,638
926,10	2,779
926,28	2,898
926,45	2,695
926,62	2,887
926,79	2,456
926,96	2,500
927,14	3,219
927,31	2,197
927,48	3,050
927,65	3,191
927,83	1,892
928,00	2,249
928,17	1,978
928,34	2,323
928,51	2,885
928,69	2,420
928,86	2,508
929,03	2,832
929,20	2,080
929,37	2,318
929,55	1,642
929,72	2,900
929,89	2,300
930,06	2,674
930,23	2,677
930,41	1,876
930,58	2,349
930,75	2,390
930,92	2,357
931,09	2,732
931,27	2,286
931,44	2,453
931,61	2,132
931,78	2,362
931,95	2,069
932,12	2,165
932,30	2,199
932,47	2,774
932,64	2,630
932,81	2,488
932,98	1,889
933,16	2,147
933,33	2,193
933,50	2,338
933,67	3,080
933,84	2,128
934,01	1,798
934,18	1,862
934,36	2,190
934,53	1,354
934,70	2,090
934,87	2,017
935,04	2,241
935,21	1,956
935,38	2,444
935,56	1,476
935,73	2,217
935,90	1,491
936,07	2,731
936,24	2,326
936,41	1,974
936,58	0,919
936,76	3,298
936,93	1,381
937,10	1,437
937,27	2,070
937,44	2,373
937,61	2,422
937,78	2,435
937,95	1,846
938,13	2,338
938,30	2,420
938,47	2,978
938,64	2,541
938,81	1,797
938,98	2,266
939,15	1,244
939,32	2,394
939,49	2,686
939,66	2,372
939,84	2,889
940,01	2,570
940,18	2,939
940,35	2,471
940,52	2,040
940,69	3,505
940,86	1,897
941,03	2,152
941,20	3,495
941,37	2,899
941,54	1,206
941,71	1,385
941,89	2,473
942,06	2,363
942,23	3,501
942,40	3,537
942,57	2,991
942,74	4,004
942,91	2,770
943,08	3,594
943,25	3,403
943,42	3,342
943,59	3,310
943,76	4,694
943,93	3,340
944,10	2,753
944,27	3,390
944,44	3,596
944,61	2,588
944,79	2,484
944,96	4,384
945,13	2,445
945,30	2,580
945,47	4,300
945,64	3,506
945,81	4,407
945,98	3,280
946,15	5,186
946,32	3,351
946,49	4,442
946,66	3,325
946,83	3,473
947,00	3,180
947,17	3,953
947,34	3,575
947,51	3,676
947,68	4,277
947,85	3,356
948,02	4,056
948,19	5,440
948,36	4,550
948,53	4,062
948,70	5,023
948,87	5,993
949,04	4,567
949,21	4,453
949,38	4,584
949,55	4,573
949,72	4,305
949,89	4,773
950,06	2,881
950,23	4,375
950,40	4,998
950,57	3,523
950,74	6,356
950,91	3,747
951,08	5,570
951,25	5,512
951,42	6,420
951,59	5,627
951,76	3,194
951,93	5,804
952,10	5,083
952,27	4,504
952,44	4,260
952,61	5,035
952,77	5,156
952,94	5,723
953,11	5,448
953,28	4,700
953,45	5,738
953,62	6,410
953,79	6,121
953,96	6,680
954,13	7,036
954,30	5,651
954,47	7,284
954,64	5,907
954,81	5,787
954,98	4,799
955,15	7,602
955,32	6,015
955,49	6,658
955,65	10,085
955,82	9,340
955,99	9,091
956,16	8,213
956,33	5,439
956,50	9,824
956,67	9,594
956,84	8,074
957,01	9,672
957,18	7,949
957,35	6,832
957,52	7,970
957,68	6,750
957,85	12,170
958,02	6,374
958,19	6,179
958,36	12,323
958,53	11,521
958,70	9,502
958,87	9,980
959,04	13,230
959,21	14,545
959,37	9,199
959,54	14,002
959,71	9,305
959,88	10,209
960,05	14,680
960,22	9,112
960,39	18,000
960,56	12,152
960,72	15,056
960,89	20,406
961,06	16,178
961,23	15,284
961,40	19,192
961,57	15,692
961,74	15,823
961,90	19,219
962,07	14,307
962,24	20,976
962,41	14,405
962,58	22,547
962,75	15,575
962,92	17,570
963,08	20,000
963,25	15,676
963,42	17,150
963,59	24,793
963,76	30,787
963,93	17,162
964,10	25,696
964,26	22,588
964,43	38,243
964,60	18,135
964,77	23,373
964,94	25,852
965,10	36,012
965,27	30,287
965,44	35,584
965,61	26,171
965,78	28,435
965,95	44,611
966,11	35,604
966,28	34,944
966,45	42,368
966,62	30,462
966,79	35,102
966,95	35,522
967,12	37,539
967,29	36,458
967,46	34,091
967,63	33,962
967,79	53,604
967,96	44,589
968,13	38,000
968,30	45,968
968,47	52,921
968,63	63,063
968,80	45,413
968,97	55,769
969,14	40,698
969,31	47,778
969,47	45,294
969,64	58,586
969,81	60,104
969,98	56,593
970,14	59,509
970,31	71,069
970,48	62,500
970,65	82,840
970,81	67,123
970,98	69,343
971,15	90,816
971,32	70,313
971,48	82,313
971,65	69,231
971,82	67,647
971,99	94,253
972,15	81,690
972,32	99,099
972,49	101,399
972,66	122,727
972,82	138,372
972,99	91,057
973,16	129,885
973,33	80,357
973,49	93,684
973,66	131,183
973,83	101,942
974,00	122,093
974,16	124,510
974,33	160,526
974,50	112,632
974,67	147,368
974,83	89,286
975,00	108,421
975,17	116,484
975,33	147,191
975,50	174,627
975,67	216,327
975,84	153,731
976,00	132,584
976,17	221,311
976,34	87,000
976,50	92,135
976,67	131,068
976,84	2333,333
977,00	222,449
977,17	208,889
977,34	194,505
977,50	155,224
977,67	208,929
977,84	217,742
978,01	221,277
978,17	555,556
978,34	238,889
978,51	320,588
978,67	156,579
978,84	130,469
979,01	324,324
979,17	235,897
979,34	95,890
979,51	193,878
979,67	167,901
979,84	232,653
980,01	260,000
980,17	276,056
980,34	429,630
980,51	207,246
980,67	171,765
980,84	510,000
981,01	600,000
981,17	728,000
981,34	788,889
981,50	211,765
981,67	267,797
981,84	5200,000
982,00	450,000
982,17	257,143
982,34	150,000
982,50	713,333
982,67	194,792
982,84	3000,000
983,00	1433,333
983,17	208,955
983,33	243,103
983,50	1700,000
983,67	-420,690
983,83	327,273
984,00	-1085,714
984,17	655,556
984,33	-6650,000
984,50	437,143
984,66	345,652
984,83	157,143
985,00	-550,000
985,16	368,966
985,33	600,000
985,49	644,444
985,66	508,824
985,83	360,870
985,99	338,462
986,16	-3150,000
986,32	835,714
986,49	8900,000
986,66	387,879
986,82	1033,333
986,99	239,623
987,15	-421,053
987,32	-360,714
987,49	208,000
987,65	5950,000
987,82	287,500
987,98	326,531
988,15	340,000
988,31	890,000
988,48	-1683,333
988,65	378,571
988,81	322,222
988,98	307,317
989,14	369,048
989,31	676,190
989,47	276,471
989,64	-884,615
989,80	750,000
989,97	340,541
990,14	-254,348
990,30	-618,182
990,47	397,959
990,63	419,444
990,80	248,000
990,96	-590,000
991,13	506,250
991,29	482,759
991,46	0,000
991,62	-815,385
991,79	708,333
991,95	14100,000
992,12	-840,000
992,29	-656,250
992,45	188,235
992,62	358,140
992,78	350,000
992,95	-726,667
993,11	450,000
993,28	1290,000
993,44	-1090,000
993,61	-643,750
993,77	-2900,000
993,94	-3633,333
994,10	-98,667
994,27	689,474
994,43	302,326
994,60	0,000
994,76	3125,000
994,93	525,000
995,09	-747,059
995,26	1155,556
995,42	194,118
995,59	571,429
995,75	1007,692
995,92	1614,286
996,08	366,667
996,25	-1512,500
996,41	-5900,000
996,58	766,667
996,74	293,182
996,91	389,655
997,07	0,000
997,23	13300,000
997,40	-15500,000
997,56	-976,923
997,73	-1450,000
997,89	336,842
998,06	1107,692
998,22	-733,333
998,39	568,000
998,55	1411,111
998,72	-1600,000
998,88	-350,000
999,05	-142,308
999,21	288,095
999,37	-566,667
999,54	-791,667
999,70	-386,667
999,87	881,250
1000,03	441,026
1000,20	291,667
1000,36	0,000
1000,52	462,500
1000,69	-595,238
1000,85	-1040,000
1001,02	-445,833
1001,18	2550,000
1001,35	1015,385
1001,51	829,412
1001,67	-1215,385
1001,84	-2960,000
1002,00	394,595
1002,17	1036,364
1002,33	-2550,000
1002,50	514,286
1002,66	-823,077
1002,82	320,000
1002,99	650,000
1003,15	-1971,429
1003,32	-1009,091
1003,48	350,000
1003,64	793,333
1003,81	459,259
1003,97	-2550,000
1004,14	1063,636
1004,30	410,000
1004,46	-833,333
1004,63	842,857
1004,79	383,333
1004,95	846,667
1005,12	4400,000
1005,28	513,793
1005,45	362,162
1005,61	482,759
1005,77	-233,333
1005,94	-523,810
1006,10	-5800,000
1006,26	1207,692
1006,43	-442,308
1006,59	-1063,636
1006,76	1050,000
1006,92	1233,333
1007,08	12800,000
1007,25	-262,963
1007,41	448,276
1007,57	4550,000
1007,74	1340,000
1007,90	-341,379
1008,06	289,130
1008,23	917,647
1008,39	-568,750
1008,55	-357,692
1008,72	-1842,857
1008,88	0,000
1009,04	409,756
1009,21	-347,368
1009,37	-866,667
1009,53	245,238
1009,70	3533,333
1009,86	-692,857
1010,02	4200,000
1010,19	1154,545
1010,35	283,824
1010,51	-5850,000
1010,68	-1712,500
1010,84	-270,455
1011,00	812,500
1011,17	-468,182
1011,33	0,000
1011,49	-806,667
1011,66	835,714
1011,82	529,032
1011,98	1071,429
1012,14	-536,364
1012,31	376,923
1012,47	0,000
1012,63	2116,667
1012,80	864,286
1012,96	-750,000
1013,12	-2483,333
1013,29	766,667
1013,45	409,756
1013,61	4333,333
1013,77	-185,714
1013,94	2900,000
1014,10	225,424
1014,26	-2575,000
1014,43	-356,000
1014,59	555,000
1014,75	-650,000
1014,91	-593,333
1015,08	377,778
1015,24	11000,000
1015,40	664,706
1015,56	-14200,000
1015,73	266,667
1015,89	881,818
1016,05	3525,000
1016,21	-875,000
1016,38	768,421
1016,54	746,154
1016,70	-3866,667
1016,86	496,875
1017,03	1100,000
1017,19	-761,538
1017,35	-858,824
1017,51	-1540,000
1017,68	-680,000
1017,84	-2100,000
1018,00	228,571
1018,16	573,077
1018,33	-1171,429
1018,49	-933,333
1018,65	-370,270
1018,81	315,385
1018,97	-1857,143
1019,14	-4200,000
1019,30	-364,103
1019,46	0,000
1019,62	-688,235
1019,79	-4666,667
1019,95	1358,333
1020,11	6650,000
1020,27	-462,963
1020,43	-407,692
1020,60	2016,667
1020,76	894,444
1020,92	806,667
1021,08	575,000
1021,24	1320,000
1021,41	888,889
1021,57	1700,000
1021,73	1084,615
1021,89	2420,000
1022,05	-450,000
1022,21	730,000
1022,38	-791,667
1022,54	-2333,333
1022,70	380,000
1022,86	-2100,000
1023,02	591,667
1023,19	2920,000
1023,35	4733,333
1023,51	633,333
1023,67	429,630
1023,83	-537,500
1023,99	276,316
1024,16	-461,538
1024,32	-1000,000
1024,48	-890,000
1024,64	330,952
1024,80	517,391
1024,96	364,103
1025,12	766,667
1025,29	580,952
1025,45	371,053
1025,61	861,111
1025,77	-2680,000
1025,93	-7100,000
1026,09	-1228,571
1026,26	1158,333
1026,42	487,500
1026,58	396,970
1026,74	1383,333
1026,90	464,000
1027,06	510,714
1027,22	1121,429
1027,38	246,154
1027,55	4366,667
1027,71	2233,333
1027,87	-296,000
1028,03	950,000
1028,19	425,000
1028,35	625,000
1028,51	1620,000
1028,67	1058,333
1028,83	-2700,000
1029,00	-295,238
1029,16	900,000
1029,32	-292,857
1029,48	220,000
1029,64	394,444
1029,80	5900,000
1029,96	873,333
1030,12	630,435
1030,28	-3033,333
1030,44	-853,846
1030,61	-458,333
1030,77	-340,000
1030,93	-800,000
1031,09	2133,333
1031,25	-11400,000
1031,41	-343,333
1031,57	400,000
1031,73	806,250
1031,89	-1045,455
1032,05	-525,926
1032,21	745,455
1032,37	-224,074
1032,53	-985,714
1032,69	-300,000
1032,86	466,667
1033,02	-135,000
1033,18	-562,500
1033,34	526,316
1033,50	-5500,000
1033,66	-229,268
1033,82	595,652
1033,98	-396,296
1034,14	162,821
1034,30	403,226
1034,46	-3566,667
1034,62	620,000
1034,78	-614,286
1034,94	392,105
1035,10	-592,308
1035,26	-146,512
1035,42	-275,862
1035,58	-627,778
1035,74	1083,333
1035,90	-976,923
1036,06	-1766,667
1036,22	1850,000
1036,38	-682,353
1036,54	-412,500
1036,70	-245,455
1036,86	6500,000
1037,02	522,222
1037,18	747,368
1037,34	172,381
1037,50	-209,756
1037,66	-576,471
1037,82	2660,000
1037,98	-370,370
1038,14	-372,000
1038,30	-1275,000
1038,46	-735,714
1038,62	530,435
1038,78	-3733,333
1038,94	-568,421
1039,10	390,909
1039,26	448,148
1039,42	-775,000
1039,58	1914,286
1039,74	-542,105
1039,90	425,000
1040,06	-396,154
>>>>>End Processed Spectral Data<<<<<
