SpectraSuite Data File
++++++++++++++++++++++++++++++++++++
Date: Wed Feb 01 16:09:55 EET 2017
User: optolab
Dark Spectrum Present: Yes
Reference Spectrum Present: Yes
Number of Sampled Component Spectra: 1
Spectrometers: USB4C02475
Integration Time (usec): 100000 (USB4C02475)
Spectra Averaged: 1 (USB4C02475)
Boxcar Smoothing: 0 (USB4C02475)
Correct for Electrical Dark: No (USB4C02475)
Strobe/Lamp Enabled: No (USB4C02475)
Correct for Detector Non-linearity: No (USB4C02475)
Correct for Stray Light: No (USB4C02475)
Number of Pixels in Processed Spectrum: 3648
>>>>>Begin Processed Spectral Data<<<<<
344,91	4050,000
345,13	4050,000
345,35	4050,000
345,57	0,000
345,79	463,158
346,00	-2077,778
346,22	-1985,714
346,44	364,706
346,66	-516,667
346,87	-11700,000
347,09	269,697
347,31	-513,636
347,53	-361,538
347,74	270,769
347,96	439,394
348,18	784,211
348,40	454,839
348,61	1047,059
348,83	416,667
349,05	378,431
349,27	-5950,000
349,48	603,846
349,70	-289,655
349,92	419,355
350,14	207,547
350,35	302,000
350,57	3025,000
350,79	588,000
351,01	-876,190
351,22	261,111
351,44	846,154
351,66	-360,000
351,87	-576,190
352,09	240,385
352,31	291,803
352,53	331,250
352,74	305,556
352,96	245,455
353,18	631,579
353,40	468,000
353,61	308,889
353,83	382,353
354,05	827,273
354,26	2283,333
354,48	260,000
354,70	424,242
354,92	-300,000
355,13	195,960
355,35	368,182
355,57	733,333
355,78	210,843
356,00	-3325,000
356,22	434,615
356,44	6000,000
356,65	313,636
356,87	376,923
357,09	562,500
357,30	313,333
357,52	315,517
357,74	705,000
357,95	292,308
358,17	254,098
358,39	296,774
358,60	367,568
358,82	650,000
359,04	437,037
359,26	394,286
359,47	9600,000
359,69	440,000
359,91	524,242
360,12	438,095
360,34	633,333
360,56	-103,704
360,77	3000,000
360,99	666,667
361,21	318,000
361,42	5900,000
361,64	302,041
361,86	261,538
362,07	-477,419
362,29	252,000
362,51	-611,765
362,72	592,000
362,94	485,294
363,16	239,535
363,37	-792,857
363,59	469,231
363,81	456,818
364,02	738,889
364,24	600,000
364,46	3833,333
364,67	963,636
364,89	2271,429
365,11	168,571
365,32	534,483
365,54	333,333
365,76	277,551
365,97	420,588
366,19	225,862
366,41	654,545
366,62	481,481
366,84	276,744
367,05	363,265
367,27	1883,333
367,49	-676,923
367,70	711,765
367,92	236,066
368,14	377,083
368,35	-9300,000
368,57	564,000
368,79	375,862
369,00	278,261
369,22	-1412,500
369,43	203,529
369,65	261,290
369,87	400,000
370,08	172,289
370,30	266,071
370,51	288,525
370,73	260,000
370,95	235,484
371,16	219,048
371,38	403,333
371,60	1700,000
371,81	201,563
372,03	1120,000
372,24	723,333
372,46	273,585
372,68	251,429
372,89	415,152
373,11	653,846
373,32	375,000
373,54	-1176,923
373,76	1092,308
373,97	1000,000
374,19	800,000
374,40	276,562
374,62	-3600,000
374,84	4300,000
375,05	542,857
375,27	312,000
375,48	-9900,000
375,70	186,667
375,92	251,786
376,13	393,750
376,35	247,945
376,56	1006,250
376,78	245,833
376,99	285,714
377,21	287,500
377,43	240,909
377,64	265,217
377,86	500,000
378,07	328,205
378,29	-1612,500
378,51	445,161
378,72	395,833
378,94	-1344,444
379,15	384,848
379,37	835,294
379,58	272,308
379,80	873,333
380,01	875,000
380,23	313,725
380,45	2440,000
380,66	3666,667
380,88	320,455
381,09	230,000
381,31	133,333
381,52	280,392
381,74	1544,444
381,95	681,818
382,17	526,923
382,39	504,762
382,60	257,143
382,82	425,641
383,03	286,538
383,25	467,742
383,46	313,636
383,68	448,148
383,89	615,000
384,11	332,258
384,32	-3266,667
384,54	605,556
384,76	-2966,667
384,97	366,667
385,19	427,586
385,40	266,667
385,62	291,228
385,83	366,667
386,05	231,373
386,26	306,000
386,48	225,287
386,69	391,667
386,91	560,000
387,12	250,847
387,34	215,517
387,55	274,194
387,77	425,000
387,98	557,692
388,20	188,043
388,41	485,294
388,63	10900,000
388,84	190,164
389,06	309,524
389,27	742,105
389,49	391,667
389,70	234,694
389,92	276,667
390,13	253,061
390,35	325,490
390,56	231,481
390,78	514,815
390,99	1200,000
391,21	726,316
391,42	320,000
391,64	270,732
391,85	181,034
392,07	259,091
392,28	157,333
392,50	263,636
392,71	-1400,000
392,93	228,846
393,14	438,889
393,36	353,061
393,57	171,429
393,79	900,000
394,00	268,085
394,22	164,384
394,43	178,313
394,65	181,395
394,86	1300,000
395,08	561,905
395,29	171,698
395,50	661,538
395,72	700,000
395,93	814,286
396,15	232,394
396,36	136,765
396,58	278,333
396,79	222,500
397,01	272,000
397,22	391,667
397,44	195,455
397,65	252,632
397,87	378,571
398,08	208,163
398,29	434,375
398,51	264,286
398,72	197,561
398,94	178,462
399,15	380,000
399,37	208,772
399,58	186,813
399,80	468,182
400,01	157,407
400,22	271,429
400,44	230,864
400,65	464,286
400,87	220,588
401,08	145,714
401,30	223,913
401,51	263,158
401,72	334,615
401,94	135,443
402,15	580,000
402,37	160,504
402,58	622,222
402,80	180,000
403,01	202,817
403,22	936,364
403,44	201,449
403,65	216,071
403,87	220,000
404,08	392,308
404,30	178,824
404,51	-2633,333
404,72	148,571
404,94	141,176
405,15	180,000
405,37	155,696
405,58	172,941
405,79	181,707
406,01	270,732
406,22	158,621
406,44	219,149
406,65	157,895
406,86	77,083
407,08	175,949
407,29	136,893
407,51	181,707
407,72	147,222
407,93	155,435
408,15	94,872
408,36	237,209
408,58	163,918
408,79	94,167
409,00	151,042
409,22	142,857
409,43	169,620
409,64	70,807
409,86	80,503
410,07	96,154
410,29	94,030
410,50	87,234
410,71	81,250
410,93	66,242
411,14	103,101
411,35	77,381
411,57	81,579
411,78	104,688
412,00	70,064
412,21	93,548
412,42	75,661
412,64	49,785
412,85	61,340
413,06	62,195
413,28	40,991
413,49	65,877
413,70	51,087
413,92	56,522
414,13	34,440
414,34	44,828
414,56	47,203
414,77	69,198
414,98	42,282
415,20	33,910
415,41	46,176
415,63	39,055
415,84	40,278
416,05	29,670
416,27	32,558
416,48	32,865
416,69	29,646
416,91	39,459
417,12	28,342
417,33	34,105
417,55	26,962
417,76	40,862
417,97	18,880
418,19	19,483
418,40	17,872
418,61	29,630
418,83	15,636
419,04	17,350
419,25	21,184
419,46	25,865
419,68	12,222
419,89	18,778
420,10	16,463
420,32	16,065
420,53	13,435
420,74	21,474
420,96	13,125
421,17	16,051
421,38	14,799
421,60	12,804
421,81	14,806
422,02	15,047
422,23	12,300
422,45	12,695
422,66	14,070
422,87	10,985
423,09	11,041
423,30	8,656
423,51	11,102
423,73	8,702
423,94	9,734
424,15	7,143
424,36	10,408
424,58	8,875
424,79	8,182
425,00	8,235
425,22	7,108
425,43	5,624
425,64	8,602
425,85	6,094
426,07	6,998
426,28	5,404
426,49	7,055
426,71	4,718
426,92	4,779
427,13	4,879
427,34	4,061
427,56	5,083
427,77	4,758
427,98	5,907
428,19	3,859
428,41	6,392
428,62	5,211
428,83	4,780
429,04	5,599
429,26	5,292
429,47	4,911
429,68	2,969
429,89	3,851
430,11	5,274
430,32	3,535
430,53	3,666
430,74	3,887
430,96	3,049
431,17	3,000
431,38	2,974
431,59	3,114
431,81	3,232
432,02	3,434
432,23	3,296
432,44	4,132
432,66	3,444
432,87	3,124
433,08	3,697
433,29	3,386
433,51	2,015
433,72	2,804
433,93	1,569
434,14	2,274
434,35	2,091
434,57	2,588
434,78	2,312
434,99	2,345
435,20	1,924
435,42	1,575
435,63	2,124
435,84	2,479
436,05	2,830
436,26	2,024
436,48	1,876
436,69	0,979
436,90	2,212
437,11	1,892
437,32	1,434
437,54	2,047
437,75	1,791
437,96	1,893
438,17	1,709
438,38	2,196
438,60	1,498
438,81	1,367
439,02	1,832
439,23	1,461
439,44	1,531
439,66	1,752
439,87	1,609
440,08	1,472
440,29	1,094
440,50	1,286
440,72	1,195
440,93	1,520
441,14	1,540
441,35	1,445
441,56	1,064
441,77	1,327
441,99	1,415
442,20	1,177
442,41	0,952
442,62	1,064
442,83	1,202
443,04	1,211
443,26	0,983
443,47	1,381
443,68	1,206
443,89	1,395
444,10	1,299
444,31	1,246
444,53	1,337
444,74	1,263
444,95	1,459
445,16	1,303
445,37	1,353
445,58	1,421
445,80	1,340
446,01	1,460
446,22	1,309
446,43	1,549
446,64	1,646
446,85	1,432
447,06	1,567
447,28	1,720
447,49	1,906
447,70	2,509
447,91	3,034
448,12	4,111
448,33	6,745
448,54	10,810
448,76	16,760
448,97	26,351
449,18	36,708
449,39	48,963
449,60	61,326
449,81	73,792
450,02	80,492
450,23	84,821
450,45	88,000
450,66	88,965
450,87	90,336
451,08	90,627
451,29	91,386
451,50	92,606
451,71	94,181
451,92	93,938
452,13	94,091
452,35	95,972
452,56	96,395
452,77	97,753
452,98	96,500
453,19	97,980
453,40	97,502
453,61	97,411
453,82	97,055
454,03	96,359
454,25	96,378
454,46	97,646
454,67	94,560
454,88	96,208
455,09	96,315
455,30	95,635
455,51	97,460
455,72	96,626
455,93	97,244
456,14	96,092
456,35	96,874
456,56	96,503
456,78	96,531
456,99	98,174
457,20	97,342
457,41	95,462
457,62	97,905
457,83	95,494
458,04	97,061
458,25	97,283
458,46	96,142
458,67	95,751
458,88	96,854
459,09	95,759
459,30	94,784
459,51	96,482
459,73	96,092
459,94	95,315
460,15	94,376
460,36	95,078
460,57	95,488
460,78	95,111
460,99	94,745
461,20	95,114
461,41	95,732
461,62	94,958
461,83	95,360
462,04	95,561
462,25	96,921
462,46	95,542
462,67	97,085
462,88	96,090
463,09	96,041
463,30	96,873
463,51	96,836
463,72	95,270
463,93	94,837
464,15	93,955
464,36	93,513
464,57	93,003
464,78	91,976
464,99	91,445
465,20	90,844
465,41	89,990
465,62	89,892
465,83	89,432
466,04	89,949
466,25	90,281
466,46	91,285
466,67	92,586
466,88	92,602
467,09	93,788
467,30	94,461
467,51	95,003
467,72	96,500
467,93	96,414
468,14	95,049
468,35	95,925
468,56	95,692
468,77	95,850
468,98	95,132
469,19	94,162
469,40	93,423
469,61	92,210
469,82	91,044
470,03	92,493
470,24	93,026
470,45	92,072
470,66	92,223
470,87	93,754
471,08	93,661
471,29	94,347
471,50	95,098
471,71	94,077
471,92	95,092
472,13	97,308
472,34	95,824
472,55	96,321
472,76	95,838
472,97	95,051
473,18	95,302
473,39	94,229
473,60	94,574
473,81	95,700
474,01	94,997
474,22	95,302
474,43	94,982
474,64	95,009
474,85	95,736
475,06	95,701
475,27	96,956
475,48	96,035
475,69	96,998
475,90	96,593
476,11	96,364
476,32	95,798
476,53	94,633
476,74	93,620
476,95	92,876
477,16	91,855
477,37	91,025
477,58	92,385
477,79	92,139
478,00	91,681
478,21	88,061
478,41	82,726
478,62	75,077
478,83	63,103
479,04	51,131
479,25	37,245
479,46	26,044
479,67	18,207
479,88	12,071
480,09	8,289
480,30	5,540
480,51	3,983
480,72	3,042
480,93	2,460
481,14	1,767
481,34	1,364
481,55	1,121
481,76	0,977
481,97	1,185
482,18	0,965
482,39	1,090
482,60	1,042
482,81	0,988
483,02	0,799
483,23	0,936
483,44	0,980
483,65	0,990
483,85	0,779
484,06	0,920
484,27	0,777
484,48	0,860
484,69	1,003
484,90	0,954
485,11	0,752
485,32	0,738
485,53	0,889
485,73	0,964
485,94	0,652
486,15	0,835
486,36	0,607
486,57	0,805
486,78	1,007
486,99	0,800
487,20	0,841
487,41	0,659
487,61	0,735
487,82	0,726
488,03	0,741
488,24	0,849
488,45	0,709
488,66	0,850
488,87	0,589
489,08	0,737
489,28	0,980
489,49	0,795
489,70	0,689
489,91	0,766
490,12	0,758
490,33	0,742
490,54	0,601
490,74	0,843
490,95	0,664
491,16	0,642
491,37	0,764
491,58	0,574
491,79	0,731
492,00	0,816
492,20	0,699
492,41	0,553
492,62	0,539
492,83	0,579
493,04	0,666
493,25	0,742
493,45	0,774
493,66	0,710
493,87	0,555
494,08	0,621
494,29	0,606
494,50	0,549
494,70	0,758
494,91	0,759
495,12	0,744
495,33	0,657
495,54	0,712
495,75	0,613
495,95	0,534
496,16	0,836
496,37	0,595
496,58	0,591
496,79	0,610
496,99	0,682
497,20	0,693
497,41	0,614
497,62	0,555
497,83	0,755
498,04	0,740
498,24	0,503
498,45	0,828
498,66	0,818
498,87	0,742
499,08	0,597
499,28	0,695
499,49	0,554
499,70	0,672
499,91	0,639
500,12	0,840
500,32	0,492
500,53	0,514
500,74	0,617
500,95	0,763
501,15	0,690
501,36	0,509
501,57	0,658
501,78	0,630
501,99	0,696
502,19	0,613
502,40	0,728
502,61	0,610
502,82	0,618
503,02	0,641
503,23	0,753
503,44	0,532
503,65	0,795
503,86	0,617
504,06	0,491
504,27	0,707
504,48	0,656
504,69	0,758
504,89	0,777
505,10	0,826
505,31	0,726
505,52	0,793
505,72	0,754
505,93	0,686
506,14	0,701
506,35	0,651
506,55	0,555
506,76	0,741
506,97	0,767
507,18	0,708
507,38	0,763
507,59	0,712
507,80	0,552
508,01	0,749
508,21	0,676
508,42	0,763
508,63	0,844
508,84	0,587
509,04	0,697
509,25	0,572
509,46	0,674
509,67	0,739
509,87	0,912
510,08	0,791
510,29	0,871
510,49	0,918
510,70	0,858
510,91	0,824
511,12	0,759
511,32	0,733
511,53	0,786
511,74	0,701
511,94	0,711
512,15	0,726
512,36	0,870
512,57	0,680
512,77	0,697
512,98	0,643
513,19	0,625
513,39	0,696
513,60	0,741
513,81	0,808
514,01	0,821
514,22	1,102
514,43	1,008
514,64	0,763
514,84	0,830
515,05	0,625
515,26	0,801
515,46	0,884
515,67	0,710
515,88	0,937
516,08	0,710
516,29	0,924
516,50	0,791
516,70	0,814
516,91	1,062
517,12	0,774
517,32	0,796
517,53	0,872
517,74	1,060
517,95	0,649
518,15	0,883
518,36	1,050
518,57	1,149
518,77	0,963
518,98	0,838
519,19	0,806
519,39	1,067
519,60	1,050
519,80	1,064
520,01	1,087
520,22	1,207
520,42	1,137
520,63	1,185
520,84	1,225
521,04	1,319
521,25	1,436
521,46	1,146
521,66	1,294
521,87	1,239
522,08	1,374
522,28	1,500
522,49	1,722
522,70	2,610
522,90	4,090
523,11	7,048
523,31	12,378
523,52	20,200
523,73	30,431
523,93	40,921
524,14	50,988
524,35	59,497
524,55	64,504
524,76	70,463
524,97	76,534
525,17	82,870
525,38	86,429
525,58	89,039
525,79	91,951
526,00	92,532
526,20	91,220
526,41	91,834
526,61	92,858
526,82	91,777
527,03	92,943
527,23	92,718
527,44	93,736
527,64	95,378
527,85	95,815
528,06	96,395
528,26	96,717
528,47	97,405
528,68	97,598
528,88	97,438
529,09	97,935
529,29	98,721
529,50	99,770
529,70	99,792
529,91	98,979
530,12	98,479
530,32	98,084
530,53	98,660
530,73	97,823
530,94	98,288
531,15	97,540
531,35	97,995
531,56	98,039
531,76	98,013
531,97	97,511
532,17	98,397
532,38	96,663
532,59	97,785
532,79	97,236
533,00	98,469
533,20	98,312
533,41	99,092
533,61	99,117
533,82	99,444
534,03	99,367
534,23	100,653
534,44	100,624
534,64	100,114
534,85	99,931
535,05	100,996
535,26	100,623
535,46	101,109
535,67	100,585
535,88	101,457
536,08	100,606
536,29	101,236
536,49	100,702
536,70	100,216
536,90	100,228
537,11	100,323
537,31	100,548
537,52	99,833
537,72	101,032
537,93	100,312
538,13	99,840
538,34	101,018
538,55	99,992
538,75	100,724
538,96	99,906
539,16	99,415
539,37	100,061
539,57	100,016
539,78	99,389
539,98	99,531
540,19	99,012
540,39	99,225
540,60	98,900
540,80	99,259
541,01	98,664
541,21	99,255
541,42	99,257
541,62	98,819
541,83	99,246
542,03	99,413
542,24	99,996
542,44	99,559
542,65	99,495
542,85	99,868
543,06	99,737
543,26	98,921
543,47	100,388
543,67	99,305
543,88	99,696
544,08	99,984
544,29	100,161
544,49	99,703
544,70	98,754
544,90	99,131
545,11	98,569
545,31	98,364
545,52	97,732
545,72	97,322
545,93	97,043
546,13	96,950
546,34	97,669
546,54	96,474
546,75	97,837
546,95	97,797
547,15	98,467
547,36	98,687
547,56	98,229
547,77	98,401
547,97	98,659
548,18	99,497
548,38	99,314
548,59	99,300
548,79	99,368
549,00	99,357
549,20	100,495
549,41	99,253
549,61	99,296
549,81	99,830
550,02	98,890
550,22	98,061
550,43	98,713
550,63	98,069
550,84	96,903
551,04	97,514
551,25	97,269
551,45	97,091
551,65	96,664
551,86	97,696
552,06	97,330
552,27	96,828
552,47	96,268
552,68	97,711
552,88	96,766
553,08	97,062
553,29	97,647
553,49	96,995
553,70	96,800
553,90	96,425
554,11	96,815
554,31	95,946
554,51	96,369
554,72	96,342
554,92	94,612
555,13	94,352
555,33	93,881
555,53	93,615
555,74	92,527
555,94	92,658
556,15	92,870
556,35	92,778
556,56	93,327
556,76	94,021
556,96	94,032
557,17	92,892
557,37	91,109
557,58	87,607
557,78	80,646
557,98	74,223
558,19	65,324
558,39	56,084
558,59	46,153
558,80	36,827
559,00	27,458
559,21	21,099
559,41	14,658
559,61	10,339
559,82	7,521
560,02	4,974
560,23	3,554
560,43	2,730
560,63	1,826
560,84	1,312
561,04	1,243
561,24	0,979
561,45	0,892
561,65	0,773
561,85	0,979
562,06	0,851
562,26	0,756
562,47	0,889
562,67	0,655
562,87	0,801
563,08	0,592
563,28	0,680
563,48	0,830
563,69	0,672
563,89	0,836
564,09	0,848
564,30	0,688
564,50	0,754
564,70	0,718
564,91	0,806
565,11	0,580
565,31	0,699
565,52	0,722
565,72	0,695
565,92	0,765
566,13	0,489
566,33	0,599
566,53	0,686
566,74	0,690
566,94	0,618
567,14	0,485
567,35	0,573
567,55	0,599
567,75	0,668
567,96	0,638
568,16	0,621
568,36	0,547
568,57	0,700
568,77	0,662
568,97	0,650
569,18	0,725
569,38	0,685
569,58	0,488
569,79	0,760
569,99	0,633
570,19	0,687
570,39	0,639
570,60	0,450
570,80	0,670
571,00	0,653
571,21	0,527
571,41	0,552
571,61	0,714
571,82	0,528
572,02	0,633
572,22	0,555
572,42	0,516
572,63	0,755
572,83	0,713
573,03	0,545
573,24	0,545
573,44	0,465
573,64	0,697
573,84	0,504
574,05	0,590
574,25	0,672
574,45	0,470
574,66	0,670
574,86	0,676
575,06	0,558
575,26	0,517
575,47	0,398
575,67	0,708
575,87	0,517
576,07	0,521
576,28	0,595
576,48	0,623
576,68	0,581
576,88	0,475
577,09	0,523
577,29	0,434
577,49	0,539
577,69	0,594
577,90	0,595
578,10	0,537
578,30	0,475
578,50	0,561
578,71	0,696
578,91	0,475
579,11	0,610
579,31	0,568
579,52	0,433
579,72	0,531
579,92	0,449
580,12	0,485
580,33	0,683
580,53	0,411
580,73	0,427
580,93	0,683
581,13	0,555
581,34	0,456
581,54	0,648
581,74	0,458
581,94	0,786
582,15	0,404
582,35	0,388
582,55	0,547
582,75	0,709
582,95	0,606
583,16	0,417
583,36	0,675
583,56	0,368
583,76	0,516
583,96	0,609
584,17	0,416
584,37	0,731
584,57	0,459
584,77	0,538
584,97	0,517
585,18	0,619
585,38	0,504
585,58	0,553
585,78	0,540
585,98	0,620
586,19	0,528
586,39	0,369
586,59	0,570
586,79	0,580
586,99	0,481
587,20	0,492
587,40	0,477
587,60	0,376
587,80	0,588
588,00	0,534
588,20	0,420
588,41	0,751
588,61	0,380
588,81	0,564
589,01	0,630
589,21	0,585
589,41	0,723
589,62	0,572
589,82	0,540
590,02	0,389
590,22	0,608
590,42	0,498
590,62	0,362
590,83	0,475
591,03	0,497
591,23	0,484
591,43	0,754
591,63	0,518
591,83	0,469
592,03	0,501
592,24	0,599
592,44	0,689
592,64	0,474
592,84	0,441
593,04	0,600
593,24	0,528
593,44	0,636
593,65	0,633
593,85	0,492
594,05	0,391
594,25	0,753
594,45	0,556
594,65	0,494
594,85	0,662
595,06	0,637
595,26	0,589
595,46	0,388
595,66	0,553
595,86	0,686
596,06	0,576
596,26	0,538
596,46	0,498
596,66	0,640
596,87	0,754
597,07	0,588
597,27	0,354
597,47	0,548
597,67	0,748
597,87	0,579
598,07	0,447
598,27	0,515
598,47	0,585
598,67	0,554
598,88	0,595
599,08	0,577
599,28	0,372
599,48	0,716
599,68	0,679
599,88	0,526
600,08	0,704
600,28	0,641
600,48	0,499
600,68	0,642
600,88	0,630
601,09	0,406
601,29	0,522
601,49	0,574
601,69	0,651
601,89	0,459
602,09	0,589
602,29	0,755
602,49	0,583
602,69	0,670
602,89	0,649
603,09	0,644
603,29	0,500
603,49	0,548
603,69	0,719
603,90	0,643
604,10	0,854
604,30	0,702
604,50	0,674
604,70	0,746
604,90	0,461
605,10	0,591
605,30	0,657
605,50	0,657
605,70	0,600
605,90	0,698
606,10	0,669
606,30	0,668
606,50	0,749
606,70	0,565
606,90	0,736
607,10	0,679
607,30	0,649
607,50	0,652
607,70	0,781
607,90	0,705
608,10	0,549
608,30	0,773
608,50	0,812
608,70	0,916
608,90	0,803
609,11	1,069
609,31	1,034
609,51	0,862
609,71	1,106
609,91	0,888
610,11	1,109
610,31	0,977
610,51	1,311
610,71	1,350
610,91	1,633
611,11	2,175
611,31	2,803
611,51	3,748
611,71	5,415
611,91	7,959
612,11	11,451
612,31	16,089
612,51	21,929
612,71	28,653
612,91	35,326
613,11	41,311
613,31	48,251
613,51	54,483
613,71	59,897
613,91	64,558
614,11	69,206
614,31	73,500
614,50	77,189
614,70	80,293
614,90	83,155
615,10	83,964
615,30	85,971
615,50	86,786
615,70	86,977
615,90	89,068
616,10	88,971
616,30	89,445
616,50	89,867
616,70	90,938
616,90	92,546
617,10	93,674
617,30	94,931
617,50	95,801
617,70	96,748
617,90	98,033
618,10	96,991
618,30	97,793
618,50	97,167
618,70	97,379
618,90	98,221
619,10	96,909
619,30	97,173
619,49	97,518
619,69	96,217
619,89	96,461
620,09	98,248
620,29	98,107
620,49	97,853
620,69	97,827
620,89	98,226
621,09	97,580
621,29	98,334
621,49	97,809
621,69	98,304
621,89	98,268
622,09	97,649
622,29	97,146
622,48	97,806
622,68	96,203
622,88	95,490
623,08	95,269
623,28	95,112
623,48	94,615
623,68	95,587
623,88	95,628
624,08	94,652
624,28	95,361
624,48	94,357
624,67	94,376
624,87	95,679
625,07	95,693
625,27	95,336
625,47	97,079
625,67	97,352
625,87	96,159
626,07	96,624
626,27	96,420
626,47	97,408
626,66	97,772
626,86	97,050
627,06	98,094
627,26	97,238
627,46	97,224
627,66	97,663
627,86	97,753
628,06	98,289
628,25	97,457
628,45	97,173
628,65	97,785
628,85	96,780
629,05	97,172
629,25	96,945
629,45	96,696
629,65	97,101
629,84	96,720
630,04	97,568
630,24	97,365
630,44	96,883
630,64	98,767
630,84	99,440
631,04	98,298
631,23	99,062
631,43	100,046
631,63	99,715
631,83	100,268
632,03	100,103
632,23	99,771
632,42	100,004
632,62	100,262
632,82	100,703
633,02	100,843
633,22	101,440
633,42	100,823
633,62	100,546
633,81	101,156
634,01	100,152
634,21	100,726
634,41	100,414
634,61	99,649
634,80	99,930
635,00	100,151
635,20	100,894
635,40	100,442
635,60	100,137
635,80	101,386
635,99	100,606
636,19	101,731
636,39	101,008
636,59	98,906
636,79	100,749
636,98	101,499
637,18	100,922
637,38	101,671
637,58	102,033
637,78	100,384
637,97	102,213
638,17	101,695
638,37	101,738
638,57	101,638
638,77	101,869
638,96	100,368
639,16	100,478
639,36	100,976
639,56	102,025
639,76	101,067
639,95	102,599
640,15	100,426
640,35	101,328
640,55	100,528
640,75	99,828
640,94	100,786
641,14	100,941
641,34	100,126
641,54	100,196
641,73	99,536
641,93	99,923
642,13	99,663
642,33	100,425
642,53	99,259
642,72	99,195
642,92	98,858
643,12	100,414
643,32	101,069
643,51	101,659
643,71	99,925
643,91	100,520
644,11	100,242
644,30	98,944
644,50	99,889
644,70	99,466
644,90	100,064
645,09	99,652
645,29	98,822
645,49	99,433
645,69	99,239
645,88	99,417
646,08	98,617
646,28	99,753
646,48	99,883
646,67	99,274
646,87	98,843
647,07	99,843
647,26	100,539
647,46	99,865
647,66	99,540
647,86	101,001
648,05	100,168
648,25	101,524
648,45	101,611
648,65	100,168
648,84	100,473
649,04	101,292
649,24	100,101
649,43	100,413
649,63	101,441
649,83	100,829
650,03	101,132
650,22	100,064
650,42	98,737
650,62	101,008
650,81	101,171
651,01	99,952
651,21	97,802
651,40	99,394
651,60	99,137
651,80	100,616
652,00	98,763
652,19	97,083
652,39	99,746
652,59	97,738
652,78	98,574
652,98	99,394
653,18	98,666
653,37	98,559
653,57	98,113
653,77	98,980
653,96	99,411
654,16	98,224
654,36	101,428
654,55	99,815
654,75	97,723
654,95	98,324
655,14	96,832
655,34	99,248
655,54	97,110
655,73	96,868
655,93	98,197
656,13	97,602
656,32	96,423
656,52	98,200
656,72	95,636
656,91	96,639
657,11	96,675
657,31	94,962
657,50	96,587
657,70	95,538
657,90	95,084
658,09	94,930
658,29	95,982
658,49	94,282
658,68	93,176
658,88	94,106
659,07	94,828
659,27	93,450
659,47	95,284
659,66	92,706
659,86	94,272
660,06	93,108
660,25	92,926
660,45	93,804
660,64	92,202
660,84	91,275
661,04	92,094
661,23	91,843
661,43	89,204
661,63	89,774
661,82	87,252
662,02	88,232
662,21	83,934
662,41	82,561
662,61	77,867
662,80	75,337
663,00	70,289
663,19	65,847
663,39	61,664
663,59	55,313
663,78	49,221
663,98	43,352
664,17	37,803
664,37	31,875
664,57	27,387
664,76	24,211
664,96	19,719
665,15	15,415
665,35	13,728
665,55	11,347
665,74	9,801
665,94	7,907
666,13	6,857
666,33	5,840
666,53	5,289
666,72	3,952
666,92	3,858
667,11	3,647
667,31	3,114
667,50	2,822
667,70	2,897
667,90	2,774
668,09	2,180
668,29	2,072
668,48	1,848
668,68	1,899
668,87	1,452
669,07	2,073
669,26	1,520
669,46	1,528
669,66	1,402
669,85	1,650
670,05	1,078
670,24	1,044
670,44	1,234
670,63	1,085
670,83	1,242
671,02	1,176
671,22	1,271
671,42	1,120
671,61	0,908
671,81	0,948
672,00	1,234
672,20	0,914
672,39	0,736
672,59	0,658
672,78	1,058
672,98	1,160
673,17	0,779
673,37	1,062
673,56	0,956
673,76	1,173
673,95	0,984
674,15	0,786
674,34	0,881
674,54	0,928
674,73	0,796
674,93	0,814
675,13	0,700
675,32	1,148
675,52	0,977
675,71	0,805
675,91	1,157
676,10	0,825
676,30	0,688
676,49	0,869
676,69	0,874
676,88	0,919
677,08	0,942
677,27	0,656
677,47	0,655
677,66	1,137
677,86	0,814
678,05	0,916
678,24	0,649
678,44	0,993
678,63	0,650
678,83	0,744
679,02	0,720
679,22	0,629
679,41	0,570
679,61	0,541
679,80	1,037
680,00	0,541
680,19	0,663
680,39	0,694
680,58	0,646
680,78	0,739
680,97	0,364
681,17	0,593
681,36	0,742
681,56	0,893
681,75	0,744
681,94	0,543
682,14	0,774
682,33	0,725
682,53	0,914
682,72	0,605
682,92	0,750
683,11	0,693
683,31	0,481
683,50	0,556
683,69	0,484
683,89	0,469
684,08	0,243
684,28	0,606
684,47	0,512
684,67	0,508
684,86	0,352
685,06	0,314
685,25	0,494
685,44	0,430
685,64	0,530
685,83	0,623
686,03	0,369
686,22	0,484
686,42	0,458
686,61	0,532
686,80	0,695
687,00	0,569
687,19	0,796
687,39	0,278
687,58	0,487
687,77	0,405
687,97	0,448
688,16	0,243
688,36	0,516
688,55	0,278
688,74	0,527
688,94	0,277
689,13	0,588
689,33	0,533
689,52	0,434
689,71	0,510
689,91	0,290
690,10	0,634
690,30	0,480
690,49	0,448
690,68	0,526
690,88	0,682
691,07	0,362
691,27	0,496
691,46	0,316
691,65	0,512
691,85	0,459
692,04	0,400
692,23	0,376
692,43	0,436
692,62	0,493
692,82	0,563
693,01	0,405
693,20	0,714
693,40	0,435
693,59	0,476
693,78	0,585
693,98	0,469
694,17	0,248
694,36	0,639
694,56	0,552
694,75	0,459
694,94	0,478
695,14	0,720
695,33	0,292
695,53	0,644
695,72	0,609
695,91	0,533
696,11	0,277
696,30	0,420
696,49	0,425
696,69	0,501
696,88	0,462
697,07	0,543
697,27	0,676
697,46	0,515
697,65	0,424
697,85	0,568
698,04	0,898
698,23	0,817
698,43	0,692
698,62	0,519
698,81	0,610
699,01	0,966
699,20	0,785
699,39	0,661
699,58	0,802
699,78	0,855
699,97	0,537
700,16	1,310
700,36	0,685
700,55	1,246
700,74	1,004
700,94	0,934
701,13	0,857
701,32	1,465
701,52	1,184
701,71	1,113
701,90	0,908
702,09	1,611
702,29	1,404
702,48	1,202
702,67	1,058
702,87	0,969
703,06	1,657
703,25	1,671
703,44	1,672
703,64	2,222
703,83	1,924
704,02	1,669
704,22	1,399
704,41	1,401
704,60	2,154
704,79	1,545
704,99	2,372
705,18	1,912
705,37	1,838
705,56	2,440
705,76	1,639
705,95	1,653
706,14	1,957
706,33	3,116
706,53	3,460
706,72	1,161
706,91	1,923
707,11	2,726
707,30	3,389
707,49	3,547
707,68	1,938
707,88	1,842
708,07	1,493
708,26	2,314
708,45	3,615
708,64	1,898
708,84	3,117
709,03	3,515
709,22	3,039
709,41	2,959
709,61	2,568
709,80	3,785
709,99	3,853
710,18	3,504
710,38	3,750
710,57	2,677
710,76	1,784
710,95	3,442
711,14	4,881
711,34	4,409
711,53	4,758
711,72	4,159
711,91	3,263
712,11	6,226
712,30	4,871
712,49	3,950
712,68	5,595
712,87	5,676
713,07	6,916
713,26	3,476
713,45	6,182
713,64	4,633
713,83	5,588
714,03	7,840
714,22	4,147
714,41	5,019
714,60	5,648
714,79	3,392
714,99	5,807
715,18	4,720
715,37	6,987
715,56	6,674
715,75	6,956
715,94	6,420
716,14	5,576
716,33	5,011
716,52	4,288
716,71	4,581
716,90	6,062
717,10	4,775
717,29	2,914
717,48	8,431
717,67	3,112
717,86	4,697
718,05	3,837
718,24	7,430
718,44	7,448
718,63	5,140
718,82	9,950
719,01	5,989
719,20	6,697
719,39	4,823
719,59	6,415
719,78	3,586
719,97	7,113
720,16	8,430
720,35	7,795
720,54	5,360
720,73	4,503
720,93	7,957
721,12	5,166
721,31	8,477
721,50	9,125
721,69	6,879
721,88	7,466
722,07	8,563
722,27	6,260
722,46	5,892
722,65	2,126
722,84	7,064
723,03	6,592
723,22	8,689
723,41	10,110
723,60	10,610
723,79	10,339
723,99	8,677
724,18	11,459
724,37	8,388
724,56	11,597
724,75	10,250
724,94	10,113
725,13	13,668
725,32	8,745
725,51	10,457
725,71	7,197
725,90	8,075
726,09	15,184
726,28	13,327
726,47	7,227
726,66	11,721
726,85	8,811
727,04	10,696
727,23	9,344
727,42	12,683
727,61	6,243
727,81	10,636
728,00	12,792
728,19	8,924
728,38	8,423
728,57	11,426
728,76	15,031
728,95	12,277
729,14	12,458
729,33	14,819
729,52	15,636
729,71	14,237
729,90	10,333
730,09	5,374
730,28	16,397
730,48	11,833
730,67	16,687
730,86	7,711
731,05	10,280
731,24	11,995
731,43	7,673
731,62	18,421
731,81	12,198
732,00	10,546
732,19	14,176
732,38	11,387
732,57	13,896
732,76	13,571
732,95	9,333
733,14	9,363
733,33	7,555
733,52	17,191
733,71	13,155
733,90	19,409
734,09	11,735
734,28	14,621
734,47	16,447
734,66	16,282
734,85	11,489
735,04	11,853
735,23	16,138
735,42	19,020
735,61	16,133
735,81	13,379
736,00	22,741
736,19	16,124
736,38	16,444
736,57	22,006
736,76	11,318
736,95	12,576
737,14	19,149
737,33	18,941
737,52	18,250
737,71	12,019
737,90	19,970
738,09	14,571
738,28	15,470
738,47	18,464
738,66	13,438
738,85	16,495
739,04	20,374
739,22	19,426
739,41	17,581
739,60	16,890
739,79	16,438
739,98	15,608
740,17	18,367
740,36	16,429
740,55	22,399
740,74	16,348
740,93	25,813
741,12	15,809
741,31	10,846
741,50	18,079
741,69	10,000
741,88	4,200
742,07	14,801
742,26	11,423
742,45	15,415
742,64	24,101
742,83	12,553
743,02	16,577
743,21	29,980
743,40	20,154
743,59	19,877
743,78	21,616
743,97	28,195
744,16	12,860
744,34	20,276
744,53	21,107
744,72	31,393
744,91	17,263
745,10	27,696
745,29	26,005
745,48	16,047
745,67	24,236
745,86	21,127
746,05	20,776
746,24	25,490
746,43	26,241
746,62	17,742
746,81	32,648
747,00	27,557
747,18	27,033
747,37	31,557
747,56	27,640
747,75	27,571
747,94	29,540
748,13	25,799
748,32	24,573
748,51	32,957
748,70	27,098
748,89	23,671
749,08	22,571
749,26	25,060
749,45	26,118
749,64	21,092
749,83	21,628
750,02	24,033
750,21	27,859
750,40	27,083
750,59	36,321
750,78	27,515
750,96	20,112
751,15	19,126
751,34	28,272
751,53	33,005
751,72	31,806
751,91	24,932
752,10	6,790
752,29	31,638
752,47	37,079
752,66	31,831
752,85	27,864
753,04	22,082
753,23	13,245
753,42	34,043
753,61	29,739
753,80	32,249
753,98	29,474
754,17	27,914
754,36	31,638
754,55	20,063
754,74	33,237
754,93	34,870
755,12	24,267
755,30	22,161
755,49	36,086
755,68	39,769
755,87	22,823
756,06	29,609
756,25	23,810
756,43	26,552
756,62	34,421
756,81	24,752
757,00	28,406
757,19	30,822
757,38	38,486
757,56	31,935
757,75	32,353
757,94	38,486
758,13	36,688
758,32	28,409
758,51	28,309
758,69	20,800
758,88	35,135
759,07	34,409
759,26	46,512
759,45	36,245
759,63	40,520
759,82	31,650
760,01	28,763
760,20	40,856
760,39	42,164
760,57	55,372
760,76	29,730
760,95	49,074
761,14	53,061
761,33	42,812
761,51	42,294
761,70	61,034
761,89	34,836
762,08	42,791
762,27	39,927
762,45	37,354
762,64	17,216
762,83	57,522
763,02	42,791
763,21	47,414
763,39	41,224
763,58	35,472
763,77	42,085
763,96	55,823
764,14	46,667
764,33	52,381
764,52	62,661
764,71	50,224
764,89	30,392
765,08	44,397
765,27	40,520
765,46	23,913
765,65	32,314
765,83	40,693
766,02	43,404
766,21	38,674
766,40	54,286
766,58	43,089
766,77	42,289
766,96	61,818
767,15	46,860
767,33	42,690
767,52	59,756
767,71	51,304
767,90	40,449
768,08	41,634
768,27	52,500
768,46	51,953
768,64	68,912
768,83	52,083
769,02	63,000
769,21	47,598
769,39	54,070
769,58	54,913
769,77	54,789
769,96	68,586
770,14	55,782
770,33	51,869
770,52	38,624
770,70	42,000
770,89	63,758
771,08	50,424
771,27	73,196
771,45	63,158
771,64	62,500
771,83	60,280
772,01	61,446
772,20	74,874
772,39	54,667
772,57	49,612
772,76	59,259
772,95	63,121
773,14	74,731
773,32	58,710
773,51	76,617
773,70	75,000
773,88	91,803
774,07	47,120
774,26	39,716
774,44	15,244
774,63	68,528
774,82	55,488
775,00	66,000
775,19	71,200
775,38	58,960
775,56	50,521
775,75	71,084
775,94	62,658
776,12	40,884
776,31	75,882
776,50	58,523
776,68	68,947
776,87	53,409
777,06	91,034
777,24	77,222
777,43	59,615
777,62	82,353
777,80	95,946
777,99	47,429
778,18	72,277
778,36	70,400
778,55	66,942
778,74	93,750
778,92	75,148
779,11	100,000
779,29	80,503
779,48	65,986
779,67	66,667
779,85	86,179
780,04	70,270
780,23	67,626
780,41	85,156
780,60	44,211
780,79	77,401
780,97	71,711
781,16	74,545
781,34	76,289
781,53	80,342
781,72	85,401
781,90	69,531
782,09	78,065
782,28	84,672
782,46	74,074
782,65	69,286
782,83	95,506
783,02	82,500
783,21	94,667
783,39	85,217
783,58	80,473
783,76	74,302
783,95	59,394
784,14	80,132
784,32	83,893
784,51	75,000
784,69	100,847
784,88	81,081
785,06	77,311
785,25	88,535
785,44	84,892
785,62	110,714
785,81	102,817
785,99	88,489
786,18	91,216
786,37	96,296
786,55	78,899
786,74	75,658
786,92	70,313
787,11	107,500
787,29	57,463
787,48	54,667
787,67	86,747
787,85	74,138
788,04	65,842
788,22	78,689
788,41	105,882
788,59	118,349
788,78	79,394
788,96	139,623
789,15	149,474
789,34	94,545
789,52	96,460
789,71	66,667
789,89	142,553
790,08	99,315
790,26	45,714
790,45	62,121
790,63	113,889
790,82	91,515
791,00	74,306
791,19	100,000
791,38	77,778
791,56	110,526
791,75	145,872
791,93	97,701
792,12	76,923
792,30	108,800
792,49	84,034
792,67	95,522
792,86	72,093
793,04	85,047
793,23	67,500
793,41	136,709
793,60	105,051
793,78	115,789
793,97	135,897
794,15	143,636
794,34	72,527
794,52	135,065
794,71	76,543
794,89	115,556
795,08	122,330
795,26	95,000
795,45	108,955
795,63	93,182
795,82	94,393
796,00	106,422
796,19	117,500
796,37	100,000
796,56	66,667
796,74	119,469
796,93	107,865
797,11	82,278
797,30	101,667
797,48	83,448
797,67	81,667
797,85	102,041
798,04	160,417
798,22	107,143
798,41	108,824
798,59	87,368
798,77	183,077
798,96	91,398
799,14	126,724
799,33	119,084
799,51	87,692
799,70	84,564
799,88	115,152
800,07	90,132
800,25	86,897
800,44	104,040
800,62	134,118
800,80	144,928
800,99	95,238
801,17	97,414
801,36	96,552
801,54	132,292
801,73	89,899
801,91	85,246
802,10	136,905
802,28	137,383
802,46	111,111
802,65	78,161
802,83	131,461
803,02	125,263
803,20	95,313
803,39	91,379
803,57	165,060
803,75	92,568
803,94	68,908
804,12	77,500
804,31	77,876
804,49	91,346
804,67	94,400
804,86	84,821
805,04	83,108
805,23	112,414
805,41	112,295
805,59	59,836
805,78	79,545
805,96	103,846
806,15	88,281
806,33	69,748
806,51	100,000
806,70	155,000
806,88	65,041
807,07	61,905
807,25	73,585
807,43	104,636
807,62	89,431
807,80	107,527
807,99	88,889
808,17	85,816
808,35	116,667
808,54	139,785
808,72	69,600
808,90	101,316
809,09	109,167
809,27	90,090
809,46	107,143
809,64	93,137
809,82	90,805
810,01	105,303
810,19	107,000
810,37	75,385
810,56	164,634
810,74	54,967
810,92	78,030
811,11	141,176
811,29	86,525
811,48	139,394
811,66	101,550
811,84	96,330
812,03	92,727
812,21	74,359
812,39	105,932
812,58	87,255
812,76	66,355
812,94	92,000
813,13	96,032
813,31	78,333
813,49	116,304
813,68	103,478
813,86	83,673
814,04	159,223
814,23	117,172
814,41	56,618
814,59	61,582
814,78	76,471
814,96	98,198
815,14	116,667
815,33	102,899
815,51	66,667
815,69	90,123
815,87	86,087
816,06	83,125
816,24	89,404
816,42	40,385
816,61	87,288
816,79	92,771
816,97	112,613
817,16	72,903
817,34	128,276
817,52	84,828
817,70	151,587
817,89	57,025
818,07	86,207
818,25	98,198
818,44	90,698
818,62	96,552
818,80	91,608
818,98	103,810
819,17	83,077
819,35	90,588
819,53	120,792
819,72	62,209
819,90	81,437
820,08	58,442
820,26	100,000
820,45	86,145
820,63	73,958
820,81	100,671
820,99	54,887
821,18	59,259
821,36	76,190
821,54	51,744
821,73	68,649
821,91	68,085
822,09	73,529
822,27	63,452
822,46	77,500
822,64	92,053
822,82	61,463
823,00	28,829
823,19	40,152
823,37	85,000
823,55	78,824
823,73	62,667
823,91	44,199
824,10	78,771
824,28	82,963
824,46	62,791
824,64	55,882
824,83	65,041
825,01	70,290
825,19	62,286
825,37	72,917
825,56	56,875
825,74	82,857
825,92	56,742
826,10	102,484
826,28	97,987
826,47	66,667
826,65	62,162
826,83	58,065
827,01	68,939
827,19	72,785
827,38	73,057
827,56	68,750
827,74	44,715
827,92	79,512
828,10	43,478
828,29	81,905
828,47	74,561
828,65	50,270
828,83	68,182
829,01	47,333
829,20	51,266
829,38	43,568
829,56	58,704
829,74	79,545
829,92	64,433
830,10	66,216
830,29	58,378
830,47	63,021
830,65	35,268
830,83	76,000
831,01	42,083
831,20	50,495
831,38	45,366
831,56	58,300
831,74	65,143
831,92	53,977
832,10	74,091
832,29	62,085
832,47	59,735
832,65	55,319
832,83	53,023
833,01	33,992
833,19	51,584
833,37	51,481
833,56	60,094
833,74	69,636
833,92	35,841
834,10	50,254
834,28	47,308
834,46	56,055
834,64	61,328
834,83	45,051
835,01	54,864
835,19	45,498
835,37	38,645
835,55	55,596
835,73	65,809
835,91	45,174
836,09	47,303
836,28	53,817
836,46	46,316
836,64	60,656
836,82	32,463
837,00	51,361
837,18	49,407
837,36	59,893
837,54	43,939
837,72	49,004
837,91	34,137
838,09	32,800
838,27	43,956
838,45	60,194
838,63	31,864
838,81	60,197
838,99	53,310
839,17	46,602
839,35	38,889
839,53	39,262
839,72	27,542
839,90	36,778
840,08	42,308
840,26	41,956
840,44	27,469
840,62	34,680
840,80	30,247
840,98	38,369
841,16	15,302
841,34	33,913
841,52	35,783
841,70	46,128
841,89	50,645
842,07	30,541
842,25	34,740
842,43	40,000
842,61	35,657
842,79	39,634
842,97	19,512
843,15	43,266
843,33	31,116
843,51	35,084
843,69	25,000
843,87	39,892
844,05	21,833
844,23	39,730
844,41	31,156
844,59	28,693
844,77	33,141
844,95	35,437
845,13	29,235
845,31	40,223
845,50	28,866
845,68	22,280
845,86	38,679
846,04	33,086
846,22	31,504
846,40	18,110
846,58	16,354
846,76	26,434
846,94	29,567
847,12	27,014
847,30	29,493
847,48	36,211
847,66	30,732
847,84	21,320
848,02	28,898
848,20	29,139
848,38	20,588
848,56	30,968
848,74	21,694
848,92	23,382
849,10	33,705
849,28	34,205
849,46	17,523
849,64	14,286
849,82	16,346
850,00	16,632
850,18	26,328
850,36	33,114
850,54	32,287
850,72	26,195
850,90	27,737
851,08	24,691
851,26	33,806
851,44	24,699
851,62	24,283
851,80	23,658
851,98	29,012
852,16	25,720
852,34	30,740
852,52	20,477
852,70	18,072
852,87	28,000
853,05	25,251
853,23	25,686
853,41	23,108
853,59	21,887
853,77	24,802
853,95	22,246
854,13	25,049
854,31	30,192
854,49	17,034
854,67	27,256
854,85	20,000
855,03	24,138
855,21	22,166
855,39	19,631
855,57	25,906
855,75	18,381
855,93	20,671
856,11	26,475
856,28	16,146
856,46	17,974
856,64	26,861
856,82	15,532
857,00	23,183
857,18	17,684
857,36	17,479
857,54	14,020
857,72	17,863
857,90	21,087
858,08	14,969
858,26	13,761
858,44	14,286
858,61	15,945
858,79	17,364
858,97	20,057
859,15	16,438
859,33	17,945
859,51	17,732
859,69	19,643
859,87	17,423
860,05	20,363
860,23	11,970
860,40	15,361
860,58	11,925
860,76	22,740
860,94	13,282
861,12	14,589
861,30	16,553
861,48	16,006
861,66	16,790
861,84	20,950
862,01	18,316
862,19	16,396
862,37	12,536
862,55	11,699
862,73	13,587
862,91	12,485
863,09	14,434
863,27	10,306
863,44	15,364
863,62	15,007
863,80	12,732
863,98	17,880
864,16	18,742
864,34	13,117
864,52	15,148
864,69	19,880
864,87	16,925
865,05	10,425
865,23	12,198
865,41	13,945
865,59	14,833
865,76	16,796
865,94	13,857
866,12	12,684
866,30	11,902
866,48	17,581
866,66	17,028
866,83	10,503
867,01	14,970
867,19	16,909
867,37	14,406
867,55	12,294
867,73	12,642
867,90	10,749
868,08	16,993
868,26	4,903
868,44	12,339
868,62	12,017
868,79	8,658
868,97	11,620
869,15	9,660
869,33	10,584
869,51	16,773
869,69	8,655
869,86	10,769
870,04	15,450
870,22	5,723
870,40	10,101
870,57	13,400
870,75	12,452
870,93	14,360
871,11	10,682
871,29	12,602
871,46	8,761
871,64	12,265
871,82	11,902
872,00	15,727
872,18	11,436
872,35	13,904
872,53	10,397
872,71	6,064
872,89	12,882
873,06	12,269
873,24	12,408
873,42	9,498
873,60	6,152
873,77	8,719
873,95	8,423
874,13	10,018
874,31	8,200
874,49	9,590
874,66	9,536
874,84	9,236
875,02	8,381
875,20	6,860
875,37	11,499
875,55	5,419
875,73	6,040
875,91	8,516
876,08	6,927
876,26	7,993
876,44	8,387
876,61	7,405
876,79	10,358
876,97	9,427
877,15	12,901
877,32	6,693
877,50	10,160
877,68	9,337
877,86	7,917
878,03	8,365
878,21	5,310
878,39	9,333
878,56	8,038
878,74	4,483
878,92	7,864
879,10	6,509
879,27	6,796
879,45	10,114
879,63	5,957
879,80	8,838
879,98	5,623
880,16	7,206
880,34	4,997
880,51	9,701
880,69	7,624
880,87	6,254
881,04	6,383
881,22	8,762
881,40	5,788
881,57	6,046
881,75	7,589
881,93	6,495
882,10	9,994
882,28	4,231
882,46	6,610
882,63	9,296
882,81	7,414
882,99	5,296
883,16	8,907
883,34	6,916
883,52	5,003
883,69	9,338
883,87	7,569
884,05	4,078
884,22	5,278
884,40	7,491
884,58	3,464
884,75	5,141
884,93	8,115
885,11	6,583
885,28	4,762
885,46	5,745
885,64	3,927
885,81	6,484
885,99	4,457
886,17	4,525
886,34	4,300
886,52	6,163
886,70	3,642
886,87	7,768
887,05	4,878
887,22	6,356
887,40	6,285
887,58	5,522
887,75	5,583
887,93	4,381
888,11	3,312
888,28	4,552
888,46	4,548
888,63	7,642
888,81	5,043
888,99	2,512
889,16	5,611
889,34	6,806
889,51	5,622
889,69	2,962
889,87	3,665
890,04	3,318
890,22	5,489
890,39	1,283
890,57	6,502
890,75	6,670
890,92	5,439
891,10	6,789
891,27	4,679
891,45	4,875
891,63	5,247
891,80	4,397
891,98	6,310
892,15	3,765
892,33	2,390
892,51	4,118
892,68	4,040
892,86	4,329
893,03	4,317
893,21	5,091
893,38	4,559
893,56	5,403
893,74	3,903
893,91	3,863
894,09	5,172
894,26	4,663
894,44	6,282
894,61	4,687
894,79	4,086
894,96	4,263
895,14	5,022
895,32	4,640
895,49	4,147
895,67	3,192
895,84	5,351
896,02	4,782
896,19	3,148
896,37	5,088
896,54	3,019
896,72	3,943
896,89	4,353
897,07	3,522
897,25	4,505
897,42	2,912
897,60	4,150
897,77	4,864
897,95	6,203
898,12	3,079
898,30	4,183
898,47	3,378
898,65	4,446
898,82	4,633
899,00	3,454
899,17	4,431
899,35	4,098
899,52	3,430
899,70	2,835
899,87	3,558
900,05	5,830
900,22	3,265
900,40	2,826
900,57	5,174
900,75	3,532
900,92	2,706
901,10	3,680
901,27	4,625
901,45	4,988
901,62	3,227
901,80	4,550
901,97	4,236
902,15	5,261
902,32	4,675
902,50	4,280
902,67	2,881
902,85	4,656
903,02	5,057
903,20	3,346
903,37	3,673
903,54	4,630
903,72	2,863
903,89	2,999
904,07	3,684
904,24	2,794
904,42	2,472
904,59	2,751
904,77	2,726
904,94	4,122
905,12	2,605
905,29	3,927
905,47	3,208
905,64	3,962
905,81	4,321
905,99	2,826
906,16	3,694
906,34	4,540
906,51	3,253
906,69	2,422
906,86	4,099
907,03	3,422
907,21	2,841
907,38	2,334
907,56	3,194
907,73	3,977
907,91	3,287
908,08	2,991
908,25	1,829
908,43	3,256
908,60	3,273
908,78	4,758
908,95	3,716
909,13	3,490
909,30	2,310
909,47	4,083
909,65	4,342
909,82	4,087
910,00	1,983
910,17	3,674
910,34	4,300
910,52	1,274
910,69	4,135
910,87	3,633
911,04	2,683
911,21	4,131
911,39	3,513
911,56	3,081
911,73	3,161
911,91	4,191
912,08	3,120
912,26	2,623
912,43	3,092
912,60	3,206
912,78	3,826
912,95	3,067
913,13	2,088
913,30	3,512
913,47	3,928
913,65	1,493
913,82	3,505
913,99	2,469
914,17	2,705
914,34	4,766
914,51	3,445
914,69	3,415
914,86	4,496
915,03	2,756
915,21	3,038
915,38	1,171
915,56	2,497
915,73	2,493
915,90	3,876
916,08	2,976
916,25	2,383
916,42	2,571
916,60	2,453
916,77	2,904
916,94	2,734
917,12	3,552
917,29	3,670
917,46	2,643
917,64	2,430
917,81	2,953
917,98	2,617
918,16	3,294
918,33	2,657
918,50	3,443
918,67	2,930
918,85	2,510
919,02	3,584
919,19	3,792
919,37	1,888
919,54	3,292
919,71	3,427
919,89	2,289
920,06	2,160
920,23	3,108
920,41	2,882
920,58	2,602
920,75	1,934
920,92	1,817
921,10	2,195
921,27	2,239
921,44	3,836
921,62	1,735
921,79	3,739
921,96	2,677
922,13	1,945
922,31	1,561
922,48	2,582
922,65	2,375
922,82	2,529
923,00	2,297
923,17	1,988
923,34	1,974
923,52	1,418
923,69	2,351
923,86	1,832
924,03	2,079
924,21	2,348
924,38	2,809
924,55	2,834
924,72	2,639
924,90	2,674
925,07	3,124
925,24	1,851
925,41	2,244
925,59	2,191
925,76	1,614
925,93	2,181
926,10	2,635
926,28	2,776
926,45	2,777
926,62	2,457
926,79	2,477
926,96	2,439
927,14	3,061
927,31	2,355
927,48	2,327
927,65	2,187
927,83	1,851
928,00	1,154
928,17	1,881
928,34	1,410
928,51	2,569
928,69	2,127
928,86	2,897
929,03	2,775
929,20	1,785
929,37	2,280
929,55	2,052
929,72	2,497
929,89	1,476
930,06	2,941
930,23	1,594
930,41	2,488
930,58	2,310
930,75	2,486
930,92	1,716
931,09	2,369
931,27	2,097
931,44	1,981
931,61	2,817
931,78	2,458
931,95	1,437
932,12	2,277
932,30	3,052
932,47	2,318
932,64	2,348
932,81	2,092
932,98	1,812
933,16	2,184
933,33	2,482
933,50	2,245
933,67	2,648
933,84	1,138
934,01	1,119
934,18	1,862
934,36	1,800
934,53	1,430
934,70	2,015
934,87	1,830
935,04	1,778
935,21	1,901
935,38	1,452
935,56	1,900
935,73	2,399
935,90	1,123
936,07	2,306
936,24	1,941
936,41	1,937
936,58	1,324
936,76	3,446
936,93	0,957
937,10	1,824
937,27	2,125
937,44	1,442
937,61	2,052
937,78	1,581
937,95	1,939
938,13	2,113
938,30	1,889
938,47	2,265
938,64	2,040
938,81	1,390
938,98	2,488
939,15	1,753
939,32	1,387
939,49	2,761
939,66	2,522
939,84	1,970
940,01	2,417
940,18	2,069
940,35	2,433
940,52	1,674
940,69	2,978
940,86	1,394
941,03	1,570
941,20	1,767
941,37	2,575
941,54	0,949
941,71	0,752
941,89	2,257
942,06	1,588
942,23	1,780
942,40	1,617
942,57	2,755
942,74	2,736
942,91	1,571
943,08	2,251
943,25	1,764
943,42	2,985
943,59	2,234
943,76	3,080
943,93	1,554
944,10	1,715
944,27	1,684
944,44	2,566
944,61	1,424
944,79	2,059
944,96	2,960
945,13	2,019
945,30	0,639
945,47	2,207
945,64	2,053
945,81	3,141
945,98	3,140
946,15	2,712
946,32	1,854
946,49	2,401
946,66	3,054
946,83	2,952
947,00	2,978
947,17	1,743
947,34	2,598
947,51	2,879
947,68	3,374
947,85	3,570
948,02	3,430
948,19	3,938
948,36	3,746
948,53	3,200
948,70	3,950
948,87	3,853
949,04	3,094
949,21	2,660
949,38	2,576
949,55	0,909
949,72	3,844
949,89	1,826
950,06	2,227
950,23	3,683
950,40	2,908
950,57	2,371
950,74	4,421
950,91	3,850
951,08	2,694
951,25	4,152
951,42	5,576
951,59	3,512
951,76	2,326
951,93	4,980
952,10	4,170
952,27	3,109
952,44	3,458
952,61	3,246
952,77	3,409
952,94	5,368
953,11	5,808
953,28	4,607
953,45	5,315
953,62	4,723
953,79	4,017
953,96	7,122
954,13	4,346
954,30	6,761
954,47	5,892
954,64	4,524
954,81	5,281
954,98	6,585
955,15	4,695
955,32	4,824
955,49	5,716
955,65	6,763
955,82	5,853
955,99	4,211
956,16	6,636
956,33	5,370
956,50	3,812
956,67	8,333
956,84	6,889
957,01	4,680
957,18	10,030
957,35	8,618
957,52	8,305
957,68	5,333
957,85	7,660
958,02	8,872
958,19	7,572
958,36	13,564
958,53	10,691
958,70	9,774
958,87	10,568
959,04	12,591
959,21	11,616
959,37	15,260
959,54	12,900
959,71	10,909
959,88	10,977
960,05	11,810
960,22	3,905
960,39	13,467
960,56	7,342
960,72	13,676
960,89	19,011
961,06	15,669
961,23	14,265
961,40	16,450
961,57	15,692
961,74	11,551
961,90	15,938
962,07	12,177
962,24	18,699
962,41	15,578
962,58	22,547
962,75	14,690
962,92	23,364
963,08	19,455
963,25	12,973
963,42	14,976
963,59	18,802
963,76	27,191
963,93	20,366
964,10	17,773
964,26	30,702
964,43	24,031
964,60	25,648
964,77	27,470
964,94	27,841
965,10	27,083
965,27	25,849
965,44	29,610
965,61	32,782
965,78	30,671
965,95	33,234
966,11	35,913
966,28	37,175
966,45	37,072
966,62	36,615
966,79	47,347
966,95	35,821
967,12	27,760
967,29	28,472
967,46	44,318
967,63	44,151
967,79	55,856
967,96	46,320
968,13	54,500
968,30	42,742
968,47	51,203
968,63	68,919
968,80	52,752
968,97	54,808
969,14	48,837
969,31	58,889
969,47	45,294
969,64	55,051
969,81	64,249
969,98	63,187
970,14	47,239
970,31	62,893
970,48	47,500
970,65	76,331
970,81	78,082
970,98	77,372
971,15	96,939
971,32	76,563
971,48	79,592
971,65	68,462
971,82	113,725
971,99	89,655
972,15	102,113
972,32	113,514
972,49	98,601
972,66	98,182
972,82	105,814
972,99	99,187
973,16	144,828
973,33	68,750
973,49	128,421
973,66	150,538
973,83	119,417
974,00	136,047
974,16	116,667
974,33	117,544
974,50	105,263
974,67	115,789
974,83	90,476
975,00	128,421
975,17	103,297
975,33	112,360
975,50	150,746
975,67	183,673
975,84	231,343
976,00	148,315
976,17	201,639
976,34	88,000
976,50	143,820
976,67	126,214
976,84	2200,000
977,00	265,306
977,17	202,222
977,34	189,011
977,50	161,194
977,67	232,143
977,84	175,806
978,01	102,128
978,17	333,333
978,34	280,556
978,51	335,294
978,67	230,263
978,84	126,562
979,01	359,459
979,17	169,231
979,34	128,082
979,51	210,204
979,67	216,049
979,84	310,204
980,01	237,778
980,17	277,465
980,34	414,815
980,51	176,812
980,67	223,529
980,84	403,333
981,01	615,000
981,17	508,000
981,34	1133,333
981,50	136,765
981,67	259,322
981,84	4300,000
982,00	396,667
982,17	276,190
982,34	137,778
982,50	673,333
982,67	168,750
982,84	2700,000
983,00	1833,333
983,17	152,239
983,33	168,966
983,50	2460,000
983,67	-296,552
983,83	300,000
984,00	-1614,286
984,17	661,111
984,33	-5100,000
984,50	297,143
984,66	291,304
984,83	245,455
985,00	-445,833
985,16	434,483
985,33	770,588
985,49	583,333
985,66	402,941
985,83	317,391
985,99	333,333
986,16	-3725,000
986,32	728,571
986,49	10300,000
986,66	436,364
986,82	916,667
986,99	350,943
987,15	-321,053
987,32	-300,000
987,49	264,000
987,65	7500,000
987,82	295,833
987,98	275,510
988,15	390,000
988,31	540,000
988,48	-1533,333
988,65	319,048
988,81	261,111
988,98	360,976
989,14	257,143
989,31	547,619
989,47	279,412
989,64	-615,385
989,80	612,500
989,97	394,595
990,14	-239,130
990,30	-472,727
990,47	326,531
990,63	438,889
990,80	230,000
990,96	-675,000
991,13	478,125
991,29	531,034
991,46	0,000
991,62	-800,000
991,79	750,000
991,95	8100,000
992,12	-1480,000
992,29	-775,000
992,45	175,294
992,62	274,419
992,78	311,364
992,95	-560,000
993,11	446,429
993,28	1150,000
993,44	-1030,000
993,61	-712,500
993,77	-2825,000
993,94	-4200,000
994,10	-121,333
994,27	889,474
994,43	362,791
994,60	0,000
994,76	2975,000
994,93	510,000
995,09	-594,118
995,26	1255,556
995,42	349,020
995,59	647,619
995,75	784,615
995,92	2185,714
996,08	444,444
996,25	-1075,000
996,41	-4800,000
996,58	920,000
996,74	311,364
996,91	424,138
997,07	0,000
997,23	13400,000
997,40	-18000,000
997,56	-769,231
997,73	-1375,000
997,89	381,579
998,06	823,077
998,22	-477,778
998,39	520,000
998,55	1477,778
998,72	-1875,000
998,88	-336,667
999,05	-160,256
999,21	319,048
999,37	-673,333
999,54	-916,667
999,70	-396,667
999,87	812,500
1000,03	405,128
1000,20	341,667
1000,36	0,000
1000,52	379,167
1000,69	-614,286
1000,85	-1360,000
1001,02	-533,333
1001,18	2200,000
1001,35	815,385
1001,51	823,529
1001,67	-1084,615
1001,84	-2120,000
1002,00	354,054
1002,17	1309,091
1002,33	-2500,000
1002,50	490,476
1002,66	-661,538
1002,82	287,500
1002,99	1042,857
1003,15	-2257,143
1003,32	-1036,364
1003,48	378,571
1003,64	846,667
1003,81	551,852
1003,97	-4950,000
1004,14	1172,727
1004,30	296,667
1004,46	-733,333
1004,63	792,857
1004,79	363,889
1004,95	686,667
1005,12	6350,000
1005,28	627,586
1005,45	370,270
1005,61	489,655
1005,77	-193,750
1005,94	-519,048
1006,10	-5250,000
1006,26	1176,923
1006,43	-296,154
1006,59	-700,000
1006,76	1042,857
1006,92	1211,111
1007,08	12400,000
1007,25	-348,148
1007,41	437,931
1007,57	5900,000
1007,74	920,000
1007,90	-413,793
1008,06	250,000
1008,23	982,353
1008,39	-650,000
1008,55	-423,077
1008,72	-1771,429
1008,88	0,000
1009,04	358,537
1009,21	-268,421
1009,37	-975,000
1009,53	307,143
1009,70	4133,333
1009,86	-807,143
1010,02	4433,333
1010,19	954,545
1010,35	283,824
1010,51	-4500,000
1010,68	-1600,000
1010,84	-368,182
1011,00	681,250
1011,17	-454,545
1011,33	0,000
1011,49	-793,333
1011,66	785,714
1011,82	477,419
1011,98	750,000
1012,14	-618,182
1012,31	400,000
1012,47	0,000
1012,63	2083,333
1012,80	757,143
1012,96	-831,250
1013,12	-1633,333
1013,29	638,889
1013,45	482,927
1013,61	4300,000
1013,77	-155,357
1013,94	2120,000
1014,10	245,763
1014,26	-3175,000
1014,43	-300,000
1014,59	605,000
1014,75	-422,222
1014,91	-653,333
1015,08	369,444
1015,24	9600,000
1015,40	658,824
1015,56	-11400,000
1015,73	204,762
1015,89	445,455
1016,05	3650,000
1016,21	-1212,500
1016,38	600,000
1016,54	1184,615
1016,70	-3833,333
1016,86	431,250
1017,03	912,500
1017,19	-546,154
1017,35	-658,824
1017,51	-2260,000
1017,68	-1000,000
1017,84	-1871,429
1018,00	326,190
1018,16	353,846
1018,33	-1757,143
1018,49	-1000,000
1018,65	-218,919
1018,81	264,103
1018,97	-1214,286
1019,14	-4433,333
1019,30	-241,026
1019,46	0,000
1019,62	-535,294
1019,79	-4133,333
1019,95	1366,667
1020,11	7200,000
1020,27	-437,037
1020,43	-342,308
1020,60	2366,667
1020,76	683,333
1020,92	806,667
1021,08	700,000
1021,24	1270,000
1021,41	1255,556
1021,57	1550,000
1021,73	746,154
1021,89	2480,000
1022,05	-385,714
1022,21	595,000
1022,38	-791,667
1022,54	-2400,000
1022,70	344,444
1022,86	-1462,500
1023,02	416,667
1023,19	2380,000
1023,35	3966,667
1023,51	537,500
1023,67	533,333
1023,83	-600,000
1023,99	284,211
1024,16	-273,077
1024,32	-1400,000
1024,48	-1130,000
1024,64	307,143
1024,80	660,870
1024,96	292,308
1025,12	480,952
1025,29	471,429
1025,45	302,632
1025,61	811,111
1025,77	-2500,000
1025,93	-9400,000
1026,09	-1557,143
1026,26	983,333
1026,42	375,000
1026,58	436,364
1026,74	1866,667
1026,90	456,000
1027,06	396,429
1027,22	1071,429
1027,38	290,385
1027,55	5666,667
1027,71	1966,667
1027,87	-288,000
1028,03	800,000
1028,19	409,375
1028,35	765,000
1028,51	1680,000
1028,67	883,333
1028,83	-1200,000
1029,00	-307,143
1029,16	1490,000
1029,32	-389,286
1029,48	220,000
1029,64	388,889
1029,80	5350,000
1029,96	906,667
1030,12	669,565
1030,28	-3900,000
1030,44	-476,923
1030,61	-404,167
1030,77	-300,000
1030,93	-980,000
1031,09	1950,000
1031,25	-8600,000
1031,41	-273,333
1031,57	415,385
1031,73	850,000
1031,89	-954,545
1032,05	-292,593
1032,21	1045,455
1032,37	-227,778
1032,53	-900,000
1032,69	-208,333
1032,86	440,741
1033,02	-212,500
1033,18	-575,000
1033,34	342,105
1033,50	-5250,000
1033,66	-258,537
1033,82	547,826
1033,98	-425,926
1034,14	219,231
1034,30	380,645
1034,46	-2933,333
1034,62	390,000
1034,78	-595,238
1034,94	344,737
1035,10	-669,231
1035,26	-202,326
1035,42	-279,310
1035,58	-444,444
1035,74	816,667
1035,90	-830,769
1036,06	-1150,000
1036,22	1400,000
1036,38	-594,118
1036,54	-395,833
1036,70	-263,636
1036,86	15300,000
1037,02	577,778
1037,18	742,105
1037,34	123,810
1037,50	-182,927
1037,66	-435,294
1037,82	3120,000
1037,98	-325,926
1038,14	-468,000
1038,30	-1375,000
1038,46	-614,286
1038,62	500,000
1038,78	-3500,000
1038,94	-547,368
1039,10	463,636
1039,26	403,704
1039,42	-658,333
1039,58	1700,000
1039,74	-447,368
1039,90	403,125
1040,06	-392,308
>>>>>End Processed Spectral Data<<<<<
