SpectraSuite Data File
++++++++++++++++++++++++++++++++++++
Date: Tue Jan 31 19:15:54 EET 2017
User: optolab
Dark Spectrum Present: Yes
Reference Spectrum Present: Yes
Number of Sampled Component Spectra: 1
Spectrometers: USB4C02475
Integration Time (usec): 100000 (USB4C02475)
Spectra Averaged: 1 (USB4C02475)
Boxcar Smoothing: 0 (USB4C02475)
Correct for Electrical Dark: No (USB4C02475)
Strobe/Lamp Enabled: No (USB4C02475)
Correct for Detector Non-linearity: No (USB4C02475)
Correct for Stray Light: No (USB4C02475)
Number of Pixels in Processed Spectrum: 3648
>>>>>Begin Processed Spectral Data<<<<<
344,91	130,769
345,13	130,769
345,35	130,769
345,57	0,000
345,79	550,000
346,00	410,000
346,22	-177,778
346,44	230,769
346,66	1100,000
346,87	216,667
347,09	16,667
347,31	-1566,667
347,53	-800,000
347,74	-461,538
347,96	285,714
348,18	1933,333
348,40	-200,000
348,61	217,143
348,83	146,341
349,05	67,857
349,27	200,000
349,48	180,769
349,70	264,706
349,92	153,659
350,14	311,111
350,35	100,000
350,57	151,429
350,79	494,118
351,01	392,308
351,22	337,500
351,44	33,333
351,66	100,000
351,87	107,692
352,09	215,152
352,31	456,250
352,53	171,111
352,74	61,905
352,96	81,395
353,18	155,556
353,40	197,826
353,61	178,333
353,83	433,333
354,05	169,697
354,26	200,000
354,48	-1575,000
354,70	134,146
354,92	200,000
355,13	102,941
355,35	0,000
355,57	41,667
355,78	32,353
356,00	179,412
356,22	177,778
356,44	-423,077
356,65	128,788
356,87	335,714
357,09	233,333
357,30	69,841
357,52	135,714
357,74	-2200,000
357,95	600,000
358,17	533,333
358,39	226,471
358,60	1050,000
358,82	200,000
359,04	-150,000
359,26	181,250
359,47	182,609
359,69	-18,919
359,91	215,385
360,12	323,077
360,34	82,524
360,56	258,621
360,77	714,286
360,99	125,000
361,21	287,500
361,42	112,500
361,64	176,923
361,86	293,750
362,07	132,692
362,29	42,647
362,51	250,000
362,72	91,892
362,94	157,143
363,16	250,000
363,37	-22,581
363,59	193,103
363,81	-161,111
364,02	77,647
364,24	213,043
364,46	170,270
364,67	222,222
364,89	210,000
365,11	2150,000
365,32	127,711
365,54	650,000
365,76	153,448
365,97	235,714
366,19	1350,000
366,41	150,000
366,62	100,000
366,84	150,000
367,05	93,846
367,27	-277,778
367,49	102,439
367,70	762,500
367,92	101,613
368,14	1350,000
368,35	122,535
368,57	187,179
368,79	82,353
369,00	0,000
369,22	250,000
369,43	227,273
369,65	67,164
369,87	66,197
370,08	1014,286
370,30	282,353
370,51	68,519
370,73	109,615
370,95	314,286
371,16	1366,667
371,38	84,091
371,60	269,231
371,81	108,108
372,03	173,684
372,24	781,818
372,46	101,220
372,68	123,438
372,89	137,143
373,11	142,857
373,32	193,333
373,54	112,000
373,76	117,021
373,97	61,290
374,19	174,324
374,40	233,333
374,62	-333,333
374,84	256,000
375,05	72,973
375,27	47,170
375,48	209,302
375,70	150,000
375,92	183,333
376,13	20,000
376,35	2800,000
376,56	105,333
376,78	139,583
376,99	88,312
377,21	-7100,000
377,43	8,333
377,64	281,579
377,86	193,478
378,07	90,000
378,29	-3,226
378,51	158,974
378,72	122,222
378,94	39,706
379,15	211,429
379,37	116,071
379,58	198,214
379,80	153,846
380,01	537,500
380,23	257,895
380,45	71,154
380,66	361,111
380,88	-650,000
381,09	104,286
381,31	126,087
381,52	250,000
381,74	135,821
381,95	148,780
382,17	110,000
382,39	300,000
382,60	630,769
382,82	140,000
383,03	146,154
383,25	111,538
383,46	173,171
383,68	128,571
383,89	810,000
384,11	127,273
384,32	-112,500
384,54	164,444
384,76	3800,000
384,97	103,704
385,19	4,167
385,40	112,500
385,62	300,000
385,83	151,351
386,05	93,023
386,26	91,892
386,48	208,000
386,69	128,302
386,91	279,412
387,12	229,167
387,34	103,922
387,55	122,727
387,77	138,095
387,98	-828,571
388,20	129,032
388,41	289,744
388,63	160,465
388,84	156,923
389,06	151,282
389,27	92,857
389,49	187,500
389,70	91,667
389,92	82,812
390,13	-134,783
390,35	134,000
390,56	103,030
390,78	161,290
390,99	-66,667
391,21	89,286
391,42	103,279
391,64	233,333
391,85	71,667
392,07	84,000
392,28	85,000
392,50	147,368
392,71	155,556
392,93	110,811
393,14	-194,737
393,36	281,250
393,57	127,451
393,79	113,636
394,00	101,818
394,22	27,273
394,43	122,500
394,65	1100,000
394,86	153,030
395,08	32,877
395,29	102,326
395,50	150,000
395,72	88,889
395,93	97,917
396,15	126,761
396,36	101,887
396,58	214,815
396,79	76,364
397,01	103,614
397,22	350,000
397,44	-880,000
397,65	61,842
397,87	10,256
398,08	78,000
398,29	212,500
398,51	116,667
398,72	75,000
398,94	51,351
399,15	89,796
399,37	73,077
399,58	251,613
399,80	-62,500
400,01	113,043
400,22	89,796
400,44	373,333
400,65	500,000
400,87	54,098
401,08	73,684
401,30	68,000
401,51	153,030
401,72	90,698
401,94	98,387
402,15	59,322
402,37	109,091
402,58	195,556
402,80	55,357
403,01	54,255
403,22	128,333
403,44	111,250
403,65	-127,273
403,87	215,385
404,08	69,231
404,30	75,862
404,51	126,786
404,72	102,439
404,94	95,714
405,15	79,710
405,37	51,389
405,58	134,091
405,79	64,557
406,01	76,636
406,22	104,878
406,44	40,816
406,65	89,041
406,86	23,232
407,08	108,333
407,29	80,899
407,51	48,980
407,72	138,889
407,93	97,315
408,15	83,784
408,36	73,148
408,58	76,423
408,79	43,011
409,00	53,409
409,22	69,231
409,43	62,921
409,64	38,596
409,86	11,348
410,07	29,630
410,29	31,461
410,50	52,740
410,71	3,488
410,93	41,176
411,14	39,062
411,35	50,000
411,57	35,922
411,78	25,118
412,00	31,073
412,21	38,150
412,42	20,098
412,64	47,685
412,85	30,052
413,06	19,024
413,28	20,000
413,49	15,341
413,70	37,545
413,92	20,974
414,13	20,463
414,34	26,484
414,56	28,065
414,77	19,318
414,98	14,030
415,20	29,820
415,41	17,868
415,63	21,037
415,84	17,485
416,05	23,544
416,27	11,836
416,48	11,500
416,69	16,667
416,91	22,967
417,12	19,222
417,33	14,489
417,55	18,282
417,76	17,004
417,97	20,875
418,19	25,436
418,40	20,690
418,61	21,441
418,83	24,194
419,04	28,130
419,25	24,346
419,46	29,874
419,68	33,666
419,89	31,157
420,10	30,905
420,32	31,686
420,53	34,755
420,74	36,557
420,96	37,342
421,17	38,586
421,38	40,285
421,60	37,740
421,81	44,409
422,02	43,434
422,23	39,673
422,45	40,501
422,66	41,864
422,87	40,032
423,09	44,548
423,30	45,041
423,51	41,987
423,73	47,452
423,94	48,338
424,15	43,064
424,36	47,870
424,58	46,214
424,79	46,379
425,00	47,083
425,22	47,062
425,43	49,917
425,64	47,391
425,85	49,260
426,07	45,895
426,28	50,440
426,49	47,396
426,71	44,150
426,92	52,176
427,13	49,233
427,34	49,495
427,56	48,491
427,77	48,599
427,98	48,689
428,19	44,229
428,41	48,439
428,62	48,819
428,83	47,305
429,04	48,283
429,26	48,100
429,47	48,377
429,68	47,461
429,89	48,467
430,11	47,923
430,32	47,962
430,53	46,919
430,74	47,478
430,96	48,528
431,17	48,291
431,38	50,074
431,59	50,275
431,81	48,911
432,02	52,073
432,23	50,377
432,44	56,123
432,66	57,974
432,87	58,971
433,08	62,548
433,29	67,293
433,51	69,049
433,72	71,436
433,93	73,721
434,14	76,451
434,35	78,933
434,57	79,879
434,78	81,673
434,99	82,513
435,20	81,420
435,42	81,667
435,63	81,342
435,84	80,348
436,05	82,544
436,26	82,584
436,48	84,942
436,69	83,667
436,90	84,461
437,11	86,500
437,32	88,429
437,54	86,700
437,75	87,660
437,96	89,096
438,17	87,953
438,38	87,419
438,60	84,683
438,81	83,333
439,02	81,051
439,23	82,452
439,44	80,533
439,66	79,551
439,87	79,897
440,08	78,855
440,29	77,436
440,50	77,001
440,72	77,500
440,93	77,256
441,14	76,844
441,35	77,462
441,56	75,867
441,77	76,023
441,99	75,009
442,20	74,646
442,41	74,046
442,62	73,838
442,83	73,752
443,04	75,722
443,26	76,097
443,47	76,517
443,68	79,091
443,89	80,884
444,10	82,652
444,31	84,392
444,53	87,478
444,74	90,641
444,95	90,113
445,16	92,185
445,37	93,507
445,58	94,711
445,80	94,943
446,01	94,794
446,22	95,752
446,43	94,517
446,64	94,478
446,85	94,354
447,06	92,842
447,28	92,222
447,49	90,075
447,70	89,336
447,91	88,356
448,12	86,847
448,33	88,478
448,54	86,343
448,76	85,671
448,97	85,529
449,18	86,814
449,39	85,882
449,60	85,790
449,81	85,438
450,02	85,975
450,23	85,677
450,45	86,201
450,66	86,492
450,87	86,377
451,08	88,296
451,29	88,053
451,50	89,563
451,71	88,172
451,92	88,044
452,13	87,228
452,35	85,908
452,56	83,659
452,77	83,397
452,98	80,970
453,19	80,075
453,40	79,481
453,61	77,892
453,82	77,290
454,03	76,868
454,25	75,819
454,46	76,508
454,67	76,626
454,88	77,390
455,09	77,897
455,30	78,039
455,51	80,429
455,72	79,979
455,93	81,001
456,14	82,441
456,35	83,728
456,56	84,702
456,78	85,537
456,99	83,865
457,20	85,073
457,41	86,669
457,62	85,145
457,83	83,671
458,04	85,505
458,25	82,896
458,46	84,834
458,67	83,470
458,88	84,231
459,09	83,379
459,30	82,851
459,51	83,591
459,73	82,197
459,94	82,066
460,15	81,559
460,36	81,093
460,57	80,273
460,78	79,637
460,99	78,880
461,20	77,353
461,41	75,174
461,62	74,384
461,83	73,346
462,04	71,876
462,25	69,665
462,46	68,518
462,67	66,528
462,88	64,784
463,09	63,553
463,30	61,617
463,51	60,920
463,72	58,949
463,93	57,206
464,15	54,259
464,36	52,127
464,57	50,196
464,78	47,074
464,99	44,601
465,20	41,775
465,41	38,646
465,62	35,679
465,83	32,268
466,04	30,059
466,25	27,306
466,46	24,472
466,67	21,982
466,88	19,142
467,09	16,597
467,30	14,557
467,51	12,253
467,72	10,663
467,93	8,445
468,14	7,014
468,35	5,652
468,56	4,469
468,77	3,701
468,98	2,882
469,19	2,420
469,40	2,053
469,61	1,758
469,82	1,509
470,03	1,228
470,24	0,966
470,45	1,156
470,66	0,891
470,87	0,854
471,08	0,769
471,29	0,412
471,50	0,541
471,71	0,318
471,92	0,635
472,13	0,699
472,34	0,440
472,55	0,478
472,76	0,391
472,97	0,295
473,18	0,429
473,39	0,409
473,60	0,433
473,81	0,437
474,01	0,244
474,22	0,499
474,43	0,320
474,64	0,392
474,85	0,472
475,06	0,300
475,27	0,142
475,48	0,460
475,69	0,312
475,90	0,347
476,11	0,312
476,32	0,330
476,53	0,664
476,74	0,363
476,95	0,412
477,16	0,272
477,37	0,495
477,58	0,373
477,79	0,251
478,00	0,412
478,21	0,487
478,41	0,323
478,62	0,254
478,83	0,371
479,04	0,207
479,25	0,329
479,46	0,468
479,67	0,500
479,88	0,254
480,09	0,335
480,30	0,175
480,51	0,351
480,72	0,334
480,93	0,176
481,14	0,449
481,34	0,372
481,55	0,454
481,76	0,323
481,97	0,358
482,18	0,389
482,39	0,259
482,60	0,349
482,81	0,291
483,02	0,400
483,23	0,415
483,44	0,109
483,65	0,393
483,85	0,218
484,06	0,422
484,27	0,243
484,48	0,252
484,69	0,316
484,90	0,150
485,11	0,319
485,32	0,254
485,53	0,476
485,73	0,306
485,94	0,072
486,15	0,346
486,36	0,119
486,57	0,187
486,78	0,330
486,99	0,199
487,20	0,525
487,41	0,377
487,61	0,271
487,82	0,425
488,03	0,307
488,24	0,193
488,45	0,197
488,66	0,487
488,87	0,186
489,08	0,187
489,28	0,294
489,49	0,471
489,70	0,427
489,91	0,289
490,12	0,347
490,33	0,516
490,54	0,425
490,74	0,228
490,95	0,295
491,16	0,281
491,37	0,239
491,58	0,220
491,79	0,139
492,00	0,230
492,20	0,343
492,41	0,487
492,62	0,309
492,83	0,276
493,04	0,289
493,25	0,206
493,45	0,309
493,66	0,330
493,87	0,392
494,08	0,367
494,29	0,454
494,50	0,412
494,70	0,276
494,91	0,412
495,12	0,279
495,33	0,371
495,54	0,223
495,75	0,369
495,95	0,273
496,16	0,402
496,37	0,502
496,58	0,323
496,79	0,187
496,99	0,401
497,20	0,350
497,41	0,408
497,62	0,399
497,83	0,449
498,04	0,416
498,24	0,407
498,45	0,325
498,66	0,282
498,87	0,425
499,08	0,343
499,28	0,288
499,49	0,439
499,70	0,355
499,91	0,334
500,12	0,389
500,32	0,410
500,53	0,392
500,74	0,270
500,95	0,151
501,15	0,386
501,36	0,383
501,57	0,224
501,78	0,381
501,99	0,129
502,19	0,511
502,40	0,426
502,61	0,214
502,82	0,446
503,02	0,306
503,23	0,494
503,44	0,470
503,65	0,505
503,86	0,475
504,06	0,500
504,27	0,788
504,48	0,656
504,69	0,951
504,89	0,996
505,10	1,170
505,31	1,324
505,52	1,637
505,72	1,887
505,93	2,283
506,14	2,519
506,35	2,807
506,55	3,400
506,76	3,712
506,97	4,316
507,18	4,680
507,38	5,180
507,59	5,511
507,80	6,666
508,01	7,504
508,21	8,614
508,42	9,229
508,63	10,441
508,84	11,444
509,04	12,603
509,25	13,574
509,46	15,054
509,67	16,192
509,87	17,322
510,08	18,812
510,29	20,155
510,49	21,130
510,70	22,430
510,91	23,694
511,12	25,428
511,32	26,596
511,53	28,001
511,74	29,066
511,94	30,916
512,15	32,087
512,36	33,323
512,57	34,218
512,77	35,371
512,98	36,388
513,19	37,834
513,39	38,505
513,60	39,132
513,81	40,189
514,01	40,930
514,22	41,476
514,43	41,618
514,64	42,383
514,84	42,834
515,05	43,821
515,26	44,751
515,46	45,112
515,67	45,622
515,88	45,828
516,08	45,915
516,29	46,484
516,50	46,699
516,70	46,745
516,91	47,312
517,12	47,231
517,32	48,580
517,53	48,724
517,74	48,596
517,95	48,095
518,15	48,794
518,36	49,066
518,57	48,500
518,77	49,267
518,98	49,342
519,19	48,849
519,39	48,977
519,60	49,378
519,80	49,300
520,01	49,547
520,22	49,690
520,42	49,510
520,63	50,278
520,84	50,653
521,04	50,255
521,25	50,267
521,46	50,302
521,66	51,283
521,87	51,983
522,08	51,503
522,28	52,684
522,49	54,258
522,70	54,335
522,90	55,332
523,11	57,580
523,31	58,951
523,52	60,562
523,73	62,097
523,93	63,681
524,14	65,592
524,35	67,777
524,55	69,174
524,76	71,350
524,97	73,040
525,17	75,987
525,38	77,328
525,58	79,625
525,79	82,178
526,00	84,491
526,20	84,889
526,41	88,813
526,61	88,878
526,82	89,522
527,03	91,160
527,23	92,059
527,44	93,059
527,64	92,628
527,85	92,688
528,06	92,540
528,26	93,086
528,47	93,106
528,68	92,683
528,88	92,015
529,09	91,458
529,29	92,146
529,50	91,331
529,70	91,833
529,91	91,167
530,12	91,722
530,32	92,815
530,53	91,969
530,73	92,936
530,94	93,006
531,15	91,860
531,35	92,121
531,56	92,189
531,76	91,552
531,97	92,568
532,17	91,570
532,38	91,454
532,59	90,689
532,79	90,581
533,00	90,503
533,20	90,868
533,41	90,538
533,61	89,939
533,82	89,254
534,03	89,095
534,23	89,045
534,44	88,301
534,64	88,812
534,85	89,827
535,05	90,495
535,26	89,649
535,46	90,440
535,67	89,621
535,88	90,850
536,08	91,762
536,29	92,068
536,49	91,964
536,70	92,411
536,90	94,083
537,11	94,776
537,31	94,454
537,52	93,824
537,72	95,475
537,93	95,562
538,13	95,260
538,34	95,238
538,55	95,477
538,75	96,374
538,96	96,028
539,16	95,702
539,37	96,651
539,57	96,561
539,78	96,028
539,98	96,493
540,19	97,425
540,39	97,761
540,60	96,726
540,80	96,532
541,01	96,401
541,21	96,210
541,42	95,843
541,62	96,514
541,83	95,824
542,03	97,163
542,24	97,105
542,44	96,346
542,65	96,045
542,85	97,174
543,06	96,809
543,26	98,213
543,47	97,736
543,67	97,203
543,88	97,985
544,08	98,793
544,29	98,227
544,49	98,066
544,70	98,468
544,90	97,815
545,11	97,133
545,31	97,640
545,52	97,880
545,72	97,591
545,93	98,462
546,13	98,453
546,34	98,048
546,54	98,140
546,75	97,727
546,95	99,311
547,15	98,207
547,36	97,930
547,56	100,302
547,77	98,927
547,97	99,602
548,18	99,798
548,38	98,045
548,59	99,158
548,79	98,251
549,00	98,827
549,20	99,412
549,41	98,375
549,61	99,049
549,81	99,035
550,02	97,812
550,22	98,689
550,43	97,582
550,63	97,946
550,84	97,929
551,04	97,625
551,25	98,586
551,45	96,825
551,65	96,882
551,86	96,324
552,06	97,577
552,27	97,299
552,47	97,833
552,68	96,834
552,88	97,745
553,08	97,793
553,29	97,255
553,49	96,843
553,70	96,554
553,90	96,122
554,11	96,815
554,31	96,691
554,51	96,551
554,72	96,042
554,92	95,680
555,13	96,477
555,33	95,628
555,53	95,253
555,74	95,941
555,94	96,232
556,15	96,223
556,35	95,585
556,56	95,830
556,76	96,117
556,96	96,461
557,17	95,089
557,37	95,671
557,58	94,665
557,78	94,677
557,98	94,134
558,19	93,751
558,39	93,793
558,59	93,728
558,80	93,796
559,00	93,282
559,21	93,119
559,41	92,388
559,61	92,139
559,82	92,451
560,02	92,323
560,23	90,852
560,43	90,115
560,63	89,820
560,84	88,383
561,04	86,633
561,24	85,577
561,45	85,819
561,65	84,346
561,85	82,713
562,06	81,115
562,26	79,669
562,47	78,443
562,67	76,073
562,87	74,454
563,08	72,638
563,28	70,161
563,48	67,202
563,69	64,727
563,89	61,263
564,09	58,341
564,30	55,341
564,50	52,587
564,70	48,074
564,91	44,556
565,11	41,150
565,31	38,036
565,52	34,397
565,72	31,456
565,92	28,554
566,13	25,723
566,33	22,820
566,53	20,588
566,74	18,170
566,94	15,917
567,14	13,984
567,35	12,070
567,55	10,677
567,75	9,602
567,96	8,651
568,16	7,554
568,36	6,811
568,57	5,986
568,77	5,355
568,97	4,968
569,18	4,318
569,38	3,850
569,58	3,337
569,79	2,980
569,99	2,809
570,19	2,341
570,39	1,934
570,60	1,869
570,80	1,395
571,00	1,270
571,21	1,157
571,41	1,013
571,61	0,923
571,82	0,818
572,02	0,791
572,22	0,651
572,42	0,560
572,63	0,428
572,83	0,676
573,03	0,302
573,24	0,500
573,44	0,351
573,64	0,397
573,84	0,428
574,05	0,369
574,25	0,232
574,45	0,341
574,66	0,313
574,86	0,385
575,06	0,325
575,26	0,350
575,47	0,430
575,67	0,220
575,87	0,206
576,07	0,413
576,28	0,408
576,48	0,291
576,68	0,381
576,88	0,171
577,09	0,317
577,29	0,197
577,49	0,346
577,69	0,354
577,90	0,350
578,10	0,116
578,30	0,175
578,50	0,232
578,71	0,461
578,91	0,293
579,11	0,577
579,31	0,250
579,52	0,246
579,72	0,221
579,92	0,393
580,12	0,374
580,33	0,375
580,53	0,243
580,73	0,288
580,93	0,242
581,13	0,389
581,34	0,325
581,54	0,308
581,74	0,275
581,94	0,414
582,15	0,296
582,35	0,361
582,55	0,109
582,75	0,211
582,95	0,443
583,16	0,043
583,36	0,357
583,56	0,427
583,76	0,126
583,96	0,341
584,17	0,372
584,37	0,399
584,57	0,132
584,77	0,260
584,97	0,185
585,18	0,379
585,38	0,185
585,58	0,203
585,78	0,220
585,98	0,178
586,19	0,349
586,39	0,340
586,59	0,316
586,79	0,386
586,99	0,203
587,20	0,260
587,40	0,279
587,60	0,181
587,80	0,241
588,00	0,215
588,20	0,270
588,41	0,304
588,61	0,168
588,81	0,290
589,01	0,410
589,21	0,212
589,41	0,332
589,62	0,325
589,82	0,322
590,02	0,215
590,22	0,363
590,42	0,267
590,62	0,312
590,83	0,322
591,03	0,196
591,23	0,341
591,43	0,357
591,63	0,231
591,83	0,552
592,03	0,429
592,24	0,164
592,44	0,358
592,64	0,334
592,84	0,228
593,04	0,427
593,24	0,476
593,44	0,341
593,65	0,607
593,85	0,498
594,05	0,375
594,25	0,425
594,45	0,658
594,65	0,646
594,85	0,620
595,06	0,873
595,26	1,038
595,46	0,955
595,66	1,121
595,86	1,542
596,06	1,704
596,26	1,898
596,46	2,246
596,66	2,458
596,87	2,962
597,07	3,294
597,27	3,770
597,47	4,484
597,67	4,867
597,87	5,651
598,07	6,246
598,27	6,848
598,47	8,279
598,67	8,907
598,88	9,636
599,08	10,514
599,28	11,633
599,48	12,330
599,68	13,905
599,88	14,231
600,08	15,750
600,28	16,696
600,48	17,894
600,68	19,069
600,88	19,967
601,09	20,733
601,29	22,305
601,49	23,158
601,69	23,950
601,89	24,979
602,09	25,430
602,29	26,252
602,49	27,308
602,69	28,051
602,89	28,492
603,09	29,627
603,29	29,894
603,49	30,283
603,69	31,346
603,90	31,902
604,10	32,720
604,30	32,826
604,50	33,910
604,70	34,609
604,90	35,204
605,10	35,851
605,30	36,436
605,50	38,018
605,70	38,327
605,90	38,592
606,10	39,120
606,30	40,372
606,50	40,618
606,70	40,927
606,90	41,731
607,10	42,071
607,30	42,774
607,50	42,758
607,70	44,349
607,90	43,841
608,10	43,658
608,30	44,001
608,50	44,195
608,70	44,849
608,90	44,755
609,11	45,549
609,31	45,121
609,51	45,437
609,71	45,208
609,91	45,785
610,11	45,931
610,31	45,842
610,51	45,920
610,71	45,633
610,91	46,557
611,11	46,251
611,31	45,887
611,51	46,780
611,71	47,108
611,91	46,934
612,11	46,989
612,31	47,077
612,51	48,095
612,71	47,738
612,91	47,280
613,11	48,395
613,31	48,822
613,51	49,436
613,71	48,959
613,91	49,978
614,11	51,228
614,31	52,120
614,50	52,616
614,70	53,994
614,90	55,078
615,10	56,550
615,30	58,217
615,50	58,846
615,70	60,914
615,90	62,908
616,10	64,183
616,30	66,575
616,50	67,728
616,70	69,779
616,90	71,514
617,10	71,806
617,30	74,278
617,50	75,382
617,70	76,669
617,90	77,409
618,10	77,997
618,30	78,634
618,50	79,784
618,70	80,816
618,90	82,555
619,10	83,037
619,30	83,949
619,49	84,483
619,69	83,660
619,89	84,323
620,09	84,267
620,29	84,526
620,49	85,221
620,69	85,546
620,89	84,597
621,09	85,989
621,29	86,004
621,49	85,084
621,69	85,527
621,89	85,098
622,09	84,752
622,29	84,016
622,48	84,692
622,68	84,866
622,88	85,220
623,08	83,777
623,28	83,803
623,48	83,574
623,68	83,751
623,88	83,249
624,08	82,778
624,28	83,350
624,48	83,437
624,67	82,691
624,87	84,365
625,07	82,829
625,27	84,082
625,47	83,759
625,67	83,580
625,87	83,262
626,07	84,230
626,27	84,202
626,47	84,269
626,66	84,171
626,86	84,794
627,06	84,352
627,26	84,044
627,46	84,273
627,66	83,544
627,86	84,232
628,06	84,220
628,25	84,863
628,45	84,285
628,65	84,296
628,85	85,082
629,05	84,278
629,25	85,260
629,45	84,225
629,65	84,495
629,84	84,545
630,04	85,065
630,24	84,996
630,44	85,219
630,64	85,312
630,84	85,189
631,04	85,793
631,23	87,448
631,43	86,344
631,63	87,412
631,83	88,205
632,03	88,336
632,23	88,017
632,42	89,936
632,62	88,922
632,82	89,615
633,02	89,844
633,22	89,574
633,42	90,362
633,62	90,960
633,81	90,879
634,01	91,056
634,21	91,426
634,41	91,409
634,61	92,071
634,80	91,113
635,00	91,198
635,20	91,942
635,40	92,540
635,60	92,181
635,80	93,410
635,99	92,614
636,19	91,880
636,39	93,481
636,59	92,742
636,79	91,109
636,98	92,684
637,18	93,934
637,38	92,501
637,58	92,894
637,78	92,937
637,97	90,992
638,17	93,064
638,37	91,969
638,57	93,885
638,77	93,710
638,96	92,358
639,16	91,876
639,36	91,517
639,56	91,621
639,76	90,969
639,95	91,189
640,15	92,662
640,35	91,762
640,55	92,533
640,75	93,211
640,94	92,066
641,14	93,296
641,34	92,671
641,54	92,259
641,73	92,116
641,93	91,997
642,13	92,343
642,33	91,872
642,53	92,741
642,72	91,510
642,92	92,868
643,12	93,522
643,32	92,528
643,51	92,388
643,71	92,146
643,91	92,177
644,11	93,612
644,30	93,575
644,50	93,616
644,70	93,078
644,90	94,305
645,09	92,936
645,29	93,523
645,49	93,201
645,69	93,271
645,88	92,342
646,08	92,631
646,28	93,748
646,48	92,386
646,67	92,473
646,87	93,214
647,07	92,089
647,26	92,152
647,46	89,815
647,66	90,780
647,86	88,695
648,05	86,718
648,25	87,527
648,45	85,777
648,65	84,722
648,84	82,922
649,04	80,250
649,24	79,617
649,43	77,119
649,63	76,058
649,83	75,850
650,03	73,544
650,22	72,010
650,42	70,494
650,62	66,726
650,81	66,327
651,01	63,806
651,21	62,198
651,40	58,381
651,60	59,196
651,80	55,921
652,00	54,446
652,19	52,110
652,39	49,988
652,59	49,431
652,78	46,540
652,98	44,394
653,18	43,213
653,37	40,407
653,57	39,070
653,77	37,601
653,96	34,717
654,16	33,710
654,36	31,523
654,55	30,027
654,75	27,686
654,95	25,996
655,14	24,168
655,34	22,556
655,54	20,556
655,73	18,822
655,93	17,621
656,13	14,878
656,32	13,859
656,52	12,942
656,72	11,271
656,91	10,129
657,11	9,125
657,31	8,002
657,50	6,831
657,70	5,788
657,90	5,589
658,09	4,427
658,29	3,869
658,49	3,999
658,68	3,212
658,88	2,977
659,07	2,574
659,27	2,173
659,47	1,719
659,66	1,635
659,86	1,675
660,06	1,359
660,25	1,000
660,45	0,951
660,64	1,344
660,84	0,902
661,04	1,221
661,23	1,180
661,43	0,754
661,63	1,316
661,82	0,565
662,02	0,580
662,21	0,544
662,41	0,634
662,61	0,539
662,80	0,629
663,00	-0,034
663,19	0,876
663,39	0,746
663,59	0,336
663,78	0,231
663,98	0,555
664,17	0,573
664,37	0,430
664,57	0,441
664,76	0,423
664,96	0,631
665,15	0,687
665,35	0,506
665,55	0,619
665,74	0,138
665,94	0,195
666,13	-0,032
666,33	0,440
666,53	0,040
666,72	0,365
666,92	0,421
667,11	0,460
667,31	0,522
667,50	0,625
667,70	-0,016
667,90	0,302
668,09	0,357
668,29	0,362
668,48	0,258
668,68	0,161
668,87	0,347
669,07	0,251
669,26	0,337
669,46	0,343
669,66	0,165
669,85	0,083
670,05	0,044
670,24	0,491
670,44	0,408
670,63	0,441
670,83	0,276
671,02	0,188
671,22	0,472
671,42	0,504
671,61	0,101
671,81	0,187
672,00	-0,098
672,20	0,295
672,39	0,124
672,59	0,311
672,78	0,347
672,98	-0,166
673,17	0,095
673,37	0,321
673,56	0,296
673,76	0,372
673,95	0,188
674,15	0,086
674,34	0,464
674,54	0,399
674,73	0,136
674,93	0,097
675,13	0,390
675,32	0,379
675,52	-0,114
675,71	0,310
675,91	0,125
676,10	0,410
676,30	0,056
676,49	0,080
676,69	-0,025
676,88	0,146
677,08	0,168
677,27	0,108
677,47	0,154
677,66	0,499
677,86	0,398
678,05	0,070
678,24	-0,058
678,44	-0,155
678,63	-0,034
678,83	0,075
679,02	0,226
679,22	0,269
679,41	0,177
679,61	0,203
679,80	0,339
680,00	0,114
680,19	-0,065
680,39	0,223
680,58	0,170
680,78	0,127
680,97	0,095
681,17	0,041
681,36	0,161
681,56	0,036
681,75	0,171
681,94	0,236
682,14	0,090
682,33	0,247
682,53	0,098
682,72	0,248
682,92	0,087
683,11	0,038
683,31	-0,033
683,50	0,005
683,69	0,117
683,89	-0,005
684,08	-0,130
684,28	0,214
684,47	0,095
684,67	-0,307
684,86	0,031
685,06	0,124
685,25	-0,141
685,44	0,070
685,64	0,047
685,83	-0,026
686,03	0,180
686,22	0,055
686,42	-0,097
686,61	0,013
686,80	0,317
687,00	-0,054
687,19	0,159
687,39	-0,115
687,58	0,016
687,77	-0,068
687,97	0,232
688,16	-0,008
688,36	0,142
688,55	0,079
688,74	0,074
688,94	0,105
689,13	0,046
689,33	0,080
689,52	-0,065
689,71	0,177
689,91	-0,134
690,10	0,156
690,30	0,000
690,49	0,047
690,68	0,135
690,88	0,102
691,07	-0,119
691,27	0,176
691,46	0,162
691,65	0,147
691,85	-0,025
692,04	-0,033
692,23	-0,097
692,43	0,018
692,62	0,195
692,82	0,025
693,01	-0,097
693,20	-0,116
693,40	-0,062
693,59	0,077
693,78	-0,063
693,98	0,063
694,17	0,102
694,36	-0,026
694,56	-0,050
694,75	-0,035
694,94	-0,004
695,14	0,156
695,33	0,101
695,53	-0,357
695,72	0,029
695,91	0,042
696,11	0,022
696,30	0,004
696,49	0,031
696,69	0,115
696,88	0,103
697,07	0,111
697,27	0,148
697,46	0,081
697,65	-0,088
697,85	0,069
698,04	0,011
698,23	-0,249
698,43	0,245
698,62	-0,054
698,81	0,055
699,01	-0,172
699,20	0,175
699,39	-0,260
699,58	0,041
699,78	0,121
699,97	-0,015
700,16	-0,121
700,36	0,239
700,55	0,498
700,74	0,234
700,94	0,359
701,13	0,442
701,32	0,406
701,52	0,375
701,71	0,334
701,90	0,580
702,09	0,010
702,29	0,522
702,48	0,032
702,67	0,804
702,87	-0,174
703,06	0,117
703,25	0,257
703,44	0,000
703,64	0,465
703,83	0,572
704,02	-0,314
704,22	0,453
704,41	0,365
704,60	1,097
704,79	-0,258
704,99	0,372
705,18	-0,144
705,37	0,341
705,56	0,170
705,76	0,769
705,95	0,557
706,14	0,073
706,33	0,352
706,53	0,945
706,72	1,816
706,91	-0,371
707,11	-0,261
707,30	1,268
707,49	1,354
707,68	0,877
707,88	-0,797
708,07	0,418
708,26	0,375
708,45	0,406
708,64	1,170
708,84	0,175
709,03	0,751
709,22	0,581
709,41	2,507
709,61	0,056
709,80	0,196
709,99	1,626
710,18	1,308
710,38	1,924
710,57	1,016
710,76	2,203
710,95	2,234
711,14	0,862
711,34	0,305
711,53	0,673
711,72	1,803
711,91	1,302
712,11	1,509
712,30	1,763
712,49	-0,777
712,68	0,348
712,87	1,641
713,07	1,848
713,26	1,452
713,45	1,319
713,64	1,310
713,83	1,246
714,03	0,515
714,22	1,002
714,41	0,000
714,60	0,655
714,79	1,738
714,99	0,224
715,18	-0,282
715,37	1,017
715,56	1,667
715,75	1,892
715,94	0,661
716,14	0,337
716,33	0,155
716,52	1,404
716,71	-1,789
716,90	-0,475
717,10	2,558
717,29	2,354
717,48	1,927
717,67	-0,113
717,86	0,114
718,05	2,823
718,24	2,545
718,44	4,215
718,63	1,094
718,82	2,638
719,01	1,352
719,20	0,060
719,39	2,200
719,59	1,457
719,78	0,620
719,97	1,845
720,16	-0,630
720,35	2,282
720,54	1,277
720,73	3,586
720,93	2,228
721,12	2,305
721,31	3,863
721,50	4,190
721,69	3,558
721,88	1,316
722,07	3,639
722,27	0,389
722,46	-3,888
722,65	0,607
722,84	1,657
723,03	4,307
723,22	4,146
723,41	3,871
723,60	-0,505
723,79	4,587
723,99	4,951
724,18	0,879
724,37	-3,812
724,56	0,349
724,75	2,321
724,94	4,537
725,13	5,124
725,32	4,509
725,51	-0,269
725,71	4,058
725,90	4,388
726,09	3,612
726,28	3,013
726,47	4,136
726,66	2,629
726,85	0,974
727,04	2,248
727,23	5,762
727,42	3,187
727,61	0,728
727,81	4,009
728,00	2,407
728,19	1,905
728,38	1,709
728,57	2,366
728,76	7,091
728,95	4,481
729,14	8,253
729,33	0,886
729,52	6,865
729,71	2,910
729,90	0,349
730,09	1,183
730,28	4,019
730,48	1,937
730,67	2,235
730,86	4,152
731,05	0,859
731,24	5,065
731,43	6,064
731,62	6,667
731,81	5,378
732,00	5,479
732,19	5,639
732,38	5,818
732,57	4,146
732,76	-4,925
732,95	5,520
733,14	5,913
733,33	2,500
733,52	7,046
733,71	4,920
733,90	2,490
734,09	7,343
734,28	2,100
734,47	2,941
734,66	1,262
734,85	5,501
735,04	11,621
735,23	11,080
735,42	2,979
735,61	4,155
735,81	10,511
736,00	0,150
736,19	2,099
736,38	2,707
736,57	1,741
736,76	2,062
736,95	0,478
737,14	5,061
737,33	0,467
737,52	1,672
737,71	5,335
737,90	7,029
738,09	-7,586
738,28	3,571
738,47	7,235
738,66	7,288
738,85	0,000
739,04	5,797
739,22	5,317
739,41	6,283
739,60	0,898
739,79	2,131
739,98	5,838
740,17	4,223
740,36	7,576
740,55	7,468
740,74	5,948
740,93	5,396
741,12	9,862
741,31	-12,474
741,50	3,484
741,69	5,915
741,88	13,485
742,07	4,594
742,26	6,692
742,45	6,159
742,64	10,816
742,83	-0,220
743,02	8,635
743,21	2,257
743,40	8,238
743,59	1,965
743,78	-8,650
743,97	9,108
744,16	-0,647
744,34	1,240
744,53	-1,940
744,72	6,369
744,91	10,062
745,10	5,747
745,29	4,460
745,48	4,803
745,67	6,889
745,86	3,734
746,05	3,803
746,24	9,267
746,43	7,937
746,62	10,454
746,81	5,450
747,00	15,208
747,18	10,455
747,37	-1,364
747,56	3,432
747,75	-4,348
747,94	5,556
748,13	4,439
748,32	6,585
748,51	11,007
748,70	6,715
748,89	6,183
749,08	11,330
749,26	8,800
749,45	2,108
749,64	7,235
749,83	15,725
750,02	1,609
750,21	-1,302
750,40	8,179
750,59	-3,723
750,78	5,060
750,96	9,476
751,15	2,949
751,34	16,462
751,53	7,222
751,72	8,847
751,91	6,299
752,10	16,056
752,29	-4,638
752,47	4,885
752,66	7,692
752,85	8,201
753,04	10,270
753,23	13,419
753,42	12,968
753,61	17,629
753,80	-1,802
753,98	9,687
754,17	7,649
754,36	12,745
754,55	6,515
754,74	20,541
754,93	11,290
755,12	11,077
755,30	-0,369
755,49	21,114
755,68	4,384
755,87	3,754
756,06	12,680
756,25	2,640
756,43	20,144
756,62	4,693
756,81	-9,804
757,00	27,473
757,19	19,325
757,38	7,818
757,56	14,189
757,75	8,015
757,94	13,362
758,13	21,019
758,32	5,682
758,51	19,677
758,69	-8,013
758,88	17,705
759,07	23,488
759,26	7,143
759,45	10,000
759,63	-8,300
759,82	6,934
760,01	11,111
760,20	-1,460
760,39	16,858
760,57	-5,579
760,76	8,397
760,95	9,579
761,14	-5,000
761,33	2,344
761,51	21,111
761,70	29,310
761,89	21,705
762,08	9,052
762,27	5,288
762,45	13,208
762,64	14,602
762,83	13,383
763,02	9,689
763,21	8,099
763,39	-1,357
763,58	17,959
763,77	27,660
763,96	5,263
764,14	0,000
764,33	26,316
764,52	6,696
764,71	19,212
764,89	19,932
765,08	33,333
765,27	0,495
765,46	0,909
765,65	14,721
765,83	5,238
766,02	6,593
766,21	31,646
766,40	26,977
766,58	20,362
766,77	-6,215
766,96	11,795
767,15	17,874
767,33	-2,404
767,52	8,057
767,71	12,222
767,90	8,333
768,08	8,155
768,27	13,953
768,46	10,476
768,64	11,650
768,83	12,973
769,02	0,000
769,21	10,417
769,39	-13,423
769,58	32,500
769,77	11,957
769,96	29,139
770,14	11,069
770,33	9,626
770,52	28,205
770,70	25,248
770,89	4,082
771,08	7,292
771,27	1,031
771,45	19,653
771,64	38,816
771,83	28,495
772,01	4,580
772,20	22,727
772,39	14,013
772,57	34,896
772,76	33,103
772,95	15,228
773,14	38,372
773,32	-4,396
773,51	23,721
773,70	24,503
773,88	12,060
774,07	27,615
774,26	14,024
774,44	28,643
774,63	13,291
774,82	37,349
775,00	26,201
775,19	17,241
775,38	-12,000
775,56	16,463
775,75	8,982
775,94	34,328
776,12	-1,667
776,31	46,707
776,50	9,697
776,68	25,926
776,87	13,986
777,06	17,808
777,24	-17,213
777,43	34,959
777,62	19,259
777,80	25,543
777,99	30,573
778,18	22,930
778,36	25,191
778,55	28,889
778,74	18,939
778,92	33,032
779,11	21,935
779,29	32,680
779,48	-1,653
779,67	27,338
779,85	39,200
780,04	35,915
780,23	29,371
780,41	7,647
780,60	8,187
780,79	5,556
780,97	27,143
781,16	18,400
781,34	24,242
781,53	34,615
781,72	37,963
781,90	35,577
782,09	-9,016
782,28	47,967
782,46	21,951
782,65	20,280
782,83	16,031
783,02	20,800
783,21	48,062
783,39	28,205
783,58	70,000
783,76	4,054
783,95	22,517
784,14	-21,053
784,32	33,028
784,51	3,371
784,69	28,662
784,88	37,419
785,06	19,149
785,25	23,308
785,44	11,486
785,62	8,571
785,81	8,209
785,99	48,980
786,18	19,672
786,37	46,897
786,55	-9,701
786,74	48,447
786,92	45,349
787,11	36,000
787,29	31,765
787,48	33,000
787,67	34,694
787,85	14,062
788,04	65,068
788,22	40,741
788,41	51,316
788,59	67,347
788,78	47,917
788,96	60,952
789,15	43,443
789,34	10,976
789,52	25,373
789,71	-17,460
789,89	50,000
790,08	39,216
790,26	46,032
790,45	52,555
790,63	23,026
790,82	53,226
791,00	18,254
791,19	32,857
791,38	32,877
791,56	3,947
791,75	17,568
791,93	11,765
792,12	21,212
792,30	13,158
792,49	8,411
792,67	53,571
792,86	12,162
793,04	40,476
793,23	42,763
793,41	56,129
793,60	31,646
793,78	63,087
793,97	38,793
794,15	24,183
794,34	19,388
794,52	46,512
794,71	36,420
794,89	69,286
795,08	71,154
795,26	37,000
795,45	73,404
795,63	28,931
795,82	58,824
796,00	23,077
796,19	72,727
796,37	51,695
796,56	-1,852
796,74	61,719
796,93	56,303
797,11	37,500
797,30	75,573
797,48	36,364
797,67	33,871
797,85	49,275
798,04	58,559
798,22	46,763
798,41	102,542
798,59	75,714
798,77	46,154
798,96	38,710
799,14	100,000
799,33	76,991
799,51	55,446
799,70	57,143
799,88	22,936
800,07	51,799
800,25	51,908
800,44	45,545
800,62	58,993
800,80	53,409
800,99	64,103
801,17	38,621
801,36	26,042
801,54	37,984
801,73	38,636
801,91	33,708
802,10	70,588
802,28	37,008
802,46	47,581
802,65	53,642
802,83	21,488
803,02	47,959
803,20	77,119
803,39	72,477
803,57	35,915
803,75	22,143
803,94	65,541
804,12	57,764
804,31	72,115
804,49	40,000
804,67	16,216
804,86	62,112
805,04	34,109
805,23	54,015
805,41	44,118
805,59	24,699
805,78	28,571
805,96	31,928
806,15	32,000
806,33	6,569
806,51	60,256
806,70	32,558
806,88	15,455
807,07	40,984
807,25	15,652
807,43	30,000
807,62	44,531
807,80	18,902
807,99	40,288
808,17	20,139
808,35	24,528
808,54	42,458
808,72	17,949
808,90	21,138
809,09	45,255
809,27	39,806
809,46	38,318
809,64	23,699
809,82	20,690
810,01	45,161
810,19	6,364
810,37	54,545
810,56	52,318
810,74	54,717
810,92	17,606
811,11	25,767
811,29	49,068
811,48	-1,739
811,66	13,198
811,84	52,542
812,03	20,946
812,21	61,212
812,39	43,548
812,58	32,749
812,76	36,496
812,94	38,926
813,13	19,512
813,31	42,328
813,49	35,333
813,68	7,377
813,86	47,436
814,04	29,730
814,23	40,000
814,41	27,397
814,59	25,490
814,78	34,228
814,96	39,665
815,14	26,131
815,33	24,793
815,51	21,260
815,69	18,321
815,87	20,645
816,06	54,229
816,24	27,451
816,42	36,905
816,61	43,210
816,79	30,058
816,97	62,179
817,16	5,357
817,34	22,353
817,52	27,570
817,70	18,135
817,89	38,756
818,07	33,333
818,25	41,772
818,44	26,738
818,62	22,277
818,80	4,945
818,98	16,923
819,17	40,254
819,35	24,161
819,53	34,359
819,72	42,162
819,90	41,778
820,08	45,545
820,26	11,872
820,45	21,505
820,63	23,392
820,81	14,679
820,99	27,948
821,18	12,651
821,36	31,250
821,54	19,900
821,73	34,426
821,91	15,493
822,09	25,444
822,27	30,350
822,46	34,483
822,64	22,105
822,82	26,904
823,00	21,990
823,19	25,714
823,37	55,128
823,55	23,629
823,73	19,663
823,91	31,016
824,10	41,667
824,28	7,438
824,46	-7,895
824,64	36,531
824,83	38,863
825,01	26,471
825,19	30,131
825,37	20,588
825,56	39,313
825,74	42,424
825,92	40,078
826,10	28,194
826,28	36,900
826,47	9,728
826,65	34,892
826,83	32,018
827,01	41,732
827,19	44,961
827,38	34,457
827,56	51,000
827,74	25,592
827,92	31,707
828,10	12,847
828,29	33,579
828,47	51,825
828,65	47,266
828,83	33,755
829,01	42,793
829,20	37,692
829,38	40,984
829,56	31,987
829,74	47,692
829,92	39,676
830,10	31,330
830,29	38,697
830,47	44,030
830,65	36,402
830,83	47,279
831,01	56,951
831,20	24,818
831,38	34,853
831,56	46,316
831,74	41,695
831,92	36,264
832,10	37,342
832,29	46,643
832,47	42,908
832,65	45,246
832,83	49,684
833,01	30,211
833,19	34,659
833,37	50,456
833,56	47,321
833,74	46,557
833,92	41,554
834,10	39,458
834,28	41,463
834,46	45,087
834,64	49,067
834,83	36,261
835,01	39,426
835,19	37,234
835,37	44,350
835,55	36,544
835,73	32,768
835,91	35,103
836,09	27,303
836,28	34,451
836,46	46,018
836,64	35,171
836,82	29,121
837,00	26,518
837,18	36,667
837,36	41,642
837,54	29,508
837,72	27,342
837,91	35,411
838,09	30,303
838,27	23,316
838,45	45,479
838,63	39,437
838,81	22,188
838,99	45,358
839,17	29,814
839,35	30,926
839,53	19,643
839,72	35,989
839,90	37,556
840,08	31,765
840,26	25,984
840,44	31,807
840,62	18,598
840,80	45,714
840,98	44,295
841,16	28,261
841,34	35,076
841,52	34,130
841,70	33,995
841,89	32,346
842,07	40,460
842,25	39,203
842,43	34,307
842,61	40,662
842,79	34,014
842,97	28,604
843,15	27,349
843,33	34,156
843,51	44,130
843,69	35,156
843,87	36,290
844,05	34,557
844,23	33,472
844,41	39,165
844,59	37,967
844,77	36,701
844,95	42,424
845,13	40,000
845,31	27,112
845,50	41,615
845,68	35,546
845,86	41,870
846,04	38,840
846,22	36,842
846,40	34,298
846,58	44,821
846,76	44,422
846,94	36,382
847,12	32,692
847,30	38,837
847,48	40,619
847,66	35,185
847,84	39,223
848,02	41,360
848,20	37,853
848,38	36,250
848,56	40,395
848,74	34,608
848,92	34,880
849,10	40,845
849,28	30,709
849,46	29,390
849,64	41,240
849,82	45,208
850,00	35,919
850,18	31,220
850,36	32,285
850,54	31,949
850,72	33,333
850,90	31,260
851,08	32,598
851,26	38,673
851,44	35,218
851,62	41,287
851,80	32,078
851,98	35,596
852,16	34,828
852,34	32,113
852,52	29,290
852,70	30,914
852,87	24,017
853,05	38,682
853,23	28,024
853,41	35,493
853,59	28,860
853,77	32,994
853,95	27,139
854,13	28,125
854,31	27,224
854,49	28,973
854,67	36,428
854,85	28,032
855,03	36,203
855,21	35,450
855,39	32,770
855,57	32,773
855,75	34,529
855,93	24,860
856,11	31,518
856,28	30,226
856,46	30,789
856,64	29,610
856,82	31,611
857,00	34,137
857,18	35,894
857,36	35,945
857,54	39,342
857,72	36,981
857,90	34,487
858,08	36,068
858,26	39,596
858,44	35,962
858,61	35,367
858,79	39,094
858,97	39,773
859,15	40,959
859,33	34,620
859,51	40,116
859,69	42,614
859,87	38,089
860,05	34,194
860,23	40,321
860,40	34,863
860,58	37,958
860,76	36,413
860,94	37,714
861,12	37,642
861,30	35,699
861,48	39,193
861,66	34,342
861,84	40,801
862,01	35,135
862,19	38,211
862,37	35,861
862,55	39,271
862,73	37,810
862,91	40,247
863,09	37,064
863,27	37,668
863,44	34,038
863,62	34,049
863,80	39,122
863,98	36,556
864,16	35,551
864,34	37,625
864,52	40,888
864,69	38,655
864,87	39,490
865,05	38,686
865,23	36,162
865,41	32,937
865,59	35,236
865,76	34,728
865,94	36,004
866,12	34,783
866,30	36,500
866,48	34,190
866,66	34,957
866,83	41,131
867,01	41,571
867,19	34,213
867,37	38,362
867,55	37,840
867,73	36,017
867,90	37,154
868,08	43,656
868,26	39,636
868,44	36,706
868,62	39,868
868,79	44,556
868,97	39,515
869,15	45,004
869,33	44,197
869,51	47,956
869,69	42,546
869,86	44,389
870,04	42,405
870,22	44,174
870,40	47,689
870,57	47,619
870,75	45,738
870,93	45,218
871,11	40,215
871,29	47,797
871,46	47,154
871,64	44,520
871,82	46,983
872,00	46,386
872,18	42,593
872,35	48,233
872,53	47,588
872,71	42,244
872,89	44,926
873,06	45,217
873,24	44,065
873,42	47,560
873,60	45,314
873,77	45,530
873,95	46,625
874,13	48,516
874,31	46,312
874,49	44,496
874,66	47,843
874,84	42,980
875,02	47,812
875,20	47,144
875,37	46,270
875,55	42,263
875,73	45,367
875,91	44,603
876,08	43,243
876,26	44,294
876,44	43,046
876,61	44,876
876,79	42,228
876,97	44,380
877,15	46,787
877,32	42,619
877,50	43,951
877,68	42,117
877,86	42,543
878,03	41,406
878,21	44,235
878,39	41,871
878,56	42,079
878,74	45,925
878,92	43,390
879,10	45,244
879,27	45,255
879,45	45,297
879,63	43,955
879,80	44,416
879,98	42,295
880,16	43,409
880,34	43,518
880,51	45,256
880,69	41,654
880,87	45,126
881,04	42,977
881,22	39,778
881,40	39,741
881,57	43,960
881,75	42,661
881,93	38,258
882,10	41,844
882,28	39,008
882,46	39,304
882,63	38,776
882,81	40,480
882,99	37,647
883,16	41,254
883,34	41,632
883,52	38,465
883,69	38,174
883,87	37,107
884,05	38,314
884,22	35,329
884,40	37,377
884,58	33,907
884,75	33,723
884,93	34,549
885,11	39,523
885,28	35,968
885,46	35,462
885,64	33,426
885,81	32,856
885,99	32,388
886,17	32,629
886,34	33,174
886,52	34,596
886,70	32,574
886,87	33,644
887,05	31,587
887,22	32,485
887,40	34,424
887,58	32,626
887,75	31,321
887,93	35,231
888,11	31,387
888,28	34,581
888,46	33,309
888,63	32,862
888,81	33,309
888,99	36,161
889,16	33,443
889,34	35,298
889,51	35,290
889,69	34,826
889,87	33,825
890,04	34,796
890,22	34,534
890,39	34,653
890,57	37,808
890,75	35,501
890,92	35,897
891,10	34,275
891,27	35,070
891,45	34,962
891,63	32,956
891,80	36,918
891,98	34,142
892,15	32,733
892,33	34,282
892,51	33,407
892,68	33,764
892,86	34,499
893,03	34,357
893,21	35,737
893,38	35,906
893,56	34,502
893,74	34,041
893,91	34,336
894,09	35,881
894,26	34,184
894,44	34,297
894,61	34,057
894,79	33,410
894,96	33,889
895,14	35,001
895,32	34,060
895,49	34,975
895,67	32,522
895,84	35,273
896,02	32,882
896,19	32,890
896,37	32,833
896,54	34,082
896,72	33,917
896,89	32,396
897,07	31,913
897,25	33,829
897,42	31,534
897,60	32,355
897,77	32,281
897,95	32,750
898,12	33,173
898,30	33,078
898,47	31,169
898,65	33,797
898,82	30,901
899,00	32,573
899,17	32,594
899,35	30,993
899,52	33,413
899,70	32,409
899,87	31,658
900,05	32,423
900,22	32,310
900,40	31,403
900,57	30,005
900,75	32,014
900,92	31,174
901,10	30,593
901,27	31,089
901,45	31,534
901,62	28,768
901,80	32,646
901,97	32,867
902,15	31,315
902,32	31,412
902,50	32,224
902,67	31,094
902,85	31,391
903,02	31,497
903,20	29,949
903,37	31,734
903,54	30,922
903,72	30,000
903,89	32,043
904,07	30,846
904,24	32,972
904,42	32,365
904,59	33,449
904,77	33,209
904,94	34,729
905,12	33,861
905,29	33,366
905,47	33,934
905,64	33,349
905,81	36,014
905,99	33,252
906,16	37,612
906,34	35,704
906,51	36,184
906,69	36,073
906,86	37,998
907,03	37,073
907,21	36,582
907,38	38,452
907,56	35,343
907,73	39,226
907,91	39,093
908,08	37,388
908,25	37,666
908,43	39,610
908,60	40,931
908,78	40,857
908,95	40,244
909,13	40,574
909,30	40,729
909,47	40,751
909,65	41,815
909,82	41,461
910,00	40,549
910,17	39,621
910,34	41,650
910,52	41,238
910,69	40,300
910,87	42,275
911,04	41,111
911,21	42,665
911,39	41,014
911,56	41,745
911,73	44,063
911,91	43,481
912,08	42,961
912,26	41,984
912,43	42,912
912,60	42,978
912,78	43,043
912,95	41,061
913,13	42,235
913,30	41,321
913,47	42,135
913,65	43,270
913,82	41,764
913,99	42,804
914,17	43,364
914,34	41,462
914,51	42,577
914,69	42,981
914,86	42,180
915,03	42,966
915,21	42,055
915,38	42,863
915,56	41,413
915,73	43,228
915,90	42,388
916,08	42,345
916,25	43,569
916,42	44,078
916,60	44,150
916,77	43,541
916,94	43,641
917,12	41,226
917,29	43,638
917,46	43,835
917,64	42,263
917,81	42,939
917,98	42,374
918,16	43,352
918,33	46,278
918,50	42,226
918,67	43,537
918,85	43,933
919,02	42,801
919,19	43,648
919,37	44,714
919,54	43,315
919,71	43,668
919,89	44,284
920,06	44,440
920,23	44,546
920,41	41,349
920,58	42,898
920,75	42,332
920,92	43,416
921,10	41,908
921,27	41,632
921,44	41,424
921,62	40,449
921,79	40,577
921,96	41,552
922,13	41,081
922,31	42,053
922,48	38,902
922,65	40,094
922,82	40,095
923,00	39,874
923,17	38,577
923,34	38,436
923,52	36,409
923,69	37,026
923,86	37,725
924,03	36,439
924,21	35,650
924,38	35,834
924,55	36,403
924,72	34,554
924,90	35,173
925,07	34,131
925,24	33,533
925,41	33,394
925,59	33,294
925,76	33,616
925,93	33,128
926,10	31,791
926,28	31,401
926,45	31,376
926,62	31,942
926,79	30,941
926,96	30,206
927,14	30,960
927,31	29,802
927,48	30,064
927,65	30,700
927,83	29,250
928,00	27,958
928,17	27,970
928,34	28,199
928,51	29,051
928,69	29,016
928,86	28,918
929,03	28,461
929,20	28,312
929,37	28,319
929,55	27,896
929,72	28,375
929,89	28,733
930,06	27,925
930,23	28,935
930,41	29,241
930,58	29,455
930,75	29,283
930,92	29,820
931,09	29,671
931,27	30,258
931,44	29,615
931,61	30,675
931,78	31,433
931,95	31,096
932,12	30,111
932,30	31,179
932,47	32,334
932,64	30,462
932,81	30,166
932,98	31,707
933,16	32,918
933,33	32,046
933,50	32,994
933,67	32,191
933,84	32,155
934,01	32,971
934,18	33,461
934,36	33,571
934,53	32,910
934,70	33,852
934,87	33,452
935,04	32,295
935,21	32,144
935,38	32,897
935,56	32,697
935,73	33,304
935,90	32,127
936,07	32,747
936,24	31,822
936,41	32,179
936,58	32,163
936,76	32,654
936,93	32,370
937,10	32,595
937,27	32,449
937,44	33,328
937,61	31,681
937,78	30,251
937,95	32,441
938,13	31,847
938,30	30,974
938,47	31,334
938,64	30,605
938,81	30,461
938,98	31,349
939,15	30,882
939,32	30,773
939,49	31,485
939,66	29,989
939,84	31,011
940,01	30,264
940,18	29,728
940,35	29,868
940,52	29,576
940,69	29,685
940,86	29,395
941,03	30,804
941,20	28,436
941,37	29,901
941,54	29,083
941,71	28,505
941,89	28,268
942,06	29,355
942,23	27,777
942,40	28,784
942,57	28,848
942,74	28,006
942,91	28,358
943,08	28,583
943,25	27,557
943,42	28,473
943,59	27,753
943,76	28,208
943,93	27,724
944,10	29,366
944,27	28,452
944,44	28,465
944,61	27,786
944,79	27,212
944,96	28,085
945,13	29,930
945,30	28,426
945,47	28,313
945,64	28,042
945,81	28,882
945,98	28,479
946,15	27,851
946,32	28,699
946,49	30,511
946,66	28,826
946,83	28,738
947,00	28,337
947,17	28,844
947,34	31,105
947,51	30,100
947,68	28,766
947,85	31,117
948,02	29,436
948,19	32,006
948,36	31,259
948,53	30,267
948,70	29,078
948,87	30,817
949,04	30,124
949,21	32,748
949,38	31,244
949,55	31,317
949,72	31,236
949,89	31,399
950,06	32,573
950,23	33,444
950,40	31,325
950,57	31,291
950,74	32,045
950,91	32,483
951,08	33,547
951,25	34,110
951,42	33,584
951,59	31,848
951,76	33,588
951,93	33,436
952,10	34,400
952,27	34,766
952,44	35,166
952,61	36,231
952,77	36,470
952,94	34,924
953,11	36,150
953,28	36,827
953,45	37,971
953,62	38,033
953,79	36,835
953,96	36,417
954,13	36,175
954,30	36,752
954,47	37,735
954,64	37,208
954,81	36,138
954,98	35,117
955,15	35,461
955,32	39,575
955,49	35,578
955,65	37,709
955,82	37,123
955,99	40,376
956,16	36,780
956,33	38,912
956,50	40,231
956,67	37,263
956,84	36,643
957,01	38,424
957,18	37,538
957,35	38,749
957,52	34,849
957,68	36,196
957,85	37,734
958,02	39,086
958,19	39,216
958,36	37,128
958,53	38,202
958,70	37,624
958,87	37,851
959,04	41,261
959,21	36,502
959,37	41,089
959,54	39,731
959,71	37,568
959,88	35,781
960,05	40,793
960,22	37,014
960,39	42,668
960,56	41,673
960,72	42,318
960,89	42,476
961,06	45,374
961,23	42,096
961,40	42,062
961,57	36,708
961,74	39,383
961,90	44,193
962,07	44,732
962,24	49,895
962,41	43,988
962,58	44,036
962,75	44,024
962,92	40,682
963,08	41,110
963,25	44,668
963,42	40,319
963,59	41,134
963,76	42,931
963,93	41,741
964,10	41,366
964,26	39,252
964,43	49,044
964,60	43,343
964,77	44,564
964,94	50,000
965,10	45,098
965,27	43,074
965,44	49,500
965,61	50,772
965,78	50,791
965,95	46,484
966,11	54,697
966,28	55,165
966,45	43,619
966,62	42,949
966,79	53,659
966,95	43,534
967,12	48,086
967,29	56,542
967,46	48,696
967,63	46,420
967,79	56,522
967,96	56,430
968,13	57,053
968,30	36,885
968,47	63,588
968,63	44,083
968,80	66,207
968,97	70,571
969,14	50,737
969,31	65,385
969,47	57,413
969,64	54,455
969,81	54,386
969,98	48,830
970,14	46,296
970,31	50,896
970,48	61,922
970,65	65,141
970,81	54,082
970,98	67,416
971,15	66,820
971,32	40,254
971,48	65,074
971,65	42,437
971,82	63,776
971,99	45,274
972,15	65,789
972,32	48,971
972,49	50,644
972,66	39,823
972,82	56,931
972,99	66,383
973,16	79,897
973,33	70,476
973,49	81,667
973,66	77,311
973,83	72,109
974,00	100,000
974,16	83,648
974,33	83,537
974,50	80,556
974,67	58,947
974,83	68,362
975,00	63,768
975,17	63,265
975,33	73,913
975,50	87,879
975,67	50,893
975,84	69,504
976,00	81,538
976,17	52,941
976,34	69,504
976,50	86,087
976,67	34,483
976,84	130,769
977,00	52,632
977,17	67,717
977,34	136,559
977,50	103,191
977,67	69,298
977,84	60,000
978,01	120,690
978,17	120,513
978,34	65,625
978,51	30,303
978,67	92,308
978,84	80,208
979,01	66,154
979,17	106,061
979,34	187,500
979,51	113,462
979,67	90,000
979,84	105,952
980,01	85,246
980,17	97,647
980,34	81,159
980,51	93,182
980,67	92,000
980,84	62,069
981,01	-38,462
981,17	104,000
981,34	512,500
981,50	86,765
981,67	120,690
981,84	82,759
982,00	21,739
982,17	486,364
982,34	123,077
982,50	305,263
982,67	87,037
982,84	130,952
983,00	136,000
983,17	137,500
983,33	112,903
983,50	77,174
983,67	89,130
983,83	1283,333
984,00	131,250
984,17	180,000
984,33	108,108
984,50	73,958
984,66	135,714
984,83	108,140
985,00	229,508
985,16	94,872
985,33	168,750
985,49	234,483
985,66	233,333
985,83	129,825
985,99	63,063
986,16	316,000
986,32	102,899
986,49	591,667
986,66	-23,256
986,82	164,912
986,99	128,571
987,15	189,655
987,32	107,407
987,49	80,556
987,65	410,000
987,82	35,294
987,98	170,588
988,15	178,571
988,31	92,000
988,48	-108,333
988,65	233,333
988,81	176,087
988,98	291,667
989,14	171,429
989,31	296,667
989,47	87,805
989,64	98,571
989,80	206,667
989,97	80,882
990,14	234,783
990,30	130,000
990,47	75,610
990,63	300,000
990,80	127,273
990,96	366,667
991,13	72,222
991,29	33,333
991,46	178,431
991,62	223,529
991,79	129,825
991,95	390,000
992,12	100,000
992,29	140,000
992,45	-261,538
992,62	-560,000
992,78	-40,741
992,95	127,778
993,11	190,000
993,28	48,148
993,44	186,957
993,61	100,000
993,77	1000,000
993,94	193,023
994,10	242,857
994,27	240,000
994,43	382,353
994,60	-124,242
994,76	263,158
994,93	168,182
995,09	-213,514
995,26	102,469
995,42	59,322
995,59	185,714
995,75	203,125
995,92	340,909
996,08	175,000
996,25	155,556
996,41	95,833
996,58	235,135
996,74	570,000
996,91	411,111
997,07	296,154
997,23	200,000
997,40	1733,333
997,56	73,333
997,73	0,000
997,89	314,815
998,06	-31,373
998,22	-500,000
998,39	478,261
998,55	-204,167
998,72	335,000
998,88	2433,333
999,05	76,923
999,21	86,957
999,37	-1200,000
999,54	-1050,000
999,70	453,846
999,87	-68,750
1000,03	196,875
1000,20	66,667
1000,36	2300,000
1000,52	361,111
1000,69	122,727
1000,85	153,448
1001,02	109,231
1001,18	197,727
1001,35	-24,444
1001,51	-107,143
1001,67	-10,667
1001,84	1050,000
1002,00	227,500
1002,17	159,091
1002,33	-94,118
1002,50	100,000
1002,66	2500,000
1002,82	134,286
1002,99	-230,769
1003,15	265,217
1003,32	90,323
1003,48	-1100,000
1003,64	100,000
1003,81	-25,000
1003,97	231,818
1004,14	2400,000
1004,30	-914,286
1004,46	1225,000
1004,63	415,789
1004,79	-206,667
1004,95	41,176
1005,12	-485,714
1005,28	268,966
1005,45	107,692
1005,61	-1400,000
1005,77	92,105
1005,94	132,258
1006,10	-2500,000
1006,26	91,071
1006,43	500,000
1006,59	-51,852
1006,76	72,000
1006,92	1560,000
1007,08	420,000
1007,25	-5,556
1007,41	-358,333
1007,57	-306,250
1007,74	69,565
1007,90	-560,000
1008,06	137,143
1008,23	175,926
1008,39	1000,000
1008,55	-171,429
1008,72	337,500
1008,88	136,000
1009,04	212,000
1009,21	-29,412
1009,37	-87,500
1009,53	-31,579
1009,70	-469,231
1009,86	102,273
1010,02	707,692
1010,19	0,000
1010,35	181,250
1010,51	833,333
1010,68	925,000
1010,84	66,667
1011,00	51,111
1011,17	-720,000
1011,33	335,294
1011,49	115,625
1011,66	430,435
1011,82	-94,340
1011,98	15,909
1012,14	100,000
1012,31	-720,000
1012,47	1600,000
1012,63	555,556
1012,80	212,000
1012,96	-381,818
1013,12	116,279
1013,29	152,632
1013,45	26,667
1013,61	22,222
1013,77	155,556
1013,94	106,250
1014,10	-54,545
1014,26	3950,000
1014,43	-139,394
1014,59	-1050,000
1014,75	800,000
1014,91	1333,333
1015,08	220,000
1015,24	-866,667
1015,40	-300,000
1015,56	633,333
1015,73	153,333
1015,89	138,095
1016,05	960,000
1016,21	-600,000
1016,38	940,000
1016,54	-261,538
1016,70	-33,333
1016,86	224,242
1017,03	217,949
1017,19	265,217
1017,35	-276,923
1017,51	211,429
1017,68	290,909
1017,84	3900,000
1018,00	628,571
1018,16	100,000
1018,33	-700,000
1018,49	134,146
1018,65	-5,882
1018,81	-185,000
1018,97	-575,000
1019,14	266,667
1019,30	325,000
1019,46	822,222
1019,62	220,000
1019,79	258,333
1019,95	137,500
1020,11	28,571
1020,27	308,333
1020,43	-457,143
1020,60	-42,105
1020,76	-183,333
1020,92	557,143
1021,08	4800,000
1021,24	350,000
1021,41	-35,294
1021,57	100,000
1021,73	-250,000
1021,89	-192,857
1022,05	1125,000
1022,21	271,795
1022,38	-250,000
1022,54	1800,000
1022,70	-136,364
1022,86	1050,000
1023,02	-200,000
1023,19	-533,333
1023,35	238,710
1023,51	232,143
1023,67	195,833
1023,83	1166,667
1023,99	211,111
1024,16	88,095
1024,32	4,000
1024,48	295,455
1024,64	600,000
1024,80	-72,222
1024,96	196,552
1025,12	-285,714
1025,29	78,571
1025,45	183,333
1025,61	-1233,333
1025,77	-141,935
1025,93	80,000
1026,09	107,317
1026,26	173,684
1026,42	-100,000
1026,58	-78,261
1026,74	308,333
1026,90	183,333
1027,06	-51,282
1027,22	-191,304
1027,38	100,000
1027,55	1266,667
1027,71	320,000
1027,87	112,500
1028,03	-300,000
1028,19	-129,412
1028,35	-228,571
1028,51	248,000
1028,67	114,706
1028,83	115,556
1029,00	512,500
1029,16	94,595
1029,32	57,143
1029,48	-314,286
1029,64	-192,308
1029,80	54,545
1029,96	966,667
1030,12	394,737
1030,28	-350,000
1030,44	1080,000
1030,61	190,909
1030,77	-16,667
1030,93	-300,000
1031,09	775,000
1031,25	0,000
1031,41	260,000
1031,57	-1050,000
1031,73	-1225,000
1031,89	-81,818
1032,05	-34,884
1032,21	-115,152
1032,37	144,643
1032,53	-103,448
1032,69	184,615
1032,86	-516,667
1033,02	-377,778
1033,18	316,667
1033,34	-1500,000
1033,50	343,750
1033,66	-104,000
1033,82	388,889
1033,98	1800,000
1034,14	-371,429
1034,30	-73,333
1034,46	185,294
1034,62	158,974
1034,78	-82,609
1034,94	241,935
1035,10	-238,462
1035,26	600,000
1035,42	-13,333
1035,58	341,667
1035,74	145,946
1035,90	387,500
1036,06	70,588
1036,22	178,788
1036,38	-343,750
1036,54	-150,000
1036,70	100,000
1036,86	-10,000
1037,02	-292,857
1037,18	-123,529
1037,34	144,444
1037,50	-700,000
1037,66	-1900,000
1037,82	290,476
1037,98	312,500
1038,14	-1300,000
1038,30	182,759
1038,46	-642,857
1038,62	366,667
1038,78	-242,857
1038,94	220,000
1039,10	168,000
1039,26	-170,833
1039,42	215,217
1039,58	-350,000
1039,74	100,000
1039,90	-650,000
1040,06	21,538
>>>>>End Processed Spectral Data<<<<<
