SpectraSuite Data File
++++++++++++++++++++++++++++++++++++
Date: Tue Jan 31 18:28:55 EET 2017
User: optolab
Spectrometer Serial Number: USB4C02475
Spectrometer Channel: 0
Integration Time (usec): 100000
Spectra Averaged: 1
Boxcar Smoothing: 0
Correct for Electrical Dark: No
Strobe/Lamp Enabled: No
Correct for Detector Non-linearity: No
Correct for Stray Light: No
Number of Pixels in Spectrum: 3648
>>>>>Begin Spectral Data<<<<<
344,91	1189,870
345,13	1189,870
345,35	1189,870
345,57	1173,486
345,79	1198,062
346,00	1777,637
346,22	1570,792
346,44	1517,545
346,66	1605,608
346,87	1492,969
347,09	1581,032
347,31	1472,490
347,53	1601,512
347,74	1587,176
347,96	1585,128
348,18	1492,969
348,40	1454,058
348,61	1576,936
348,83	1587,176
349,05	1554,408
349,27	1464,298
349,48	1550,312
349,70	1578,984
349,92	1525,737
350,14	1538,025
350,35	1572,840
350,57	1611,751
350,79	1585,128
351,01	1730,534
351,22	1576,936
351,44	1597,416
351,66	1482,729
351,87	1617,895
352,09	1599,464
352,31	1603,560
352,53	1548,264
352,74	1646,567
352,96	1615,847
353,18	1511,401
353,40	1525,737
353,61	1466,346
353,83	1628,135
354,05	1599,464
354,26	1529,833
354,48	1581,032
354,70	1503,209
354,92	1605,608
355,13	1607,655
355,35	1656,807
355,57	1603,560
355,78	1585,128
356,00	1681,382
356,22	1519,593
356,44	1675,238
356,65	1509,353
356,87	1652,711
357,09	1626,087
357,30	1464,298
357,52	1564,648
357,74	1607,655
357,95	1535,977
358,17	1576,936
358,39	1542,120
358,60	1507,305
358,82	1497,065
359,04	1658,855
359,26	1431,530
359,47	1535,977
359,69	1712,102
359,91	1583,080
360,12	1605,608
360,34	1492,969
360,56	1474,538
360,77	1529,833
360,99	1632,231
361,21	1490,921
361,42	1548,264
361,64	1640,423
361,86	1552,360
362,07	1712,102
362,29	1538,025
362,51	1550,312
362,72	1529,833
362,94	1550,312
363,16	1531,881
363,37	1712,102
363,59	1538,025
363,81	1548,264
364,02	1708,006
364,24	1505,257
364,46	1544,168
364,67	1519,593
364,89	1585,128
365,11	1527,785
365,32	1527,785
365,54	1550,312
365,76	1591,272
365,97	1624,039
366,19	1601,512
366,41	1503,209
366,62	1595,368
366,84	1431,530
367,05	1503,209
367,27	1581,032
367,49	1398,763
367,70	1540,072
367,92	1499,113
368,14	1560,552
368,35	1505,257
368,57	1476,585
368,79	1589,224
369,00	1550,312
369,22	1566,696
369,43	1628,135
369,65	1587,176
369,87	1527,785
370,08	1556,456
370,30	1548,264
370,51	1492,969
370,73	1431,530
370,95	1562,600
371,16	1464,298
371,38	1566,696
371,60	1562,600
371,81	1560,552
372,03	1605,608
372,24	1550,312
372,46	1523,689
372,68	1402,859
372,89	1492,969
373,11	1568,744
373,32	1634,279
373,54	1585,128
373,76	1552,360
373,97	1437,674
374,19	1486,825
374,40	1662,951
374,62	1621,991
374,84	1624,039
375,05	1456,106
375,27	1634,279
375,48	1462,250
375,70	1509,353
375,92	1525,737
376,13	1568,744
376,35	1523,689
376,56	1490,921
376,78	1562,600
376,99	1470,442
377,21	1525,737
377,43	1535,977
377,64	1509,353
377,86	1521,641
378,07	1529,833
378,29	1632,231
378,51	1529,833
378,72	1554,408
378,94	1476,585
379,15	1409,002
379,37	1474,538
379,58	1550,312
379,80	1503,209
380,01	1542,120
380,23	1529,833
380,45	1499,113
380,66	1585,128
380,88	1574,888
381,09	1556,456
381,31	1570,792
381,52	1521,641
381,74	1492,969
381,95	1572,840
382,17	1499,113
382,39	1560,552
382,60	1531,881
382,82	1456,106
383,03	1472,490
383,25	1400,811
383,46	1587,176
383,68	1468,394
383,89	1626,087
384,11	1531,881
384,32	1507,305
384,54	1482,729
384,76	1542,120
384,97	1464,298
385,19	1423,338
385,40	1564,648
385,62	1550,312
385,83	1587,176
386,05	1458,154
386,26	1538,025
386,48	1533,929
386,69	1468,394
386,91	1482,729
387,12	1482,729
387,34	1472,490
387,55	1378,283
387,77	1499,113
387,98	1470,442
388,20	1566,696
388,41	1464,298
388,63	1529,833
388,84	1466,346
389,06	1603,560
389,27	1572,840
389,49	1503,209
389,70	1554,408
389,92	1472,490
390,13	1501,161
390,35	1456,106
390,56	1527,785
390,78	1505,257
390,99	1499,113
391,21	1511,401
391,42	1501,161
391,64	1525,737
391,85	1458,154
392,07	1445,866
392,28	1404,907
392,50	1509,353
392,71	1445,866
392,93	1398,763
393,14	1585,128
393,36	1511,401
393,57	1497,065
393,79	1490,921
394,00	1482,729
394,22	1454,058
394,43	1421,290
394,65	1544,168
394,86	1413,098
395,08	1431,530
395,29	1372,139
395,50	1556,456
395,72	1466,346
395,93	1568,744
396,15	1519,593
396,36	1439,722
396,58	1556,456
396,79	1519,593
397,01	1421,290
397,22	1468,394
397,44	1531,881
397,65	1417,194
397,87	1419,242
398,08	1529,833
398,29	1529,833
398,51	1640,423
398,72	1365,995
398,94	1490,921
399,15	1486,825
399,37	1499,113
399,58	1376,235
399,80	1482,729
400,01	1443,818
400,22	1495,017
400,44	1591,272
400,65	1574,888
400,87	1509,353
401,08	1488,873
401,30	1368,043
401,51	1497,065
401,72	1511,401
401,94	1380,331
402,15	1495,017
402,37	1427,434
402,58	1421,290
402,80	1476,585
403,01	1376,235
403,22	1501,161
403,44	1476,585
403,65	1527,785
403,87	1409,002
404,08	1560,552
404,30	1492,969
404,51	1474,538
404,72	1431,530
404,94	1431,530
405,15	1497,065
405,37	1458,154
405,58	1458,154
405,79	1441,770
406,01	1437,674
406,22	1486,825
406,44	1388,523
406,65	1513,449
406,86	1462,250
407,08	1388,523
407,29	1468,394
407,51	1396,715
407,72	1581,032
407,93	1404,907
408,15	1474,538
408,36	1445,866
408,58	1431,530
408,79	1429,482
409,00	1474,538
409,22	1454,058
409,43	1435,626
409,64	1564,648
409,86	1466,346
410,07	1460,202
410,29	1406,955
410,50	1441,770
410,71	1501,161
410,93	1406,955
411,14	1466,346
411,35	1544,168
411,57	1396,715
411,78	1470,442
412,00	1415,146
412,21	1585,128
412,42	1437,674
412,64	1486,825
412,85	1400,811
413,06	1447,914
413,28	1482,729
413,49	1507,305
413,70	1398,763
413,92	1492,969
414,13	1325,036
414,34	1482,729
414,56	1503,209
414,77	1538,025
414,98	1419,242
415,20	1415,146
415,41	1490,921
415,63	1490,921
415,84	1495,017
416,05	1439,722
416,27	1435,626
416,48	1482,729
416,69	1425,386
416,91	1365,995
417,12	1382,379
417,33	1503,209
417,55	1519,593
417,76	1564,648
417,97	1398,763
418,19	1433,578
418,40	1454,058
418,61	1435,626
418,83	1480,681
419,04	1472,490
419,25	1495,017
419,46	1413,098
419,68	1394,667
419,89	1507,305
420,10	1466,346
420,32	1495,017
420,53	1427,434
420,74	1437,674
420,96	1415,146
421,17	1404,907
421,38	1464,298
421,60	1445,866
421,81	1413,098
422,02	1507,305
422,23	1449,962
422,45	1402,859
422,66	1386,475
422,87	1421,290
423,09	1462,250
423,30	1511,401
423,51	1495,017
423,73	1464,298
423,94	1478,633
424,15	1409,002
424,36	1488,873
424,58	1464,298
424,79	1476,585
425,00	1394,667
425,22	1378,283
425,43	1406,955
425,64	1335,276
425,85	1329,132
426,07	1499,113
426,28	1390,571
426,49	1378,283
426,71	1472,490
426,92	1409,002
427,13	1378,283
427,34	1406,955
427,56	1546,216
427,77	1400,811
427,98	1447,914
428,19	1521,641
428,41	1363,947
428,62	1449,962
428,83	1538,025
429,04	1388,523
429,26	1449,962
429,47	1439,722
429,68	1431,530
429,89	1466,346
430,11	1415,146
430,32	1370,091
430,53	1445,866
430,74	1441,770
430,96	1523,689
431,17	1423,338
431,38	1505,257
431,59	1341,420
431,81	1472,490
432,02	1406,955
432,23	1492,969
432,44	1376,235
432,66	1480,681
432,87	1460,202
433,08	1454,058
433,29	1525,737
433,51	1454,058
433,72	1501,161
433,93	1419,242
434,14	1525,737
434,35	1449,962
434,57	1519,593
434,78	1427,434
434,99	1454,058
435,20	1511,401
435,42	1423,338
435,63	1454,058
435,84	1462,250
436,05	1540,072
436,26	1466,346
436,48	1486,825
436,69	1486,825
436,90	1466,346
437,11	1396,715
437,32	1519,593
437,54	1490,921
437,75	1581,032
437,96	1527,785
438,17	1437,674
438,38	1458,154
438,60	1474,538
438,81	1413,098
439,02	1435,626
439,23	1464,298
439,44	1341,420
439,66	1458,154
439,87	1447,914
440,08	1384,427
440,29	1529,833
440,50	1388,523
440,72	1439,722
440,93	1456,106
441,14	1431,530
441,35	1435,626
441,56	1435,626
441,77	1411,050
441,99	1404,907
442,20	1507,305
442,41	1441,770
442,62	1441,770
442,83	1490,921
443,04	1423,338
443,26	1394,667
443,47	1548,264
443,68	1419,242
443,89	1421,290
444,10	1495,017
444,31	1499,113
444,53	1503,209
444,74	1423,338
444,95	1466,346
445,16	1476,585
445,37	1458,154
445,58	1470,442
445,80	1544,168
446,01	1495,017
446,22	1517,545
446,43	1370,091
446,64	1456,106
446,85	1484,777
447,06	1382,379
447,28	1468,394
447,49	1406,955
447,70	1433,578
447,91	1439,722
448,12	1372,139
448,33	1460,202
448,54	1466,346
448,76	1513,449
448,97	1501,161
449,18	1540,072
449,39	1478,633
449,60	1409,002
449,81	1392,619
450,02	1499,113
450,23	1435,626
450,45	1509,353
450,66	1474,538
450,87	1417,194
451,08	1466,346
451,29	1482,729
451,50	1431,530
451,71	1472,490
451,92	1552,360
452,13	1425,386
452,35	1456,106
452,56	1421,290
452,77	1441,770
452,98	1521,641
453,19	1511,401
453,40	1458,154
453,61	1521,641
453,82	1443,818
454,03	1425,386
454,25	1423,338
454,46	1447,914
454,67	1454,058
454,88	1441,770
455,09	1546,216
455,30	1445,866
455,51	1415,146
455,72	1454,058
455,93	1535,977
456,14	1495,017
456,35	1505,257
456,56	1480,681
456,78	1454,058
456,99	1517,545
457,20	1511,401
457,41	1449,962
457,62	1486,825
457,83	1353,707
458,04	1529,833
458,25	1523,689
458,46	1454,058
458,67	1462,250
458,88	1499,113
459,09	1531,881
459,30	1441,770
459,51	1497,065
459,73	1478,633
459,94	1521,641
460,15	1480,681
460,36	1458,154
460,57	1472,490
460,78	1460,202
460,99	1513,449
461,20	1361,899
461,41	1519,593
461,62	1515,497
461,83	1583,080
462,04	1507,305
462,25	1609,703
462,46	1454,058
462,67	1509,353
462,88	1490,921
463,09	1617,895
463,30	1538,025
463,51	1501,161
463,72	1615,847
463,93	1527,785
464,15	1501,161
464,36	1585,128
464,57	1474,538
464,78	1519,593
464,99	1435,626
465,20	1499,113
465,41	1486,825
465,62	1484,777
465,83	1523,689
466,04	1476,585
466,25	1495,017
466,46	1425,386
466,67	1507,305
466,88	1484,777
467,09	1435,626
467,30	1535,977
467,51	1511,401
467,72	1499,113
467,93	1423,338
468,14	1515,497
468,35	1478,633
468,56	1546,216
468,77	1497,065
468,98	1595,368
469,19	1558,504
469,40	1560,552
469,61	1533,929
469,82	1449,962
470,03	1495,017
470,24	1464,298
470,45	1542,120
470,66	1474,538
470,87	1503,209
471,08	1497,065
471,29	1552,360
471,50	1513,449
471,71	1589,224
471,92	1443,818
472,13	1484,777
472,34	1515,497
472,55	1507,305
472,76	1495,017
472,97	1474,538
473,18	1519,593
473,39	1499,113
473,60	1535,977
473,81	1425,386
474,01	1554,408
474,22	1441,770
474,43	1482,729
474,64	1503,209
474,85	1511,401
475,06	1480,681
475,27	1585,128
475,48	1464,298
475,69	1478,633
475,90	1521,641
476,11	1595,368
476,32	1490,921
476,53	1521,641
476,74	1478,633
476,95	1470,442
477,16	1486,825
477,37	1554,408
477,58	1501,161
477,79	1591,272
478,00	1527,785
478,21	1458,154
478,41	1544,168
478,62	1515,497
478,83	1583,080
479,04	1558,504
479,25	1495,017
479,46	1433,578
479,67	1447,914
479,88	1433,578
480,09	1546,216
480,30	1617,895
480,51	1648,615
480,72	1533,929
480,93	1611,751
481,14	1398,763
481,34	1464,298
481,55	1431,530
481,76	1527,785
481,97	1519,593
482,18	1529,833
482,39	1523,689
482,60	1433,578
482,81	1525,737
483,02	1359,851
483,23	1562,600
483,44	1593,320
483,65	1564,648
483,85	1464,298
484,06	1564,648
484,27	1474,538
484,48	1484,777
484,69	1435,626
484,90	1542,120
485,11	1517,545
485,32	1503,209
485,53	1486,825
485,73	1664,999
485,94	1583,080
486,15	1458,154
486,36	1525,737
486,57	1441,770
486,78	1581,032
486,99	1552,360
487,20	1431,530
487,41	1597,416
487,61	1476,585
487,82	1566,696
488,03	1552,360
488,24	1503,209
488,45	1519,593
488,66	1431,530
488,87	1533,929
489,08	1589,224
489,28	1540,072
489,49	1499,113
489,70	1480,681
489,91	1535,977
490,12	1480,681
490,33	1456,106
490,54	1441,770
490,74	1517,545
490,95	1552,360
491,16	1531,881
491,37	1585,128
491,58	1468,394
491,79	1468,394
492,00	1535,977
492,20	1454,058
492,41	1464,298
492,62	1460,202
492,83	1505,257
493,04	1525,737
493,25	1585,128
493,45	1466,346
493,66	1552,360
493,87	1480,681
494,08	1482,729
494,29	1415,146
494,50	1474,538
494,70	1572,840
494,91	1542,120
495,12	1523,689
495,33	1470,442
495,54	1636,327
495,75	1517,545
495,95	1556,456
496,16	1568,744
496,37	1417,194
496,58	1431,530
496,79	1574,888
496,99	1386,475
497,20	1572,840
497,41	1560,552
497,62	1454,058
497,83	1527,785
498,04	1503,209
498,24	1505,257
498,45	1535,977
498,66	1540,072
498,87	1443,818
499,08	1640,423
499,28	1492,969
499,49	1486,825
499,70	1439,722
499,91	1511,401
500,12	1449,962
500,32	1484,777
500,53	1452,010
500,74	1587,176
500,95	1513,449
501,15	1466,346
501,36	1435,626
501,57	1519,593
501,78	1482,729
501,99	1527,785
502,19	1402,859
502,40	1480,681
502,61	1564,648
502,82	1476,585
503,02	1466,346
503,23	1503,209
503,44	1538,025
503,65	1554,408
503,86	1505,257
504,06	1413,098
504,27	1484,777
504,48	1484,777
504,69	1417,194
504,89	1462,250
505,10	1443,818
505,31	1503,209
505,52	1515,497
505,72	1476,585
505,93	1392,619
506,14	1454,058
506,35	1423,338
506,55	1480,681
506,76	1478,633
506,97	1441,770
507,18	1554,408
507,38	1574,888
507,59	1449,962
507,80	1454,058
508,01	1542,120
508,21	1474,538
508,42	1556,456
508,63	1437,674
508,84	1423,338
509,04	1497,065
509,25	1468,394
509,46	1548,264
509,67	1495,017
509,87	1576,936
510,08	1529,833
510,29	1527,785
510,49	1529,833
510,70	1511,401
510,91	1572,840
511,12	1480,681
511,32	1464,298
511,53	1501,161
511,74	1454,058
511,94	1400,811
512,15	1447,914
512,36	1472,490
512,57	1329,132
512,77	1394,667
512,98	1345,515
513,19	1433,578
513,39	1435,626
513,60	1435,626
513,81	1499,113
514,01	1542,120
514,22	1626,087
514,43	1505,257
514,64	1488,873
514,84	1546,216
515,05	1554,408
515,26	1449,962
515,46	1400,811
515,67	1535,977
515,88	1519,593
516,08	1458,154
516,29	1523,689
516,50	1488,873
516,70	1501,161
516,91	1447,914
517,12	1441,770
517,32	1443,818
517,53	1472,490
517,74	1495,017
517,95	1363,947
518,15	1505,257
518,36	1474,538
518,57	1429,482
518,77	1454,058
518,98	1482,729
519,19	1505,257
519,39	1398,763
519,60	1472,490
519,80	1611,751
520,01	1550,312
520,22	1454,058
520,42	1431,530
520,63	1513,449
520,84	1415,146
521,04	1439,722
521,25	1466,346
521,46	1484,777
521,66	1476,585
521,87	1433,578
522,08	1386,475
522,28	1503,209
522,49	1427,434
522,70	1484,777
522,90	1423,338
523,11	1466,346
523,31	1439,722
523,52	1535,977
523,73	1368,043
523,93	1460,202
524,14	1411,050
524,35	1427,434
524,55	1521,641
524,76	1519,593
524,97	1460,202
525,17	1445,866
525,38	1460,202
525,58	1484,777
525,79	1402,859
526,00	1425,386
526,20	1460,202
526,41	1464,298
526,61	1454,058
526,82	1394,667
527,03	1396,715
527,23	1513,449
527,44	1374,187
527,64	1464,298
527,85	1462,250
528,06	1458,154
528,26	1454,058
528,47	1503,209
528,68	1409,002
528,88	1476,585
529,09	1460,202
529,29	1507,305
529,50	1339,372
529,70	1433,578
529,91	1423,338
530,12	1413,098
530,32	1490,921
530,53	1535,977
530,73	1519,593
530,94	1458,154
531,15	1560,552
531,35	1507,305
531,56	1402,859
531,76	1482,729
531,97	1466,346
532,17	1533,929
532,38	1419,242
532,59	1431,530
532,79	1443,818
533,00	1470,442
533,20	1417,194
533,41	1372,139
533,61	1458,154
533,82	1466,346
534,03	1392,619
534,23	1437,674
534,44	1419,242
534,64	1474,538
534,85	1402,859
535,05	1435,626
535,26	1386,475
535,46	1458,154
535,67	1523,689
535,88	1464,298
536,08	1447,914
536,29	1492,969
536,49	1466,346
536,70	1435,626
536,90	1535,977
537,11	1486,825
537,31	1396,715
537,52	1435,626
537,72	1409,002
537,93	1503,209
538,13	1533,929
538,34	1452,010
538,55	1511,401
538,75	1470,442
538,96	1490,921
539,16	1435,626
539,37	1503,209
539,57	1370,091
539,78	1441,770
539,98	1415,146
540,19	1503,209
540,39	1527,785
540,60	1490,921
540,80	1390,571
541,01	1472,490
541,21	1425,386
541,42	1478,633
541,62	1454,058
541,83	1386,475
542,03	1552,360
542,24	1413,098
542,44	1617,895
542,65	1486,825
542,85	1402,859
543,06	1394,667
543,26	1476,585
543,47	1515,497
543,67	1443,818
543,88	1499,113
544,08	1527,785
544,29	1429,482
544,49	1456,106
544,70	1425,386
544,90	1486,825
545,11	1411,050
545,31	1437,674
545,52	1501,161
545,72	1474,538
545,93	1413,098
546,13	1429,482
546,34	1384,427
546,54	1484,777
546,75	1392,619
546,95	1490,921
547,15	1415,146
547,36	1400,811
547,56	1400,811
547,77	1572,840
547,97	1411,050
548,18	1441,770
548,38	1482,729
548,59	1505,257
548,79	1431,530
549,00	1386,475
549,20	1499,113
549,41	1497,065
549,61	1462,250
549,81	1419,242
550,02	1439,722
550,22	1425,386
550,43	1411,050
550,63	1400,811
550,84	1533,929
551,04	1421,290
551,25	1488,873
551,45	1419,242
551,65	1456,106
551,86	1511,401
552,06	1462,250
552,27	1345,515
552,47	1312,748
552,68	1499,113
552,88	1437,674
553,08	1343,468
553,29	1482,729
553,49	1443,818
553,70	1501,161
553,90	1480,681
554,11	1492,969
554,31	1503,209
554,51	1515,497
554,72	1464,298
554,92	1515,497
555,13	1482,729
555,33	1503,209
555,53	1505,257
555,74	1402,859
555,94	1529,833
556,15	1409,002
556,35	1513,449
556,56	1538,025
556,76	1507,305
556,96	1517,545
557,17	1476,585
557,37	1501,161
557,58	1406,955
557,78	1482,729
557,98	1398,763
558,19	1460,202
558,39	1433,578
558,59	1359,851
558,80	1400,811
559,00	1398,763
559,21	1441,770
559,41	1470,442
559,61	1462,250
559,82	1480,681
560,02	1443,818
560,23	1431,530
560,43	1411,050
560,63	1505,257
560,84	1458,154
561,04	1478,633
561,24	1372,139
561,45	1421,290
561,65	1365,995
561,85	1437,674
562,06	1380,331
562,26	1415,146
562,47	1507,305
562,67	1439,722
562,87	1415,146
563,08	1386,475
563,28	1472,490
563,48	1437,674
563,69	1359,851
563,89	1476,585
564,09	1439,722
564,30	1363,947
564,50	1495,017
564,70	1443,818
564,91	1452,010
565,11	1441,770
565,31	1492,969
565,52	1439,722
565,72	1478,633
565,92	1476,585
566,13	1372,139
566,33	1501,161
566,53	1454,058
566,74	1400,811
566,94	1406,955
567,14	1499,113
567,35	1533,929
567,55	1449,962
567,75	1507,305
567,96	1402,859
568,16	1441,770
568,36	1435,626
568,57	1515,497
568,77	1419,242
568,97	1419,242
569,18	1484,777
569,38	1415,146
569,58	1456,106
569,79	1445,866
569,99	1396,715
570,19	1519,593
570,39	1476,585
570,60	1368,043
570,80	1441,770
571,00	1431,530
571,21	1425,386
571,41	1376,235
571,61	1505,257
571,82	1478,633
572,02	1365,995
572,22	1409,002
572,42	1480,681
572,63	1433,578
572,83	1312,748
573,03	1505,257
573,24	1421,290
573,44	1388,523
573,64	1456,106
573,84	1433,578
574,05	1404,907
574,25	1540,072
574,45	1423,338
574,66	1462,250
574,86	1449,962
575,06	1433,578
575,26	1368,043
575,47	1372,139
575,67	1431,530
575,87	1486,825
576,07	1392,619
576,28	1322,988
576,48	1513,449
576,68	1406,955
576,88	1449,962
577,09	1452,010
577,29	1449,962
577,49	1445,866
577,69	1415,146
577,90	1535,977
578,10	1486,825
578,30	1480,681
578,50	1447,914
578,71	1423,338
578,91	1390,571
579,11	1372,139
579,31	1449,962
579,52	1447,914
579,72	1445,866
579,92	1464,298
580,12	1335,276
580,33	1376,235
580,53	1486,825
580,73	1390,571
580,93	1470,442
581,13	1464,298
581,34	1421,290
581,54	1449,962
581,74	1392,619
581,94	1365,995
582,15	1374,187
582,35	1394,667
582,55	1470,442
582,75	1449,962
582,95	1296,364
583,16	1474,538
583,36	1458,154
583,56	1325,036
583,76	1390,571
583,96	1411,050
584,17	1392,619
584,37	1390,571
584,57	1456,106
584,77	1394,667
584,97	1458,154
585,18	1417,194
585,38	1441,770
585,58	1431,530
585,78	1449,962
585,98	1513,449
586,19	1380,331
586,39	1472,490
586,59	1365,995
586,79	1445,866
586,99	1466,346
587,20	1443,818
587,40	1388,523
587,60	1398,763
587,80	1394,667
588,00	1466,346
588,20	1402,859
588,41	1454,058
588,61	1437,674
588,81	1460,202
589,01	1437,674
589,21	1466,346
589,41	1402,859
589,62	1476,585
589,82	1355,755
590,02	1384,427
590,22	1417,194
590,42	1419,242
590,62	1492,969
590,83	1396,715
591,03	1423,338
591,23	1335,276
591,43	1507,305
591,63	1454,058
591,83	1415,146
592,03	1449,962
592,24	1476,585
592,44	1415,146
592,64	1394,667
592,84	1439,722
593,04	1351,659
593,24	1386,475
593,44	1499,113
593,65	1351,659
593,85	1449,962
594,05	1513,449
594,25	1576,936
594,45	1396,715
594,65	1396,715
594,85	1460,202
595,06	1421,290
595,26	1411,050
595,46	1388,523
595,66	1566,696
595,86	1333,228
596,06	1431,530
596,26	1363,947
596,46	1425,386
596,66	1464,298
596,87	1413,098
597,07	1400,811
597,27	1417,194
597,47	1404,907
597,67	1544,168
597,87	1454,058
598,07	1376,235
598,27	1400,811
598,47	1409,002
598,67	1433,578
598,88	1421,290
599,08	1429,482
599,28	1322,988
599,48	1398,763
599,68	1439,722
599,88	1392,619
600,08	1431,530
600,28	1460,202
600,48	1421,290
600,68	1421,290
600,88	1454,058
601,09	1437,674
601,29	1365,995
601,49	1406,955
601,69	1531,881
601,89	1370,091
602,09	1454,058
602,29	1449,962
602,49	1492,969
602,69	1441,770
602,89	1433,578
603,09	1441,770
603,29	1472,490
603,49	1482,729
603,69	1478,633
603,90	1431,530
604,10	1546,216
604,30	1492,969
604,50	1452,010
604,70	1497,065
604,90	1466,346
605,10	1425,386
605,30	1470,442
605,50	1515,497
605,70	1443,818
605,90	1458,154
606,10	1464,298
606,30	1409,002
606,50	1460,202
606,70	1419,242
606,90	1392,619
607,10	1472,490
607,30	1437,674
607,50	1409,002
607,70	1423,338
607,90	1404,907
608,10	1386,475
608,30	1480,681
608,50	1435,626
608,70	1472,490
608,90	1486,825
609,11	1402,859
609,31	1392,619
609,51	1415,146
609,71	1386,475
609,91	1394,667
610,11	1445,866
610,31	1388,523
610,51	1460,202
610,71	1417,194
610,91	1409,002
611,11	1406,955
611,31	1456,106
611,51	1435,626
611,71	1413,098
611,91	1394,667
612,11	1425,386
612,31	1529,833
612,51	1468,394
612,71	1431,530
612,91	1452,010
613,11	1411,050
613,31	1449,962
613,51	1419,242
613,71	1474,538
613,91	1476,585
614,11	1456,106
614,31	1359,851
614,50	1533,929
614,70	1488,873
614,90	1343,468
615,10	1540,072
615,30	1464,298
615,50	1406,955
615,70	1419,242
615,90	1452,010
616,10	1404,907
616,30	1478,633
616,50	1484,777
616,70	1503,209
616,90	1341,420
617,10	1474,538
617,30	1492,969
617,50	1312,748
617,70	1480,681
617,90	1351,659
618,10	1390,571
618,30	1447,914
618,50	1466,346
618,70	1402,859
618,90	1443,818
619,10	1495,017
619,30	1404,907
619,49	1277,932
619,69	1435,626
619,89	1505,257
620,09	1421,290
620,29	1478,633
620,49	1363,947
620,69	1400,811
620,89	1413,098
621,09	1452,010
621,29	1392,619
621,49	1404,907
621,69	1484,777
621,89	1456,106
622,09	1486,825
622,29	1423,338
622,48	1529,833
622,68	1320,940
622,88	1445,866
623,08	1429,482
623,28	1380,331
623,48	1370,091
623,68	1470,442
623,88	1447,914
624,08	1427,434
624,28	1413,098
624,48	1409,002
624,67	1454,058
624,87	1503,209
625,07	1409,002
625,27	1443,818
625,47	1509,353
625,67	1462,250
625,87	1376,235
626,07	1441,770
626,27	1439,722
626,47	1388,523
626,66	1462,250
626,86	1576,936
627,06	1390,571
627,26	1486,825
627,46	1466,346
627,66	1400,811
627,86	1482,729
628,06	1425,386
628,25	1501,161
628,45	1419,242
628,65	1411,050
628,85	1482,729
629,05	1445,866
629,25	1361,899
629,45	1433,578
629,65	1427,434
629,84	1396,715
630,04	1480,681
630,24	1482,729
630,44	1495,017
630,64	1404,907
630,84	1460,202
631,04	1421,290
631,23	1427,434
631,43	1415,146
631,63	1495,017
631,83	1345,515
632,03	1449,962
632,23	1478,633
632,42	1409,002
632,62	1460,202
632,82	1388,523
633,02	1519,593
633,22	1456,106
633,42	1433,578
633,62	1423,338
633,81	1486,825
634,01	1439,722
634,21	1517,545
634,41	1359,851
634,61	1439,722
634,80	1417,194
635,00	1476,585
635,20	1425,386
635,40	1396,715
635,60	1441,770
635,80	1441,770
635,99	1339,372
636,19	1349,611
636,39	1497,065
636,59	1441,770
636,79	1527,785
636,98	1441,770
637,18	1421,290
637,38	1447,914
637,58	1458,154
637,78	1495,017
637,97	1433,578
638,17	1460,202
638,37	1497,065
638,57	1380,331
638,77	1497,065
638,96	1382,379
639,16	1509,353
639,36	1456,106
639,56	1335,276
639,76	1474,538
639,95	1462,250
640,15	1411,050
640,35	1449,962
640,55	1406,955
640,75	1570,792
640,94	1370,091
641,14	1409,002
641,34	1550,312
641,54	1429,482
641,73	1427,434
641,93	1443,818
642,13	1439,722
642,33	1507,305
642,53	1390,571
642,72	1447,914
642,92	1447,914
643,12	1435,626
643,32	1472,490
643,51	1507,305
643,71	1388,523
643,91	1417,194
644,11	1353,707
644,30	1503,209
644,50	1400,811
644,70	1419,242
644,90	1488,873
645,09	1556,456
645,29	1390,571
645,49	1447,914
645,69	1392,619
645,88	1523,689
646,08	1363,947
646,28	1556,456
646,48	1374,187
646,67	1464,298
646,87	1388,523
647,07	1464,298
647,26	1490,921
647,46	1429,482
647,66	1435,626
647,86	1447,914
648,05	1447,914
648,25	1480,681
648,45	1449,962
648,65	1431,530
648,84	1413,098
649,04	1503,209
649,24	1564,648
649,43	1452,010
649,63	1472,490
649,83	1497,065
650,03	1531,881
650,22	1419,242
650,42	1486,825
650,62	1501,161
650,81	1349,611
651,01	1519,593
651,21	1452,010
651,40	1478,633
651,60	1492,969
651,80	1445,866
652,00	1509,353
652,19	1470,442
652,39	1558,504
652,59	1447,914
652,78	1441,770
652,98	1435,626
653,18	1404,907
653,37	1406,955
653,57	1400,811
653,77	1406,955
653,96	1400,811
654,16	1480,681
654,36	1386,475
654,55	1396,715
654,75	1490,921
654,95	1372,139
655,14	1470,442
655,34	1466,346
655,54	1419,242
655,73	1400,811
655,93	1497,065
656,13	1388,523
656,32	1400,811
656,52	1384,427
656,72	1447,914
656,91	1515,497
657,11	1447,914
657,31	1445,866
657,50	1507,305
657,70	1433,578
657,90	1404,907
658,09	1454,058
658,29	1439,722
658,49	1372,139
658,68	1429,482
658,88	1449,962
659,07	1351,659
659,27	1458,154
659,47	1452,010
659,66	1445,866
659,86	1419,242
660,06	1429,482
660,25	1480,681
660,45	1433,578
660,64	1456,106
660,84	1423,338
661,04	1427,434
661,23	1458,154
661,43	1433,578
661,63	1384,427
661,82	1447,914
662,02	1431,530
662,21	1476,585
662,41	1466,346
662,61	1456,106
662,80	1384,427
663,00	1497,065
663,19	1441,770
663,39	1540,072
663,59	1466,346
663,78	1439,722
663,98	1488,873
664,17	1511,401
664,37	1458,154
664,57	1435,626
664,76	1495,017
664,96	1396,715
665,15	1351,659
665,35	1357,803
665,55	1345,515
665,74	1437,674
665,94	1517,545
666,13	1431,530
666,33	1433,578
666,53	1460,202
666,72	1490,921
666,92	1396,715
667,11	1433,578
667,31	1382,379
667,50	1435,626
667,70	1499,113
667,90	1462,250
668,09	1400,811
668,29	1423,338
668,48	1417,194
668,68	1495,017
668,87	1396,715
669,07	1425,386
669,26	1462,250
669,46	1429,482
669,66	1452,010
669,85	1396,715
670,05	1470,442
670,24	1413,098
670,44	1417,194
670,63	1363,947
670,83	1427,434
671,02	1458,154
671,22	1374,187
671,42	1316,844
671,61	1427,434
671,81	1486,825
672,00	1466,346
672,20	1472,490
672,39	1427,434
672,59	1413,098
672,78	1449,962
672,98	1540,072
673,17	1413,098
673,37	1374,187
673,56	1421,290
673,76	1380,331
673,95	1413,098
674,15	1386,475
674,34	1421,290
674,54	1368,043
674,73	1466,346
674,93	1501,161
675,13	1456,106
675,32	1476,585
675,52	1476,585
675,71	1413,098
675,91	1439,722
676,10	1429,482
676,30	1413,098
676,49	1441,770
676,69	1480,681
676,88	1415,146
677,08	1447,914
677,27	1447,914
677,47	1437,674
677,66	1423,338
677,86	1458,154
678,05	1499,113
678,24	1486,825
678,44	1560,552
678,63	1488,873
678,83	1490,921
679,02	1384,427
679,22	1488,873
679,41	1482,729
679,61	1335,276
679,80	1447,914
680,00	1384,427
680,19	1490,921
680,39	1464,298
680,58	1466,346
680,78	1425,386
680,97	1525,737
681,17	1445,866
681,36	1437,674
681,56	1431,530
681,75	1411,050
681,94	1533,929
682,14	1478,633
682,33	1359,851
682,53	1462,250
682,72	1374,187
682,92	1460,202
683,11	1542,120
683,31	1439,722
683,50	1439,722
683,69	1417,194
683,89	1435,626
684,08	1519,593
684,28	1445,866
684,47	1507,305
684,67	1562,600
684,86	1423,338
685,06	1388,523
685,25	1529,833
685,44	1449,962
685,64	1445,866
685,83	1464,298
686,03	1417,194
686,22	1464,298
686,42	1529,833
686,61	1415,146
686,80	1343,468
687,00	1388,523
687,19	1433,578
687,39	1427,434
687,58	1478,633
687,77	1505,257
687,97	1460,202
688,16	1519,593
688,36	1388,523
688,55	1495,017
688,74	1566,696
688,94	1447,914
689,13	1531,881
689,33	1480,681
689,52	1476,585
689,71	1374,187
689,91	1507,305
690,10	1359,851
690,30	1417,194
690,49	1470,442
690,68	1503,209
690,88	1464,298
691,07	1486,825
691,27	1429,482
691,46	1447,914
691,65	1443,818
691,85	1509,353
692,04	1548,264
692,23	1531,881
692,43	1540,072
692,62	1427,434
692,82	1437,674
693,01	1460,202
693,20	1501,161
693,40	1482,729
693,59	1488,873
693,78	1503,209
693,98	1482,729
694,17	1425,386
694,36	1462,250
694,56	1515,497
694,75	1476,585
694,94	1515,497
695,14	1449,962
695,33	1452,010
695,53	1650,663
695,72	1460,202
695,91	1462,250
696,11	1480,681
696,30	1449,962
696,49	1439,722
696,69	1486,825
696,88	1361,899
697,07	1380,331
697,27	1386,475
697,46	1439,722
697,65	1546,216
697,85	1454,058
698,04	1497,065
698,23	1552,360
698,43	1419,242
698,62	1546,216
698,81	1402,859
699,01	1546,216
699,20	1419,242
699,39	1449,962
699,58	1458,154
699,78	1404,907
699,97	1560,552
700,16	1458,154
700,36	1466,346
700,55	1318,892
700,74	1521,641
700,94	1394,667
701,13	1460,202
701,32	1449,962
701,52	1415,146
701,71	1390,571
701,90	1429,482
702,09	1480,681
702,29	1476,585
702,48	1495,017
702,67	1355,755
702,87	1495,017
703,06	1495,017
703,25	1503,209
703,44	1404,907
703,64	1478,633
703,83	1347,563
704,02	1574,888
704,22	1445,866
704,41	1415,146
704,60	1384,427
704,79	1503,209
704,99	1437,674
705,18	1398,763
705,37	1406,955
705,56	1472,490
705,76	1390,571
705,95	1474,538
706,14	1411,050
706,33	1361,899
706,53	1363,947
706,72	1372,139
706,91	1447,914
707,11	1456,106
707,30	1363,947
707,49	1431,530
707,68	1359,851
707,88	1482,729
708,07	1421,290
708,26	1460,202
708,45	1425,386
708,64	1423,338
708,84	1460,202
709,03	1409,002
709,22	1372,139
709,41	1400,811
709,61	1441,770
709,80	1478,633
709,99	1435,626
710,18	1560,552
710,38	1392,619
710,57	1394,667
710,76	1322,988
710,95	1427,434
711,14	1449,962
711,34	1439,722
711,53	1425,386
711,72	1419,242
711,91	1415,146
712,11	1452,010
712,30	1392,619
712,49	1439,722
712,68	1406,955
712,87	1441,770
713,07	1370,091
713,26	1429,482
713,45	1492,969
713,64	1449,962
713,83	1392,619
714,03	1490,921
714,22	1517,545
714,41	1464,298
714,60	1431,530
714,79	1413,098
714,99	1398,763
715,18	1417,194
715,37	1441,770
715,56	1447,914
715,75	1439,722
715,94	1523,689
716,14	1443,818
716,33	1480,681
716,52	1402,859
716,71	1476,585
716,90	1478,633
717,10	1415,146
717,29	1382,379
717,48	1454,058
717,67	1437,674
717,86	1480,681
718,05	1361,899
718,24	1429,482
718,44	1404,907
718,63	1406,955
718,82	1517,545
719,01	1421,290
719,20	1423,338
719,39	1441,770
719,59	1345,515
719,78	1425,386
719,97	1388,523
720,16	1566,696
720,35	1378,283
720,54	1431,530
720,73	1417,194
720,93	1409,002
721,12	1488,873
721,31	1406,955
721,50	1353,707
721,69	1482,729
721,88	1394,667
722,07	1472,490
722,27	1503,209
722,46	1482,729
722,65	1447,914
722,84	1396,715
723,03	1353,707
723,22	1404,907
723,41	1386,475
723,60	1554,408
723,79	1421,290
723,99	1349,611
724,18	1445,866
724,37	1488,873
724,56	1470,442
724,75	1449,962
724,94	1378,283
725,13	1466,346
725,32	1441,770
725,51	1384,427
725,71	1394,667
725,90	1400,811
726,09	1454,058
726,28	1429,482
726,47	1329,132
726,66	1470,442
726,85	1396,715
727,04	1361,899
727,23	1333,228
727,42	1435,626
727,61	1382,379
727,81	1468,394
728,00	1486,825
728,19	1476,585
728,38	1400,811
728,57	1406,955
728,76	1386,475
728,95	1497,065
729,14	1372,139
729,33	1497,065
729,52	1325,036
729,71	1456,106
729,90	1431,530
730,09	1368,043
730,28	1409,002
730,48	1462,250
730,67	1449,962
730,86	1435,626
731,05	1476,585
731,24	1411,050
731,43	1365,995
731,62	1433,578
731,81	1376,235
732,00	1437,674
732,19	1482,729
732,38	1404,907
732,57	1406,955
732,76	1482,729
732,95	1382,379
733,14	1320,940
733,33	1441,770
733,52	1435,626
733,71	1402,859
733,90	1404,907
734,09	1462,250
734,28	1353,707
734,47	1474,538
734,66	1452,010
734,85	1447,914
735,04	1353,707
735,23	1351,659
735,42	1396,715
735,61	1433,578
735,81	1398,763
736,00	1439,722
736,19	1449,962
736,38	1376,235
736,57	1439,722
736,76	1443,818
736,95	1361,899
737,14	1376,235
737,33	1433,578
737,52	1415,146
737,71	1372,139
737,90	1454,058
738,09	1519,593
738,28	1476,585
738,47	1484,777
738,66	1386,475
738,85	1449,962
739,04	1433,578
739,22	1392,619
739,41	1456,106
739,60	1421,290
739,79	1386,475
739,98	1368,043
740,17	1337,324
740,36	1441,770
740,55	1392,619
740,74	1511,401
740,93	1355,755
741,12	1449,962
741,31	1488,873
741,50	1429,482
741,69	1386,475
741,88	1316,844
742,07	1341,420
742,26	1441,770
742,45	1372,139
742,64	1482,729
742,83	1427,434
743,02	1462,250
743,21	1533,929
743,40	1384,427
743,59	1431,530
743,78	1437,674
743,97	1376,235
744,16	1409,002
744,34	1380,331
744,53	1458,154
744,72	1417,194
744,91	1337,324
745,10	1435,626
745,29	1492,969
745,48	1468,394
745,67	1431,530
745,86	1429,482
746,05	1423,338
746,24	1400,811
746,43	1394,667
746,62	1386,475
746,81	1425,386
747,00	1363,947
747,18	1474,538
747,37	1445,866
747,56	1390,571
747,75	1441,770
747,94	1456,106
748,13	1443,818
748,32	1447,914
748,51	1402,859
748,70	1523,689
748,89	1429,482
749,08	1368,043
749,26	1406,955
749,45	1406,955
749,64	1417,194
749,83	1392,619
750,02	1437,674
750,21	1460,202
750,40	1482,729
750,59	1535,977
750,78	1445,866
750,96	1365,995
751,15	1394,667
751,34	1370,091
751,53	1517,545
751,72	1402,859
751,91	1382,379
752,10	1425,386
752,29	1480,681
752,47	1406,955
752,66	1413,098
752,85	1335,276
753,04	1464,298
753,23	1392,619
753,42	1417,194
753,61	1445,866
753,80	1480,681
753,98	1458,154
754,17	1419,242
754,36	1429,482
754,55	1341,420
754,74	1396,715
754,93	1435,626
755,12	1433,578
755,30	1413,098
755,49	1464,298
755,68	1394,667
755,87	1423,338
756,06	1384,427
756,25	1456,106
756,43	1441,770
756,62	1404,907
756,81	1503,209
757,00	1406,955
757,19	1314,796
757,38	1392,619
757,56	1425,386
757,75	1478,633
757,94	1454,058
758,13	1404,907
758,32	1384,427
758,51	1376,235
758,69	1400,811
758,88	1396,715
759,07	1376,235
759,26	1460,202
759,45	1406,955
759,63	1495,017
759,82	1331,180
760,01	1437,674
760,20	1435,626
760,39	1437,674
760,57	1482,729
760,76	1431,530
760,95	1417,194
761,14	1421,290
761,33	1435,626
761,51	1374,187
761,70	1413,098
761,89	1378,283
762,08	1351,659
762,27	1497,065
762,45	1413,098
762,64	1454,058
762,83	1429,482
763,02	1388,523
763,21	1368,043
763,39	1447,914
763,58	1423,338
763,77	1452,010
763,96	1394,667
764,14	1447,914
764,33	1318,892
764,52	1466,346
764,71	1441,770
764,89	1363,947
765,08	1425,386
765,27	1501,161
765,46	1470,442
765,65	1421,290
765,83	1392,619
766,02	1353,707
766,21	1425,386
766,40	1447,914
766,58	1452,010
766,77	1484,777
766,96	1441,770
767,15	1433,578
767,33	1402,859
767,52	1507,305
767,71	1441,770
767,90	1376,235
768,08	1431,530
768,27	1454,058
768,46	1429,482
768,64	1474,538
768,83	1376,235
769,02	1435,626
769,21	1437,674
769,39	1464,298
769,58	1435,626
769,77	1540,072
769,96	1454,058
770,14	1429,482
770,33	1441,770
770,52	1519,593
770,70	1492,969
770,89	1454,058
771,08	1425,386
771,27	1478,633
771,45	1370,091
771,64	1423,338
771,83	1456,106
772,01	1470,442
772,20	1386,475
772,39	1503,209
772,57	1390,571
772,76	1466,346
772,95	1441,770
773,14	1466,346
773,32	1388,523
773,51	1429,482
773,70	1443,818
773,88	1478,633
774,07	1269,741
774,26	1404,907
774,44	1333,228
774,63	1365,995
774,82	1339,372
775,00	1417,194
775,19	1484,777
775,38	1443,818
775,56	1413,098
775,75	1540,072
775,94	1437,674
776,12	1380,331
776,31	1429,482
776,50	1423,338
776,68	1458,154
776,87	1456,106
777,06	1447,914
777,24	1499,113
777,43	1443,818
777,62	1476,585
777,80	1378,283
777,99	1480,681
778,18	1421,290
778,36	1443,818
778,55	1419,242
778,74	1497,065
778,92	1335,276
779,11	1396,715
779,29	1378,283
779,48	1490,921
779,67	1460,202
779,85	1355,755
780,04	1454,058
780,23	1452,010
780,41	1439,722
780,60	1433,578
780,79	1447,914
780,97	1392,619
781,16	1419,242
781,34	1460,202
781,53	1460,202
781,72	1413,098
781,90	1384,427
782,09	1425,386
782,28	1535,977
782,46	1482,729
782,65	1382,379
782,83	1462,250
783,02	1368,043
783,21	1363,947
783,39	1445,866
783,58	1419,242
783,76	1478,633
783,95	1404,907
784,14	1521,641
784,32	1429,482
784,51	1570,792
784,69	1472,490
784,88	1445,866
785,06	1421,290
785,25	1445,866
785,44	1431,530
785,62	1439,722
785,81	1476,585
785,99	1492,969
786,18	1376,235
786,37	1396,715
786,55	1449,962
786,74	1345,515
786,92	1470,442
787,11	1445,866
787,29	1511,401
787,48	1470,442
787,67	1535,977
787,85	1601,512
788,04	1392,619
788,22	1386,475
788,41	1466,346
788,59	1351,659
788,78	1417,194
788,96	1386,475
789,15	1460,202
789,34	1468,394
789,52	1462,250
789,71	1464,298
789,89	1456,106
790,08	1523,689
790,26	1384,427
790,45	1427,434
790,63	1398,763
790,82	1476,585
791,00	1392,619
791,19	1376,235
791,38	1495,017
791,56	1445,866
791,75	1476,585
791,93	1466,346
792,12	1501,161
792,30	1413,098
792,49	1435,626
792,67	1392,619
792,86	1468,394
793,04	1490,921
793,23	1349,611
793,41	1382,379
793,60	1454,058
793,78	1419,242
793,97	1480,681
794,15	1382,379
794,34	1425,386
794,52	1456,106
794,71	1433,578
794,89	1452,010
795,08	1458,154
795,26	1433,578
795,45	1458,154
795,63	1488,873
795,82	1400,811
796,00	1480,681
796,19	1472,490
796,37	1497,065
796,56	1507,305
796,74	1415,146
796,93	1392,619
797,11	1472,490
797,30	1318,892
797,48	1443,818
797,67	1443,818
797,85	1411,050
798,04	1456,106
798,22	1464,298
798,41	1433,578
798,59	1413,098
798,77	1400,811
798,96	1376,235
799,14	1472,490
799,33	1417,194
799,51	1423,338
799,70	1511,401
799,88	1476,585
800,07	1392,619
800,25	1419,242
800,44	1427,434
800,62	1464,298
800,80	1482,729
800,99	1531,881
801,17	1376,235
801,36	1497,065
801,54	1480,681
801,73	1447,914
801,91	1443,818
802,10	1462,250
802,28	1443,818
802,46	1460,202
802,65	1452,010
802,83	1554,408
803,02	1388,523
803,20	1466,346
803,39	1372,139
803,57	1476,585
803,75	1425,386
803,94	1368,043
804,12	1376,235
804,31	1423,338
804,49	1386,475
804,67	1490,921
804,86	1406,955
805,04	1419,242
805,23	1404,907
805,41	1452,010
805,59	1417,194
805,78	1376,235
805,96	1435,626
806,15	1495,017
806,33	1523,689
806,51	1374,187
806,70	1554,408
806,88	1507,305
807,07	1429,482
807,25	1505,257
807,43	1499,113
807,62	1431,530
807,80	1368,043
807,99	1425,386
808,17	1441,770
808,35	1599,464
808,54	1409,002
808,72	1439,722
808,90	1511,401
809,09	1507,305
809,27	1484,777
809,46	1515,497
809,64	1333,228
809,82	1511,401
810,01	1394,667
810,19	1570,792
810,37	1376,235
810,56	1478,633
810,74	1353,707
810,92	1546,216
811,11	1456,106
811,29	1466,346
811,48	1456,106
811,66	1380,331
811,84	1527,785
812,03	1507,305
812,21	1456,106
812,39	1546,216
812,58	1351,659
812,76	1499,113
812,94	1470,442
813,13	1505,257
813,31	1417,194
813,49	1548,264
813,68	1560,552
813,86	1482,729
814,04	1474,538
814,23	1505,257
814,41	1445,866
814,59	1464,298
814,78	1484,777
814,96	1472,490
815,14	1470,442
815,33	1564,648
815,51	1538,025
815,69	1404,907
815,87	1431,530
816,06	1456,106
816,24	1525,737
816,42	1437,674
816,61	1406,955
816,79	1519,593
816,97	1456,106
817,16	1474,538
817,34	1490,921
817,52	1394,667
817,70	1556,456
817,89	1406,955
818,07	1482,729
818,25	1458,154
818,44	1544,168
818,62	1427,434
818,80	1486,825
818,98	1486,825
819,17	1447,914
819,35	1511,401
819,53	1449,962
819,72	1482,729
819,90	1421,290
820,08	1365,995
820,26	1452,010
820,45	1452,010
820,63	1585,128
820,81	1415,146
820,99	1427,434
821,18	1503,209
821,36	1578,984
821,54	1538,025
821,73	1503,209
821,91	1519,593
822,09	1499,113
822,27	1480,681
822,46	1523,689
822,64	1527,785
822,82	1574,888
823,00	1509,353
823,19	1527,785
823,37	1488,873
823,55	1452,010
823,73	1501,161
823,91	1433,578
824,10	1540,072
824,28	1497,065
824,46	1605,608
824,64	1386,475
824,83	1515,497
825,01	1492,969
825,19	1413,098
825,37	1486,825
825,56	1470,442
825,74	1452,010
825,92	1425,386
826,10	1558,504
826,28	1472,490
826,47	1406,955
826,65	1486,825
826,83	1470,442
827,01	1413,098
827,19	1540,072
827,38	1552,360
827,56	1597,416
827,74	1597,416
827,92	1519,593
828,10	1525,737
828,29	1583,080
828,47	1515,497
828,65	1447,914
828,83	1503,209
829,01	1556,456
829,20	1486,825
829,38	1474,538
829,56	1472,490
829,74	1445,866
829,92	1531,881
830,10	1540,072
830,29	1429,482
830,47	1527,785
830,65	1468,394
830,83	1529,833
831,01	1503,209
831,20	1538,025
831,38	1449,962
831,56	1513,449
831,74	1503,209
831,92	1503,209
832,10	1437,674
832,29	1484,777
832,47	1495,017
832,65	1462,250
832,83	1495,017
833,01	1484,777
833,19	1402,859
833,37	1456,106
833,56	1447,914
833,74	1464,298
833,92	1458,154
834,10	1427,434
834,28	1576,936
834,46	1572,840
834,64	1359,851
834,83	1554,408
835,01	1581,032
835,19	1544,168
835,37	1411,050
835,55	1429,482
835,73	1560,552
835,91	1452,010
836,09	1531,881
836,28	1548,264
836,46	1464,298
836,64	1470,442
836,82	1429,482
837,00	1671,142
837,18	1525,737
837,36	1492,969
837,54	1544,168
837,72	1527,785
837,91	1501,161
838,09	1531,881
838,27	1556,456
838,45	1441,770
838,63	1488,873
838,81	1607,655
838,99	1517,545
839,17	1585,128
839,35	1585,128
839,53	1546,216
839,72	1507,305
839,90	1456,106
840,08	1449,962
840,26	1564,648
840,44	1505,257
840,62	1488,873
840,80	1515,497
840,98	1535,977
841,16	1595,368
841,34	1427,434
841,52	1505,257
841,70	1550,312
841,89	1472,490
842,07	1511,401
842,25	1495,017
842,43	1490,921
842,61	1581,032
842,79	1562,600
842,97	1468,394
843,15	1566,696
843,33	1478,633
843,51	1486,825
843,69	1437,674
843,87	1443,818
844,05	1552,360
844,23	1595,368
844,41	1409,002
844,59	1464,298
844,77	1517,545
844,95	1433,578
845,13	1509,353
845,31	1433,578
845,50	1542,120
845,68	1542,120
845,86	1488,873
846,04	1503,209
846,22	1449,962
846,40	1458,154
846,58	1400,811
846,76	1423,338
846,94	1601,512
847,12	1427,434
847,30	1480,681
847,48	1497,065
847,66	1605,608
847,84	1482,729
848,02	1554,408
848,20	1572,840
848,38	1560,552
848,56	1576,936
848,74	1492,969
848,92	1409,002
849,10	1517,545
849,28	1544,168
849,46	1624,039
849,64	1388,523
849,82	1441,770
850,00	1568,744
850,18	1503,209
850,36	1486,825
850,54	1505,257
850,72	1523,689
850,90	1529,833
851,08	1445,866
851,26	1621,991
851,44	1521,641
851,62	1359,851
851,80	1509,353
851,98	1583,080
852,16	1609,703
852,34	1470,442
852,52	1519,593
852,70	1456,106
852,87	1480,681
853,05	1478,633
853,23	1480,681
853,41	1490,921
853,59	1654,759
853,77	1546,216
853,95	1572,840
854,13	1458,154
854,31	1570,792
854,49	1535,977
854,67	1468,394
854,85	1468,394
855,03	1423,338
855,21	1511,401
855,39	1452,010
855,57	1452,010
855,75	1484,777
855,93	1593,320
856,11	1558,504
856,28	1511,401
856,46	1445,866
856,64	1589,224
856,82	1431,530
857,00	1472,490
857,18	1509,353
857,36	1556,456
857,54	1398,763
857,72	1499,113
857,90	1419,242
858,08	1626,087
858,26	1466,346
858,44	1519,593
858,61	1464,298
858,79	1472,490
858,97	1404,907
859,15	1462,250
859,33	1480,681
859,51	1484,777
859,69	1411,050
859,87	1515,497
860,05	1605,608
860,23	1480,681
860,40	1548,264
860,58	1546,216
860,76	1501,161
860,94	1517,545
861,12	1482,729
861,30	1458,154
861,48	1413,098
861,66	1452,010
861,84	1497,065
862,01	1552,360
862,19	1400,811
862,37	1521,641
862,55	1490,921
862,73	1544,168
862,91	1341,420
863,09	1503,209
863,27	1529,833
863,44	1497,065
863,62	1472,490
863,80	1550,312
863,98	1464,298
864,16	1480,681
864,34	1474,538
864,52	1458,154
864,69	1548,264
864,87	1546,216
865,05	1447,914
865,23	1556,456
865,41	1599,464
865,59	1454,058
865,76	1554,408
865,94	1576,936
866,12	1435,626
866,30	1513,449
866,48	1480,681
866,66	1468,394
866,83	1427,434
867,01	1449,962
867,19	1513,449
867,37	1515,497
867,55	1464,298
867,73	1519,593
867,90	1372,139
868,08	1585,128
868,26	1464,298
868,44	1476,585
868,62	1470,442
868,79	1550,312
868,97	1447,914
869,15	1437,674
869,33	1437,674
869,51	1466,346
869,69	1460,202
869,86	1505,257
870,04	1540,072
870,22	1386,475
870,40	1474,538
870,57	1409,002
870,75	1443,818
870,93	1492,969
871,11	1525,737
871,29	1449,962
871,46	1542,120
871,64	1447,914
871,82	1478,633
872,00	1581,032
872,18	1548,264
872,35	1564,648
872,53	1480,681
872,71	1497,065
872,89	1634,279
873,06	1560,552
873,24	1427,434
873,42	1472,490
873,60	1525,737
873,77	1624,039
873,95	1480,681
874,13	1546,216
874,31	1484,777
874,49	1488,873
874,66	1433,578
874,84	1431,530
875,02	1458,154
875,20	1478,633
875,37	1480,681
875,55	1542,120
875,73	1439,722
875,91	1550,312
876,08	1470,442
876,26	1490,921
876,44	1452,010
876,61	1521,641
876,79	1675,238
876,97	1538,025
877,15	1476,585
877,32	1527,785
877,50	1439,722
877,68	1509,353
877,86	1423,338
878,03	1599,464
878,21	1511,401
878,39	1439,722
878,56	1486,825
878,74	1460,202
878,92	1425,386
879,10	1456,106
879,27	1458,154
879,45	1507,305
879,63	1452,010
879,80	1490,921
879,98	1478,633
880,16	1499,113
880,34	1531,881
880,51	1519,593
880,69	1478,633
880,87	1568,744
881,04	1566,696
881,22	1527,785
881,40	1495,017
881,57	1562,600
881,75	1544,168
881,93	1591,272
882,10	1521,641
882,28	1581,032
882,46	1478,633
882,63	1574,888
882,81	1505,257
882,99	1527,785
883,16	1423,338
883,34	1574,888
883,52	1538,025
883,69	1525,737
883,87	1464,298
884,05	1552,360
884,22	1531,881
884,40	1495,017
884,58	1488,873
884,75	1546,216
884,93	1540,072
885,11	1437,674
885,28	1402,859
885,46	1507,305
885,64	1441,770
885,81	1593,320
885,99	1525,737
886,17	1454,058
886,34	1505,257
886,52	1554,408
886,70	1470,442
886,87	1519,593
887,05	1480,681
887,22	1566,696
887,40	1566,696
887,58	1495,017
887,75	1531,881
887,93	1595,368
888,11	1546,216
888,28	1437,674
888,46	1415,146
888,63	1535,977
888,81	1476,585
888,99	1445,866
889,16	1529,833
889,34	1495,017
889,51	1474,538
889,69	1515,497
889,87	1454,058
890,04	1478,633
890,22	1445,866
890,39	1419,242
890,57	1499,113
890,75	1486,825
890,92	1476,585
891,10	1505,257
891,27	1447,914
891,45	1478,633
891,63	1447,914
891,80	1501,161
891,98	1613,799
892,15	1443,818
892,33	1566,696
892,51	1519,593
892,68	1503,209
892,86	1452,010
893,03	1644,519
893,21	1544,168
893,38	1513,449
893,56	1505,257
893,74	1411,050
893,91	1492,969
894,09	1439,722
894,26	1609,703
894,44	1480,681
894,61	1517,545
894,79	1359,851
894,96	1581,032
895,14	1490,921
895,32	1546,216
895,49	1452,010
895,67	1484,777
895,84	1433,578
896,02	1562,600
896,19	1484,777
896,37	1509,353
896,54	1462,250
896,72	1511,401
896,89	1466,346
897,07	1646,567
897,25	1574,888
897,42	1501,161
897,60	1505,257
897,77	1542,120
897,95	1519,593
898,12	1556,456
898,30	1495,017
898,47	1503,209
898,65	1400,811
898,82	1447,914
899,00	1519,593
899,17	1562,600
899,35	1525,737
899,52	1462,250
899,70	1507,305
899,87	1511,401
900,05	1445,866
900,22	1433,578
900,40	1556,456
900,57	1572,840
900,75	1513,449
900,92	1548,264
901,10	1503,209
901,27	1507,305
901,45	1527,785
901,62	1535,977
901,80	1468,394
901,97	1480,681
902,15	1533,929
902,32	1501,161
902,50	1484,777
902,67	1404,907
902,85	1548,264
903,02	1581,032
903,20	1476,585
903,37	1488,873
903,54	1597,416
903,72	1570,792
903,89	1476,585
904,07	1523,689
904,24	1527,785
904,42	1503,209
904,59	1411,050
904,77	1456,106
904,94	1447,914
905,12	1466,346
905,29	1492,969
905,47	1466,346
905,64	1431,530
905,81	1439,722
905,99	1435,626
906,16	1501,161
906,34	1492,969
906,51	1538,025
906,69	1425,386
906,86	1400,811
907,03	1433,578
907,21	1441,770
907,38	1615,847
907,56	1562,600
907,73	1529,833
907,91	1548,264
908,08	1513,449
908,25	1581,032
908,43	1503,209
908,60	1507,305
908,78	1484,777
908,95	1519,593
909,13	1519,593
909,30	1570,792
909,47	1460,202
909,65	1517,545
909,82	1593,320
910,00	1503,209
910,17	1495,017
910,34	1486,825
910,52	1527,785
910,69	1505,257
910,87	1447,914
911,04	1503,209
911,21	1554,408
911,39	1470,442
911,56	1499,113
911,73	1519,593
911,91	1519,593
912,08	1544,168
912,26	1486,825
912,43	1574,888
912,60	1470,442
912,78	1458,154
912,95	1540,072
913,13	1550,312
913,30	1556,456
913,47	1550,312
913,65	1527,785
913,82	1507,305
913,99	1523,689
914,17	1519,593
914,34	1628,135
914,51	1511,401
914,69	1538,025
914,86	1562,600
915,03	1566,696
915,21	1490,921
915,38	1437,674
915,56	1626,087
915,73	1564,648
915,90	1527,785
916,08	1396,715
916,25	1544,168
916,42	1423,338
916,60	1505,257
916,77	1503,209
916,94	1525,737
917,12	1527,785
917,29	1546,216
917,46	1419,242
917,64	1521,641
917,81	1558,504
917,98	1458,154
918,16	1546,216
918,33	1499,113
918,50	1523,689
918,67	1497,065
918,85	1535,977
919,02	1523,689
919,19	1583,080
919,37	1673,190
919,54	1417,194
919,71	1525,737
919,89	1460,202
920,06	1589,224
920,23	1552,360
920,41	1535,977
920,58	1495,017
920,75	1437,674
920,92	1411,050
921,10	1478,633
921,27	1441,770
921,44	1617,895
921,62	1427,434
921,79	1626,087
921,96	1456,106
922,13	1609,703
922,31	1509,353
922,48	1468,394
922,65	1437,674
922,82	1593,320
923,00	1558,504
923,17	1523,689
923,34	1531,881
923,52	1533,929
923,69	1531,881
923,86	1617,895
924,03	1578,984
924,21	1472,490
924,38	1497,065
924,55	1449,962
924,72	1466,346
924,90	1578,984
925,07	1613,799
925,24	1497,065
925,41	1505,257
925,59	1513,449
925,76	1427,434
925,93	1484,777
926,10	1538,025
926,28	1517,545
926,45	1607,655
926,62	1441,770
926,79	1603,560
926,96	1497,065
927,14	1509,353
927,31	1441,770
927,48	1480,681
927,65	1535,977
927,83	1587,176
928,00	1511,401
928,17	1503,209
928,34	1429,482
928,51	1495,017
928,69	1554,408
928,86	1576,936
929,03	1558,504
929,20	1503,209
929,37	1583,080
929,55	1564,648
929,72	1484,777
929,89	1550,312
930,06	1472,490
930,23	1550,312
930,41	1581,032
930,58	1548,264
930,75	1595,368
930,92	1499,113
931,09	1437,674
931,27	1560,552
931,44	1441,770
931,61	1509,353
931,78	1447,914
931,95	1441,770
932,12	1411,050
932,30	1472,490
932,47	1499,113
932,64	1615,847
932,81	1570,792
932,98	1497,065
933,16	1490,921
933,33	1492,969
933,50	1564,648
933,67	1597,416
933,84	1421,290
934,01	1505,257
934,18	1495,017
934,36	1517,545
934,53	1492,969
934,70	1525,737
934,87	1433,578
935,04	1486,825
935,21	1417,194
935,38	1404,907
935,56	1515,497
935,73	1466,346
935,90	1390,571
936,07	1476,585
936,24	1505,257
936,41	1517,545
936,58	1531,881
936,76	1535,977
936,93	1570,792
937,10	1396,715
937,27	1519,593
937,44	1372,139
937,61	1470,442
937,78	1572,840
937,95	1519,593
938,13	1447,914
938,30	1437,674
938,47	1564,648
938,64	1443,818
938,81	1417,194
938,98	1488,873
939,15	1441,770
939,32	1478,633
939,49	1486,825
939,66	1554,408
939,84	1488,873
940,01	1474,538
940,18	1527,785
940,35	1486,825
940,52	1480,681
940,69	1441,770
940,86	1495,017
941,03	1464,298
941,20	1476,585
941,37	1535,977
941,54	1474,538
941,71	1400,811
941,89	1525,737
942,06	1472,490
942,23	1640,423
942,40	1572,840
942,57	1454,058
942,74	1429,482
942,91	1476,585
943,08	1515,497
943,25	1513,449
943,42	1519,593
943,59	1535,977
943,76	1509,353
943,93	1503,209
944,10	1341,420
944,27	1427,434
944,44	1478,633
944,61	1497,065
944,79	1458,154
944,96	1482,729
945,13	1562,600
945,30	1535,977
945,47	1486,825
945,64	1470,442
945,81	1411,050
945,98	1529,833
946,15	1456,106
946,32	1486,825
946,49	1441,770
946,66	1484,777
946,83	1386,475
947,00	1525,737
947,17	1529,833
947,34	1445,866
947,51	1484,777
947,68	1441,770
947,85	1445,866
948,02	1466,346
948,19	1452,010
948,36	1554,408
948,53	1472,490
948,70	1499,113
948,87	1513,449
949,04	1507,305
949,21	1351,659
949,38	1501,161
949,55	1531,881
949,72	1492,969
949,89	1529,833
950,06	1445,866
950,23	1456,106
950,40	1462,250
950,57	1490,921
950,74	1478,633
950,91	1437,674
951,08	1443,818
951,25	1497,065
951,42	1519,593
951,59	1445,866
951,76	1427,434
951,93	1441,770
952,10	1445,866
952,27	1441,770
952,44	1409,002
952,61	1441,770
952,77	1449,962
952,94	1529,833
953,11	1542,120
953,28	1474,538
953,45	1411,050
953,62	1464,298
953,79	1404,907
953,96	1486,825
954,13	1351,659
954,30	1490,921
954,47	1484,777
954,64	1404,907
954,81	1511,401
954,98	1421,290
955,15	1435,626
955,32	1419,242
955,49	1400,811
955,65	1439,722
955,82	1511,401
955,99	1447,914
956,16	1513,449
956,33	1482,729
956,50	1388,523
956,67	1470,442
956,84	1568,744
957,01	1431,530
957,18	1454,058
957,35	1396,715
957,52	1562,600
957,68	1501,161
957,85	1462,250
958,02	1515,497
958,19	1337,324
958,36	1472,490
958,53	1497,065
958,70	1499,113
958,87	1370,091
959,04	1400,811
959,21	1417,194
959,37	1480,681
959,54	1445,866
959,71	1341,420
959,88	1427,434
960,05	1470,442
960,22	1380,331
960,39	1433,578
960,56	1466,346
960,72	1452,010
960,89	1644,519
961,06	1462,250
961,23	1462,250
961,40	1542,120
961,57	1488,873
961,74	1398,763
961,90	1421,290
962,07	1462,250
962,24	1419,242
962,41	1449,962
962,58	1466,346
962,75	1482,729
962,92	1482,729
963,08	1486,825
963,25	1394,667
963,42	1497,065
963,59	1398,763
963,76	1411,050
963,93	1533,929
964,10	1433,578
964,26	1578,984
964,43	1409,002
964,60	1435,626
964,77	1488,873
964,94	1331,180
965,10	1398,763
965,27	1386,475
965,44	1398,763
965,61	1472,490
965,78	1505,257
965,95	1527,785
966,11	1527,785
966,28	1507,305
966,45	1462,250
966,62	1511,401
966,79	1495,017
966,95	1492,969
967,12	1531,881
967,29	1439,722
967,46	1470,442
967,63	1521,641
967,79	1538,025
967,96	1531,881
968,13	1445,866
968,30	1540,072
968,47	1392,619
968,63	1521,641
968,80	1499,113
968,97	1413,098
969,14	1523,689
969,31	1400,811
969,47	1396,715
969,64	1499,113
969,81	1437,674
969,98	1421,290
970,14	1433,578
970,31	1390,571
970,48	1429,482
970,65	1452,010
970,81	1486,825
970,98	1441,770
971,15	1486,825
971,32	1437,674
971,48	1439,722
971,65	1429,482
971,82	1456,106
971,99	1443,818
972,15	1433,578
972,32	1431,530
972,49	1513,449
972,66	1564,648
972,82	1492,969
972,99	1376,235
973,16	1492,969
973,33	1431,530
973,49	1470,442
973,66	1443,818
973,83	1576,936
974,00	1441,770
974,16	1427,434
974,33	1511,401
974,50	1480,681
974,67	1359,851
974,83	1406,955
975,00	1470,442
975,17	1445,866
975,33	1474,538
975,50	1431,530
975,67	1490,921
975,84	1394,667
976,00	1499,113
976,17	1570,792
976,34	1409,002
976,50	1531,881
976,67	1427,434
976,84	1474,538
977,00	1406,955
977,17	1365,995
977,34	1548,264
977,50	1443,818
977,67	1507,305
977,84	1503,209
978,01	1441,770
978,17	1595,368
978,34	1474,538
978,51	1544,168
978,67	1437,674
978,84	1466,346
979,01	1642,471
979,17	1421,290
979,34	1542,120
979,51	1523,689
979,67	1486,825
979,84	1587,176
980,01	1576,936
980,17	1488,873
980,34	1419,242
980,51	1525,737
980,67	1470,442
980,84	1538,025
981,01	1583,080
981,17	1529,833
981,34	1687,526
981,50	1472,490
981,67	1396,715
981,84	1572,840
982,00	1578,984
982,17	1460,202
982,34	1464,298
982,50	1583,080
982,67	1409,002
982,84	1589,224
983,00	1388,523
983,17	1511,401
983,33	1460,202
983,50	1486,825
983,67	1499,113
983,83	1466,346
984,00	1499,113
984,17	1634,279
984,33	1480,681
984,50	1421,290
984,66	1556,456
984,83	1482,729
985,00	1353,707
985,16	1611,751
985,33	1476,585
985,49	1511,401
985,66	1501,161
985,83	1472,490
985,99	1370,091
986,16	1513,449
986,32	1380,331
986,49	1458,154
986,66	1605,608
986,82	1454,058
986,99	1452,010
987,15	1425,386
987,32	1443,818
987,49	1484,777
987,65	1521,641
987,82	1554,408
987,98	1529,833
988,15	1527,785
988,31	1507,305
988,48	1609,703
988,65	1497,065
988,81	1413,098
988,98	1540,072
989,14	1413,098
989,31	1521,641
989,47	1531,881
989,64	1509,353
989,80	1490,921
989,97	1462,250
990,14	1636,327
990,30	1474,538
990,47	1497,065
990,63	1503,209
990,80	1396,715
990,96	1535,977
991,13	1574,888
991,29	1488,873
991,46	1476,585
991,62	1517,545
991,79	1404,907
991,95	1552,360
992,12	1533,929
992,29	1529,833
992,45	1497,065
992,62	1581,032
992,78	1570,792
992,95	1503,209
993,11	1460,202
993,28	1499,113
993,44	1394,667
993,61	1490,921
993,77	1505,257
993,94	1480,681
994,10	1525,737
994,27	1550,312
994,43	1423,338
994,60	1578,984
994,76	1492,969
994,93	1478,633
995,09	1632,231
995,26	1476,585
995,42	1415,146
995,59	1560,552
995,75	1495,017
995,92	1566,696
996,08	1552,360
996,25	1542,120
996,41	1456,106
996,58	1546,216
996,74	1546,216
996,91	1511,401
997,07	1472,490
997,23	1433,578
997,40	1601,512
997,56	1544,168
997,73	1677,286
997,89	1503,209
998,06	1531,881
998,22	1624,039
998,39	1458,154
998,55	1492,969
998,72	1495,017
998,88	1486,825
999,05	1546,216
999,21	1484,777
999,37	1576,936
999,54	1560,552
999,70	1454,058
999,87	1538,025
1000,03	1544,168
1000,20	1562,600
1000,36	1632,231
1000,52	1507,305
1000,69	1646,567
1000,85	1394,667
1001,02	1503,209
1001,18	1429,482
1001,35	1581,032
1001,51	1523,689
1001,67	1673,190
1001,84	1560,552
1002,00	1441,770
1002,17	1538,025
1002,33	1540,072
1002,50	1554,408
1002,66	1556,456
1002,82	1452,010
1002,99	1503,209
1003,15	1546,216
1003,32	1478,633
1003,48	1478,633
1003,64	1562,600
1003,81	1626,087
1003,97	1546,216
1004,14	1542,120
1004,30	1392,619
1004,46	1544,168
1004,63	1538,025
1004,79	1435,626
1004,95	1560,552
1005,12	1527,785
1005,28	1585,128
1005,45	1515,497
1005,61	1437,674
1005,77	1519,593
1005,94	1529,833
1006,10	1394,667
1006,26	1531,881
1006,43	1433,578
1006,59	1533,929
1006,76	1589,224
1006,92	1564,648
1007,08	1597,416
1007,25	1492,969
1007,41	1507,305
1007,57	1466,346
1007,74	1581,032
1007,90	1554,408
1008,06	1439,722
1008,23	1390,571
1008,39	1544,168
1008,55	1556,456
1008,72	1449,962
1008,88	1460,202
1009,04	1531,881
1009,21	1601,512
1009,37	1515,497
1009,53	1454,058
1009,70	1468,394
1009,86	1482,729
1010,02	1470,442
1010,19	1421,290
1010,35	1513,449
1010,51	1488,873
1010,68	1519,593
1010,84	1513,449
1011,00	1523,689
1011,17	1478,633
1011,33	1452,010
1011,49	1529,833
1011,66	1505,257
1011,82	1585,128
1011,98	1609,703
1012,14	1394,667
1012,31	1601,512
1012,47	1507,305
1012,63	1525,737
1012,80	1509,353
1012,96	1538,025
1013,12	1519,593
1013,29	1531,881
1013,45	1568,744
1013,61	1540,072
1013,77	1574,888
1013,94	1458,154
1014,10	1517,545
1014,26	1421,290
1014,43	1574,888
1014,59	1531,881
1014,75	1486,825
1014,91	1578,984
1015,08	1560,552
1015,24	1525,737
1015,40	1552,360
1015,56	1535,977
1015,73	1312,748
1015,89	1415,146
1016,05	1480,681
1016,21	1388,523
1016,38	1572,840
1016,54	1624,039
1016,70	1509,353
1016,86	1550,312
1017,03	1449,962
1017,19	1468,394
1017,35	1519,593
1017,51	1449,962
1017,68	1464,298
1017,84	1542,120
1018,00	1454,058
1018,16	1466,346
1018,33	1476,585
1018,49	1427,434
1018,65	1599,464
1018,81	1538,025
1018,97	1570,792
1019,14	1490,921
1019,30	1558,504
1019,46	1556,456
1019,62	1435,626
1019,79	1486,825
1019,95	1503,209
1020,11	1495,017
1020,27	1404,907
1020,43	1464,298
1020,60	1456,106
1020,76	1529,833
1020,92	1486,825
1021,08	1509,353
1021,24	1490,921
1021,41	1564,648
1021,57	1581,032
1021,73	1460,202
1021,89	1521,641
1022,05	1566,696
1022,21	1433,578
1022,38	1433,578
1022,54	1527,785
1022,70	1476,585
1022,86	1449,962
1023,02	1527,785
1023,19	1540,072
1023,35	1488,873
1023,51	1441,770
1023,67	1447,914
1023,83	1529,833
1023,99	1458,154
1024,16	1402,859
1024,32	1533,929
1024,48	1552,360
1024,64	1458,154
1024,80	1546,216
1024,96	1550,312
1025,12	1564,648
1025,29	1429,482
1025,45	1427,434
1025,61	1458,154
1025,77	1507,305
1025,93	1468,394
1026,09	1482,729
1026,26	1472,490
1026,42	1458,154
1026,58	1480,681
1026,74	1380,331
1026,90	1304,556
1027,06	1531,881
1027,22	1558,504
1027,38	1454,058
1027,55	1480,681
1027,71	1460,202
1027,87	1511,401
1028,03	1470,442
1028,19	1472,490
1028,35	1478,633
1028,51	1382,379
1028,67	1404,907
1028,83	1357,803
1029,00	1497,065
1029,16	1419,242
1029,32	1462,250
1029,48	1452,010
1029,64	1439,722
1029,80	1429,482
1029,96	1515,497
1030,12	1478,633
1030,28	1503,209
1030,44	1443,818
1030,61	1529,833
1030,77	1398,763
1030,93	1515,497
1031,09	1396,715
1031,25	1396,715
1031,41	1474,538
1031,57	1355,755
1031,73	1400,811
1031,89	1437,674
1032,05	1419,242
1032,21	1454,058
1032,37	1343,468
1032,53	1501,161
1032,69	1443,818
1032,86	1402,859
1033,02	1443,818
1033,18	1437,674
1033,34	1384,427
1033,50	1472,490
1033,66	1466,346
1033,82	1486,825
1033,98	1503,209
1034,14	1478,633
1034,30	1423,338
1034,46	1429,482
1034,62	1400,811
1034,78	1513,449
1034,94	1435,626
1035,10	1452,010
1035,26	1392,619
1035,42	1490,921
1035,58	1421,290
1035,74	1343,468
1035,90	1427,434
1036,06	1378,283
1036,22	1376,235
1036,38	1505,257
1036,54	1429,482
1036,70	1423,338
1036,86	1441,770
1037,02	1472,490
1037,18	1574,888
1037,34	1495,017
1037,50	1447,914
1037,66	1464,298
1037,82	1398,763
1037,98	1517,545
1038,14	1390,571
1038,30	1355,755
1038,46	1433,578
1038,62	1411,050
1038,78	1480,681
1038,94	1386,475
1039,10	1454,058
1039,26	1398,763
1039,42	1343,468
1039,58	1376,235
1039,74	1445,866
1039,90	1458,154
1040,06	1509,353
>>>>>End Spectral Data<<<<<
