SpectraSuite Data File
++++++++++++++++++++++++++++++++++++
Date: Wed Feb 01 16:26:37 EET 2017
User: optolab
Dark Spectrum Present: Yes
Reference Spectrum Present: Yes
Number of Sampled Component Spectra: 1
Spectrometers: USB4C02475
Integration Time (usec): 100000 (USB4C02475)
Spectra Averaged: 1 (USB4C02475)
Boxcar Smoothing: 0 (USB4C02475)
Correct for Electrical Dark: No (USB4C02475)
Strobe/Lamp Enabled: No (USB4C02475)
Correct for Detector Non-linearity: No (USB4C02475)
Correct for Stray Light: No (USB4C02475)
Number of Pixels in Processed Spectrum: 3648
>>>>>Begin Processed Spectral Data<<<<<
344,91	3600,000
345,13	3600,000
345,35	3600,000
345,57	0,000
345,79	410,526
346,00	-1966,667
346,22	-2414,286
346,44	397,059
346,66	-529,167
346,87	-10300,000
347,09	451,515
347,31	-481,818
347,53	-300,000
347,74	226,154
347,96	472,727
348,18	894,737
348,40	396,774
348,61	1041,176
348,83	459,524
349,05	241,176
349,27	-5300,000
349,48	546,154
349,70	-462,069
349,92	474,194
350,14	241,509
350,35	350,000
350,57	3650,000
350,79	636,000
351,01	-828,571
351,22	250,000
351,44	861,538
351,66	-456,000
351,87	-371,429
352,09	246,154
352,31	257,377
352,53	285,938
352,74	372,222
352,96	322,078
353,18	805,263
353,40	520,000
353,61	262,222
353,83	367,647
354,05	863,636
354,26	2066,667
354,48	250,000
354,70	396,970
354,92	-379,310
355,13	203,030
355,35	309,091
355,57	725,000
355,78	190,361
356,00	-2975,000
356,22	561,538
356,44	7150,000
356,65	381,818
356,87	530,769
357,09	554,167
357,30	271,111
357,52	293,103
357,74	675,000
357,95	387,179
358,17	277,049
358,39	303,226
358,60	372,973
358,82	541,667
359,04	448,148
359,26	502,857
359,47	10000,000
359,69	370,000
359,91	515,152
360,12	500,000
360,34	712,500
360,56	-125,926
360,77	3650,000
360,99	557,143
361,21	324,000
361,42	8200,000
361,64	281,633
361,86	235,385
362,07	-500,000
362,29	218,667
362,51	-664,706
362,72	608,000
362,94	394,118
363,16	283,721
363,37	-785,714
363,59	530,769
363,81	363,636
364,02	877,778
364,24	625,000
364,46	4433,333
364,67	1054,545
364,89	2300,000
365,11	232,857
365,32	513,793
365,54	380,556
365,76	318,367
365,97	385,294
366,19	196,552
366,41	677,273
366,62	388,889
366,84	255,814
367,05	312,245
367,27	1933,333
367,49	-584,615
367,70	800,000
367,92	260,656
368,14	302,083
368,35	-12500,000
368,57	500,000
368,79	513,793
369,00	373,913
369,22	-1400,000
369,43	223,529
369,65	332,258
369,87	421,622
370,08	190,361
370,30	312,500
370,51	224,590
370,73	282,222
370,95	245,161
371,16	214,286
371,38	493,333
371,60	2025,000
371,81	232,813
372,03	773,333
372,24	536,667
372,46	273,585
372,68	178,571
372,89	478,788
373,11	588,462
373,32	400,000
373,54	-1130,769
373,76	969,231
373,97	960,000
374,19	627,273
374,40	290,625
374,62	-4566,667
374,84	4575,000
375,05	371,429
375,27	350,000
375,48	-10900,000
375,70	202,667
375,92	223,214
376,13	384,375
376,35	236,986
376,56	843,750
376,78	284,722
376,99	425,000
377,21	312,500
377,43	224,242
377,64	237,681
377,86	417,241
378,07	397,436
378,29	-1175,000
378,51	551,613
378,72	341,667
378,94	-1433,333
379,15	330,303
379,37	694,118
379,58	244,615
379,80	853,333
380,01	625,000
380,23	337,255
380,45	2440,000
380,66	5700,000
380,88	250,000
381,09	254,286
381,31	184,444
381,52	262,745
381,74	1900,000
381,95	886,364
382,17	465,385
382,39	614,286
382,60	240,816
382,82	371,795
383,03	323,077
383,25	519,355
383,46	306,818
383,68	429,630
383,89	770,000
384,11	261,290
384,32	-3533,333
384,54	644,444
384,76	-4266,667
384,97	251,515
385,19	455,172
385,40	317,647
385,62	236,842
385,83	335,714
386,05	252,941
386,26	336,000
386,48	189,655
386,69	300,000
386,91	620,000
387,12	235,593
387,34	272,414
387,55	230,645
387,77	518,750
387,98	511,538
388,20	204,348
388,41	355,882
388,63	10900,000
388,84	245,902
389,06	311,905
389,27	763,158
389,49	466,667
389,70	259,184
389,92	310,000
390,13	275,510
390,35	278,431
390,56	314,815
390,78	600,000
390,99	1140,000
391,21	636,842
391,42	344,444
391,64	448,780
391,85	265,517
392,07	245,455
392,28	188,000
392,50	221,212
392,71	-1212,500
392,93	257,692
393,14	555,556
393,36	269,388
393,57	145,113
393,79	711,111
394,00	289,362
394,22	158,904
394,43	180,723
394,65	406,977
394,86	1350,000
395,08	680,952
395,29	226,415
395,50	492,308
395,72	661,111
395,93	776,190
396,15	169,014
396,36	185,294
396,58	291,667
396,79	205,000
397,01	246,000
397,22	344,444
397,44	269,697
397,65	159,649
397,87	235,714
398,08	269,388
398,29	462,500
398,51	267,857
398,72	321,951
398,94	213,846
399,15	408,571
399,37	259,649
399,58	164,835
399,80	581,818
400,01	220,370
400,22	333,333
400,44	222,222
400,65	517,857
400,87	219,118
401,08	250,000
401,30	217,391
401,51	245,614
401,72	323,077
401,94	181,013
402,15	600,000
402,37	147,059
402,58	527,778
402,80	271,429
403,01	238,028
403,22	1163,636
403,44	226,087
403,65	250,000
403,87	192,857
404,08	420,513
404,30	176,471
404,51	-2366,667
404,72	157,143
404,94	153,922
405,15	190,000
405,37	179,747
405,58	202,353
405,79	226,829
406,01	321,951
406,22	270,690
406,44	217,021
406,65	292,982
406,86	89,583
407,08	148,101
407,29	111,650
407,51	174,390
407,72	162,037
407,93	131,522
408,15	91,453
408,36	234,884
408,58	150,515
408,79	92,500
409,00	163,542
409,22	201,587
409,43	149,367
409,64	117,391
409,86	101,258
410,07	117,692
410,29	80,597
410,50	107,801
410,71	118,750
410,93	70,064
411,14	107,752
411,35	80,357
411,57	76,974
411,78	86,719
412,00	82,803
412,21	89,677
412,42	85,185
412,64	65,236
412,85	59,278
413,06	59,756
413,28	50,000
413,49	51,659
413,70	69,203
413,92	63,636
414,13	34,440
414,34	52,107
414,56	44,056
414,77	60,759
414,98	28,188
415,20	33,910
415,41	42,776
415,63	35,075
415,84	41,944
416,05	32,967
416,27	37,726
416,48	47,472
416,69	31,858
416,91	29,730
417,12	24,332
417,33	29,263
417,55	27,565
417,76	40,041
417,97	25,934
418,19	22,664
418,40	25,532
418,61	28,333
418,83	15,636
419,04	20,347
419,25	18,224
419,46	25,714
419,68	21,746
419,89	19,672
420,10	19,592
420,32	14,944
420,53	20,025
420,74	17,154
420,96	13,500
421,17	17,898
421,38	15,778
421,60	15,232
421,81	16,287
422,02	15,152
422,23	9,859
422,45	10,948
422,66	14,154
422,87	13,339
423,09	12,391
423,30	10,223
423,51	7,953
423,73	11,028
423,94	12,535
424,15	8,571
424,36	7,736
424,58	11,375
424,79	10,369
425,00	8,978
425,22	7,108
425,43	8,185
425,64	8,925
425,85	6,801
426,07	7,517
426,28	6,845
426,49	6,660
426,71	6,413
426,92	3,850
427,13	5,143
427,34	4,399
427,56	4,659
427,77	4,139
427,98	5,792
428,19	3,254
428,41	5,734
428,62	5,654
428,83	6,102
429,04	5,126
429,26	4,939
429,47	5,513
429,68	3,866
429,89	3,409
430,11	3,927
430,32	4,057
430,53	4,726
430,74	3,663
430,96	3,679
431,17	3,718
431,38	3,610
431,59	4,411
431,81	4,261
432,02	3,295
432,23	3,871
432,44	3,569
432,66	3,550
432,87	3,488
433,08	3,354
433,29	4,010
433,51	2,207
433,72	2,552
433,93	2,281
434,14	3,129
434,35	1,953
434,57	2,360
434,78	2,165
434,99	2,728
435,20	2,062
435,42	2,228
435,63	2,442
435,84	2,579
436,05	2,678
436,26	1,850
436,48	1,889
436,69	1,690
436,90	2,150
437,11	2,178
437,32	2,263
437,54	2,440
437,75	2,046
437,96	2,243
438,17	1,457
438,38	2,238
438,60	1,659
438,81	1,652
439,02	2,121
439,23	1,322
439,44	1,958
439,66	1,877
439,87	1,879
440,08	1,412
440,29	1,367
440,50	1,618
440,72	1,518
440,93	1,386
441,14	1,728
441,35	1,603
441,56	1,294
441,77	1,821
441,99	1,612
442,20	1,471
442,41	1,275
442,62	1,344
442,83	1,609
443,04	1,621
443,26	1,861
443,47	2,056
443,68	1,523
443,89	1,768
444,10	1,734
444,31	1,686
444,53	1,819
444,74	1,755
444,95	1,676
445,16	1,638
445,37	1,710
445,58	1,795
445,80	2,012
446,01	2,431
446,22	2,572
446,43	3,391
446,64	4,949
446,85	7,262
447,06	10,701
447,28	14,864
447,49	19,910
447,70	27,281
447,91	34,689
448,12	42,405
448,33	49,870
448,54	59,346
448,76	67,700
448,97	75,114
449,18	81,573
449,39	84,818
449,60	88,116
449,81	90,164
450,02	91,891
450,23	94,232
450,45	93,637
450,66	93,832
450,87	95,545
451,08	95,276
451,29	97,217
451,50	95,928
451,71	97,951
451,92	98,106
452,13	98,617
452,35	98,606
452,56	98,623
452,77	97,746
452,98	97,882
453,19	97,719
453,40	95,482
453,61	96,660
453,82	96,742
454,03	96,471
454,25	96,411
454,46	96,698
454,67	96,855
454,88	97,828
455,09	97,731
455,30	96,910
455,51	98,381
455,72	98,024
455,93	96,860
456,14	97,511
456,35	97,393
456,56	96,348
456,78	97,724
456,99	98,532
457,20	97,650
457,41	96,217
457,62	97,414
457,83	96,194
458,04	96,991
458,25	97,912
458,46	96,752
458,67	96,320
458,88	96,307
459,09	96,931
459,30	96,189
459,51	95,933
459,73	95,624
459,94	96,067
460,15	94,493
460,36	94,734
460,57	95,456
460,78	95,941
460,99	95,417
461,20	95,105
461,41	96,233
461,62	95,908
461,83	95,967
462,04	95,660
462,25	96,684
462,46	94,607
462,67	96,085
462,88	94,159
463,09	94,005
463,30	94,134
463,51	93,231
463,72	91,451
463,93	92,236
464,15	91,695
464,36	91,373
464,57	91,282
464,78	92,118
464,99	91,994
465,20	92,881
465,41	93,185
465,62	92,039
465,83	92,988
466,04	94,159
466,25	94,230
466,46	95,096
466,67	96,090
466,88	96,511
467,09	96,175
467,30	96,318
467,51	95,615
467,72	96,031
467,93	94,484
468,14	94,332
468,35	93,147
468,56	93,991
468,77	93,672
468,98	93,445
469,19	93,342
469,40	93,512
469,61	94,125
469,82	93,814
470,03	95,323
470,24	95,833
470,45	95,986
470,66	95,444
470,87	96,950
471,08	96,543
471,29	96,334
471,50	97,571
471,71	95,283
471,92	95,081
472,13	94,950
472,34	94,472
472,55	94,523
472,76	94,994
472,97	95,412
473,18	95,322
473,39	94,598
473,60	95,570
473,81	96,307
474,01	96,267
474,22	97,754
474,43	96,737
474,64	97,377
474,85	96,109
475,06	96,370
475,27	96,038
475,48	94,905
475,69	92,800
475,90	93,369
476,11	93,557
476,32	92,073
476,53	90,363
476,74	87,902
476,95	85,369
477,16	80,308
477,37	72,355
477,58	64,849
477,79	55,729
478,00	44,785
478,21	34,295
478,41	25,726
478,62	18,261
478,83	13,090
479,04	9,248
479,25	5,894
479,46	4,197
479,67	3,286
479,88	2,540
480,09	1,870
480,30	1,594
480,51	1,616
480,72	1,220
480,93	1,408
481,14	0,930
481,34	1,196
481,55	0,869
481,76	0,911
481,97	1,014
482,18	0,991
482,39	0,908
482,60	0,903
482,81	0,992
483,02	0,841
483,23	0,992
483,44	0,967
483,65	0,921
483,85	0,684
484,06	0,928
484,27	0,878
484,48	0,907
484,69	0,961
484,90	0,938
485,11	0,714
485,32	1,024
485,53	0,897
485,73	1,006
485,94	0,927
486,15	0,864
486,36	0,669
486,57	0,866
486,78	0,932
486,99	0,885
487,20	0,638
487,41	0,725
487,61	0,662
487,82	0,734
488,03	0,717
488,24	0,800
488,45	0,840
488,66	0,782
488,87	0,718
489,08	0,681
489,28	0,696
489,49	0,803
489,70	0,685
489,91	0,731
490,12	0,786
490,33	0,869
490,54	0,496
490,74	0,812
490,95	0,687
491,16	0,646
491,37	0,729
491,58	0,597
491,79	0,559
492,00	0,682
492,20	0,565
492,41	0,656
492,62	0,487
492,83	0,658
493,04	0,673
493,25	0,772
493,45	0,585
493,66	0,725
493,87	0,540
494,08	0,573
494,29	0,613
494,50	0,586
494,70	0,732
494,91	0,658
495,12	0,825
495,33	0,687
495,54	0,788
495,75	0,711
495,95	0,603
496,16	0,649
496,37	0,453
496,58	0,786
496,79	0,816
496,99	0,616
497,20	0,505
497,41	0,773
497,62	0,712
497,83	0,725
498,04	0,639
498,24	0,780
498,45	0,730
498,66	0,800
498,87	0,616
499,08	0,641
499,28	0,600
499,49	0,608
499,70	0,614
499,91	0,675
500,12	0,677
500,32	0,579
500,53	0,529
500,74	0,643
500,95	0,817
501,15	0,745
501,36	0,722
501,57	0,540
501,78	0,833
501,99	0,918
502,19	0,525
502,40	0,669
502,61	0,784
502,82	0,644
503,02	0,744
503,23	0,738
503,44	0,719
503,65	0,795
503,86	0,580
504,06	0,677
504,27	0,643
504,48	0,871
504,69	0,852
504,89	0,709
505,10	0,713
505,31	0,760
505,52	0,740
505,72	0,583
505,93	0,747
506,14	0,781
506,35	0,651
506,55	0,940
506,76	0,826
506,97	0,822
507,18	0,592
507,38	0,802
507,59	0,858
507,80	0,652
508,01	0,791
508,21	0,630
508,42	1,104
508,63	0,774
508,84	0,615
509,04	0,796
509,25	0,903
509,46	0,795
509,67	0,751
509,87	0,732
510,08	0,961
510,29	0,867
510,49	0,768
510,70	0,838
510,91	0,851
511,12	0,823
511,32	0,741
511,53	1,061
511,74	0,843
511,94	0,997
512,15	0,781
512,36	0,946
512,57	0,890
512,77	0,991
512,98	0,731
513,19	0,819
513,39	0,688
513,60	0,705
513,81	0,913
514,01	0,950
514,22	1,086
514,43	1,044
514,64	0,831
514,84	0,805
515,05	0,754
515,26	0,885
515,46	0,977
515,67	0,912
515,88	0,897
516,08	0,956
516,29	1,051
516,50	0,859
516,70	0,954
516,91	1,117
517,12	1,149
517,32	1,099
517,53	1,124
517,74	1,249
517,95	1,052
518,15	1,193
518,36	1,215
518,57	1,220
518,77	1,149
518,98	1,124
519,19	0,994
519,39	1,255
519,60	1,259
519,80	1,420
520,01	1,213
520,22	1,421
520,42	1,573
520,63	1,873
520,84	2,663
521,04	3,697
521,25	5,617
521,46	8,019
521,66	12,190
521,87	17,038
522,08	24,579
522,28	32,568
522,49	40,779
522,70	50,275
522,90	58,947
523,11	66,946
523,31	72,895
523,52	77,328
523,73	83,118
523,93	84,868
524,14	87,477
524,35	89,492
524,55	88,854
524,76	89,276
524,97	90,319
525,17	89,958
525,38	89,761
525,58	90,420
525,79	91,390
526,00	92,755
526,20	93,395
526,41	94,514
526,61	96,705
526,82	96,311
527,03	96,833
527,23	97,495
527,44	97,442
527,64	98,357
527,85	99,421
528,06	98,127
528,26	98,520
528,47	98,438
528,68	98,709
528,88	98,127
529,09	98,263
529,29	98,318
529,50	98,782
529,70	98,521
529,91	97,595
530,12	96,375
530,32	96,368
530,53	96,789
530,73	96,290
530,94	97,918
531,15	97,231
531,35	97,486
531,56	98,417
531,76	96,985
531,97	98,717
532,17	99,092
532,38	97,983
532,59	98,625
532,79	99,525
533,00	99,353
533,20	99,031
533,41	99,799
533,61	99,845
533,82	100,264
534,03	99,229
534,23	100,531
534,44	101,449
534,64	100,130
534,85	100,744
535,05	100,316
535,26	101,267
535,46	101,035
535,67	99,873
535,88	100,862
536,08	100,337
536,29	102,501
536,49	100,694
536,70	101,905
536,90	101,760
537,11	101,703
537,31	100,894
537,52	101,691
537,72	101,856
537,93	101,204
538,13	100,393
538,34	100,542
538,55	100,890
538,75	101,014
538,96	100,261
539,16	100,496
539,37	100,028
539,57	100,339
539,78	99,834
539,98	101,265
540,19	100,008
540,39	100,581
540,60	99,879
540,80	100,363
541,01	100,432
541,21	101,181
541,42	99,716
541,62	99,640
541,83	100,369
542,03	100,100
542,24	99,795
542,44	98,696
542,65	98,186
542,85	98,993
543,06	98,396
543,26	97,258
543,47	97,878
543,67	97,041
543,88	97,782
544,08	97,374
544,29	96,709
544,49	96,650
544,70	96,952
544,90	96,679
545,11	97,625
545,31	96,731
545,52	96,191
545,72	96,295
545,93	96,735
546,13	97,659
546,34	97,419
546,54	97,728
546,75	98,656
546,95	98,311
547,15	98,645
547,36	99,697
547,56	97,976
547,77	99,387
547,97	99,479
548,18	99,021
548,38	98,488
548,59	99,492
548,79	98,532
549,00	99,093
549,20	99,331
549,41	98,732
549,61	98,385
549,81	98,843
550,02	98,352
550,22	98,134
550,43	98,602
550,63	98,801
550,84	98,258
551,04	98,687
551,25	99,750
551,45	97,335
551,65	98,673
551,86	98,924
552,06	97,855
552,27	99,064
552,47	97,974
552,68	98,097
552,88	96,053
553,08	96,776
553,29	95,929
553,49	94,878
553,70	95,197
553,90	94,496
554,11	94,418
554,31	93,740
554,51	94,246
554,72	94,203
554,92	93,841
555,13	94,003
555,33	92,820
555,53	92,626
555,74	89,481
555,94	85,603
556,15	81,323
556,35	74,604
556,56	67,891
556,76	59,370
556,96	50,462
557,17	42,065
557,37	33,963
557,58	27,001
557,78	20,343
557,98	15,102
558,19	11,236
558,39	8,010
558,59	5,805
558,80	4,273
559,00	2,991
559,21	2,307
559,41	1,534
559,61	1,457
559,82	1,357
560,02	1,110
560,23	1,159
560,43	0,997
560,63	1,032
560,84	0,931
561,04	0,695
561,24	0,968
561,45	0,765
561,65	0,803
561,85	1,073
562,06	0,877
562,26	0,838
562,47	0,806
562,67	0,771
562,87	0,789
563,08	0,764
563,28	0,762
563,48	0,837
563,69	0,933
563,89	0,824
564,09	0,840
564,30	0,748
564,50	0,859
564,70	0,815
564,91	0,915
565,11	0,773
565,31	0,666
565,52	0,685
565,72	0,795
565,92	0,814
566,13	0,638
566,33	0,719
566,53	0,619
566,74	0,802
566,94	0,760
567,14	0,626
567,35	0,521
567,55	0,643
567,75	0,822
567,96	0,775
568,16	0,636
568,36	0,721
568,57	0,794
568,77	0,487
568,97	0,590
569,18	0,722
569,38	0,847
569,58	0,710
569,79	0,917
569,99	0,678
570,19	0,639
570,39	0,703
570,60	0,705
570,80	0,663
571,00	0,559
571,21	0,623
571,41	0,660
571,61	0,762
571,82	0,730
572,02	0,607
572,22	0,882
572,42	0,564
572,63	0,704
572,83	0,610
573,03	0,698
573,24	0,707
573,44	0,520
573,64	0,730
573,84	0,744
574,05	0,560
574,25	0,802
574,45	0,430
574,66	0,814
574,86	0,702
575,06	0,576
575,26	0,517
575,47	0,686
575,67	0,716
575,87	0,476
576,07	0,470
576,28	0,775
576,48	0,817
576,68	0,680
576,88	0,577
577,09	0,622
577,29	0,564
577,49	0,565
577,69	0,586
577,90	0,723
578,10	0,595
578,30	0,577
578,50	0,674
578,71	0,827
578,91	0,435
579,11	0,596
579,31	0,481
579,52	0,656
579,72	0,473
579,92	0,632
580,12	0,638
580,33	0,511
580,53	0,670
580,73	0,576
580,93	0,647
581,13	0,591
581,34	0,569
581,54	0,716
581,74	0,564
581,94	0,870
582,15	0,575
582,35	0,480
582,55	0,587
582,75	0,662
582,95	0,700
583,16	0,507
583,36	0,715
583,56	0,717
583,76	0,534
583,96	0,810
584,17	0,540
584,37	0,699
584,57	0,553
584,77	0,549
584,97	0,675
585,18	0,673
585,38	0,653
585,58	0,629
585,78	0,537
585,98	0,678
586,19	0,546
586,39	0,710
586,59	0,588
586,79	0,577
586,99	0,644
587,20	0,546
587,40	0,639
587,60	0,572
587,80	0,750
588,00	0,646
588,20	0,509
588,41	0,838
588,61	0,506
588,81	0,546
589,01	0,671
589,21	0,675
589,41	0,568
589,62	0,576
589,82	0,558
590,02	0,476
590,22	0,812
590,42	0,662
590,62	0,513
590,83	0,627
591,03	0,573
591,23	0,578
591,43	0,851
591,63	0,703
591,83	0,598
592,03	0,656
592,24	0,549
592,44	0,573
592,64	0,699
592,84	0,745
593,04	0,733
593,24	0,686
593,44	0,665
593,65	0,745
593,85	0,531
594,05	0,435
594,25	0,792
594,45	0,646
594,65	0,711
594,85	0,762
595,06	0,616
595,26	0,686
595,46	0,561
595,66	0,636
595,86	0,847
596,06	0,519
596,26	0,505
596,46	0,602
596,66	0,579
596,87	0,671
597,07	0,616
597,27	0,647
597,47	0,607
597,67	0,907
597,87	0,785
598,07	0,508
598,27	0,657
598,47	0,814
598,67	0,554
598,88	0,734
599,08	0,686
599,28	0,721
599,48	0,661
599,68	0,671
599,88	0,632
600,08	0,770
600,28	0,732
600,48	0,639
600,68	0,719
600,88	0,737
601,09	0,668
601,29	0,792
601,49	0,786
601,69	0,787
601,89	0,559
602,09	0,903
602,29	0,777
602,49	0,664
602,69	0,670
602,89	0,798
603,09	0,737
603,29	0,831
603,49	0,611
603,69	0,821
603,90	0,774
604,10	0,926
604,30	0,830
604,50	0,745
604,70	0,901
604,90	0,556
605,10	0,765
605,30	0,726
605,50	0,695
605,70	0,823
605,90	0,836
606,10	0,825
606,30	0,966
606,50	1,191
606,70	0,825
606,90	0,952
607,10	1,073
607,30	0,840
607,50	1,123
607,70	1,059
607,90	1,106
608,10	1,036
608,30	1,223
608,50	1,542
608,70	1,562
608,90	1,880
609,11	2,301
609,31	2,825
609,51	3,789
609,71	5,061
609,91	6,629
610,11	8,813
610,31	11,542
610,51	15,420
610,71	20,173
610,91	25,105
611,11	31,382
611,31	38,332
611,51	44,816
611,71	50,530
611,91	57,420
612,11	63,515
612,31	68,015
612,51	72,624
612,71	76,970
612,91	79,215
613,11	81,681
613,31	84,838
613,51	86,195
613,71	87,190
613,91	88,753
614,11	90,861
614,31	90,040
614,50	92,276
614,70	92,199
614,90	92,665
615,10	94,477
615,30	94,516
615,50	94,391
615,70	95,867
615,90	96,691
616,10	97,486
616,30	95,923
616,50	96,987
616,70	96,701
616,90	97,236
617,10	97,306
617,30	97,048
617,50	97,275
617,70	96,587
617,90	96,840
618,10	96,223
618,30	97,162
618,50	96,306
618,70	96,598
618,90	98,033
619,10	97,077
619,30	97,545
619,49	98,127
619,69	97,513
619,89	97,166
620,09	97,649
620,29	98,338
620,49	96,885
620,69	97,276
620,89	97,706
621,09	96,644
621,29	96,783
621,49	95,432
621,69	95,617
621,89	96,059
622,09	95,048
622,29	96,713
622,48	96,479
622,68	95,606
622,88	96,260
623,08	95,932
623,28	96,756
623,48	96,397
623,68	97,551
623,88	97,093
624,08	96,923
624,28	98,376
624,48	97,460
624,67	96,866
624,87	97,761
625,07	97,399
625,27	96,996
625,47	98,171
625,67	97,857
625,87	96,862
626,07	96,594
626,27	96,413
626,47	96,786
626,66	96,812
626,86	96,750
627,06	96,943
627,26	95,334
627,46	96,308
627,66	95,404
627,86	96,471
628,06	95,969
628,25	95,250
628,45	96,203
628,65	96,890
628,85	95,829
629,05	96,786
629,25	95,698
629,45	96,055
629,65	96,559
629,84	96,727
630,04	96,807
630,24	98,213
630,44	97,117
630,64	98,000
630,84	97,687
631,04	97,314
631,23	98,519
631,43	99,198
631,63	98,783
631,83	98,997
632,03	98,857
632,23	99,683
632,42	99,055
632,62	99,349
632,82	100,245
633,02	99,089
633,22	100,820
633,42	100,237
633,62	101,451
633,81	101,752
634,01	101,143
634,21	100,933
634,41	102,388
634,61	100,420
634,80	101,668
635,00	102,672
635,20	103,147
635,40	102,177
635,60	102,160
635,80	103,098
635,99	102,566
636,19	102,414
636,39	103,014
636,59	102,033
636,79	101,472
636,98	101,546
637,18	101,489
637,38	101,746
637,58	102,071
637,78	100,924
637,97	102,684
638,17	101,706
638,37	101,340
638,57	102,148
638,77	101,818
638,96	100,937
639,16	101,141
639,36	101,365
639,56	101,048
639,76	101,897
639,95	103,271
640,15	100,889
640,35	101,165
640,55	102,693
640,75	101,091
640,94	102,136
641,14	102,177
641,34	101,695
641,54	100,342
641,73	99,968
641,93	99,846
642,13	101,758
642,33	102,054
642,53	100,280
642,72	100,020
642,92	100,277
643,12	100,374
643,32	100,020
643,51	100,239
643,71	100,870
643,91	100,705
644,11	100,076
644,30	98,944
644,50	98,927
644,70	99,009
644,90	99,124
645,09	99,730
645,29	98,194
645,49	99,211
645,69	98,661
645,88	98,741
646,08	99,298
646,28	100,443
646,48	99,071
646,67	99,083
646,87	99,758
647,07	99,754
647,26	99,589
647,46	99,700
647,66	99,887
647,86	100,493
648,05	97,654
648,25	100,559
648,45	99,748
648,65	98,686
648,84	100,629
649,04	101,253
649,24	99,180
649,43	99,836
649,63	100,984
649,83	98,788
650,03	99,462
650,22	100,365
650,42	98,989
650,62	100,192
650,81	99,895
651,01	98,654
651,21	97,651
651,40	98,772
651,60	99,645
651,80	100,493
652,00	97,939
652,19	97,567
652,39	99,231
652,59	97,129
652,78	97,959
652,98	98,480
653,18	98,367
653,37	97,060
653,57	98,437
653,77	96,915
653,96	96,687
654,16	96,863
654,36	97,897
654,55	98,420
654,75	97,748
654,95	97,116
655,14	95,603
655,34	96,975
655,54	96,625
655,73	95,447
655,93	95,939
656,13	95,787
656,32	93,950
656,52	96,113
656,72	96,007
656,91	94,523
657,11	92,951
657,31	91,855
657,50	94,337
657,70	92,012
657,90	91,865
658,09	91,733
658,29	92,913
658,49	90,872
658,68	90,795
658,88	90,777
659,07	89,948
659,27	87,809
659,47	88,526
659,66	86,961
659,86	85,641
660,06	83,458
660,25	80,912
660,45	78,278
660,64	75,177
660,84	71,111
661,04	67,337
661,23	61,515
661,43	57,292
661,63	53,406
661,82	47,228
662,02	43,471
662,21	38,111
662,41	32,227
662,61	28,881
662,80	24,918
663,00	20,722
663,19	17,423
663,39	14,937
663,59	12,454
663,78	10,511
663,98	9,373
664,17	7,862
664,37	6,781
664,57	6,074
664,76	5,475
664,96	4,434
665,15	3,703
665,35	3,823
665,55	3,001
665,74	2,974
665,94	2,475
666,13	2,913
666,33	1,835
666,53	2,315
666,72	1,542
666,92	1,996
667,11	1,777
667,31	1,590
667,50	1,715
667,70	1,696
667,90	1,354
668,09	1,384
668,29	1,434
668,48	1,312
668,68	1,516
668,87	1,362
669,07	1,415
669,26	1,480
669,46	1,238
669,66	1,265
669,85	1,229
670,05	0,935
670,24	1,258
670,44	0,708
670,63	1,046
670,83	1,107
671,02	1,255
671,22	1,654
671,42	1,043
671,61	0,822
671,81	0,987
672,00	1,447
672,20	1,029
672,39	0,728
672,59	0,628
672,78	0,908
672,98	0,786
673,17	1,209
673,37	0,875
673,56	0,971
673,76	0,891
673,95	0,962
674,15	0,635
674,34	0,874
674,54	1,079
674,73	0,590
674,93	1,028
675,13	0,544
675,32	0,980
675,52	1,088
675,71	0,901
675,91	0,999
676,10	0,758
676,30	0,796
676,49	0,869
676,69	0,701
676,88	0,985
677,08	0,936
677,27	0,808
677,47	0,810
677,66	0,916
677,86	0,961
678,05	1,068
678,24	0,527
678,44	0,759
678,63	0,800
678,83	0,826
679,02	0,683
679,22	0,411
679,41	0,846
679,61	0,664
679,80	0,799
680,00	0,787
680,19	0,663
680,39	0,676
680,58	0,610
680,78	0,692
680,97	0,652
681,17	0,494
681,36	0,672
681,56	0,842
681,75	0,795
681,94	0,611
682,14	0,848
682,33	0,702
682,53	1,069
682,72	0,787
682,92	0,821
683,11	0,682
683,31	0,416
683,50	0,844
683,69	0,511
683,89	0,311
684,08	0,817
684,28	0,580
684,47	0,553
684,67	0,632
684,86	0,488
685,06	0,572
685,25	0,519
685,44	0,545
685,64	0,437
685,83	0,750
686,03	0,412
686,22	0,580
686,42	0,468
686,61	0,721
686,80	0,756
687,00	0,770
687,19	0,750
687,39	0,387
687,58	0,628
687,77	0,259
687,97	0,604
688,16	0,427
688,36	0,344
688,55	0,446
688,74	0,561
688,94	0,417
689,13	0,580
689,33	0,490
689,52	0,539
689,71	0,586
689,91	0,481
690,10	0,465
690,30	0,497
690,49	0,559
690,68	0,514
690,88	0,617
691,07	0,403
691,27	0,479
691,46	0,377
691,65	0,395
691,85	0,548
692,04	0,456
692,23	0,412
692,43	0,359
692,62	0,489
692,82	0,405
693,01	0,503
693,20	0,631
693,40	0,464
693,59	0,534
693,78	0,543
693,98	0,372
694,17	0,535
694,36	0,712
694,56	0,452
694,75	0,371
694,94	0,612
695,14	0,560
695,33	0,357
695,53	0,334
695,72	0,489
695,91	0,538
696,11	0,585
696,30	0,496
696,49	0,332
696,69	0,528
696,88	0,761
697,07	0,499
697,27	0,580
697,46	0,497
697,65	0,431
697,85	0,562
698,04	0,873
698,23	0,693
698,43	0,947
698,62	0,645
698,81	0,625
699,01	0,951
699,20	0,885
699,39	1,050
699,58	1,004
699,78	0,721
699,97	0,901
700,16	1,148
700,36	0,859
700,55	1,330
700,74	0,956
700,94	1,182
701,13	0,816
701,32	1,517
701,52	1,615
701,71	1,236
701,90	1,676
702,09	1,692
702,29	1,658
702,48	1,429
702,67	1,084
702,87	1,306
703,06	1,739
703,25	1,800
703,44	1,486
703,64	2,585
703,83	1,769
704,02	2,258
704,22	1,218
704,41	1,334
704,60	2,221
704,79	1,106
704,99	2,318
705,18	1,710
705,37	2,068
705,56	3,098
705,76	2,686
705,95	2,136
706,14	1,187
706,33	3,010
706,53	1,795
706,72	2,783
706,91	3,091
707,11	3,383
707,30	3,100
707,49	2,862
707,68	2,039
707,88	2,916
708,07	2,305
708,26	3,671
708,45	3,425
708,64	2,860
708,84	4,212
709,03	3,861
709,22	2,467
709,41	2,633
709,61	3,791
709,80	3,849
709,99	3,477
710,18	4,556
710,38	3,286
710,57	3,672
710,76	3,819
710,95	3,999
711,14	5,558
711,34	3,190
711,53	5,234
711,72	4,459
711,91	3,691
712,11	5,491
712,30	6,099
712,49	5,320
712,68	5,136
712,87	6,311
713,07	7,003
713,26	5,708
713,45	4,410
713,64	4,855
713,83	4,336
714,03	7,290
714,22	4,623
714,41	5,206
714,60	5,550
714,79	5,211
714,99	5,217
715,18	4,105
715,37	7,190
715,56	6,674
715,75	4,393
715,94	6,942
716,14	5,944
716,33	8,297
716,52	4,631
716,71	6,648
716,90	7,649
717,10	6,140
717,29	5,257
717,48	6,089
717,67	4,088
717,86	7,293
718,05	4,856
718,24	7,849
718,44	6,477
718,63	6,766
718,82	9,698
719,01	8,110
719,20	5,056
719,39	7,337
719,59	3,646
719,78	5,074
719,97	7,183
720,16	6,032
720,35	4,775
720,54	9,097
720,73	7,148
720,93	8,387
721,12	4,354
721,31	8,333
721,50	9,347
721,69	6,951
721,88	11,689
722,07	5,657
722,27	9,756
722,46	7,022
722,65	7,032
722,84	9,341
723,03	6,250
723,22	9,493
723,41	8,762
723,60	9,942
723,79	10,892
723,99	10,567
724,18	12,355
724,37	9,293
724,56	10,705
724,75	10,160
724,94	12,990
725,13	14,446
725,32	10,551
725,51	11,951
725,71	10,985
725,90	10,798
726,09	14,286
726,28	9,879
726,47	4,590
726,66	13,116
726,85	9,426
727,04	11,423
727,23	9,046
727,42	14,049
727,61	7,619
727,81	9,593
728,00	12,690
728,19	10,526
728,38	7,451
728,57	8,281
728,76	13,674
728,95	13,393
729,14	8,494
729,33	12,514
729,52	11,474
729,71	14,696
729,90	15,155
730,09	8,645
730,28	14,088
730,48	8,353
730,67	15,840
730,86	5,100
731,05	15,070
731,24	14,076
731,43	11,698
731,62	15,288
731,81	12,452
732,00	14,358
732,19	8,046
732,38	13,089
732,57	13,215
732,76	17,024
732,95	11,600
733,14	10,013
733,33	10,577
733,52	14,528
733,71	14,943
733,90	17,866
734,09	13,983
734,28	16,552
734,47	13,158
734,66	15,468
734,85	16,738
735,04	13,488
735,23	14,418
735,42	16,427
735,61	20,000
735,81	17,655
736,00	20,633
736,19	20,562
736,38	17,778
736,57	19,916
736,76	14,884
736,95	11,212
737,14	16,869
737,33	15,891
737,52	21,418
737,71	14,263
737,90	19,667
738,09	15,798
738,28	14,673
738,47	20,752
738,66	14,531
738,85	16,495
739,04	28,014
739,22	13,007
739,41	16,129
739,60	13,545
739,79	18,151
739,98	8,348
740,17	16,667
740,36	18,036
740,55	21,164
740,74	16,174
740,93	15,854
741,12	26,287
741,31	20,588
741,50	14,313
741,69	11,296
741,88	21,800
742,07	13,357
742,26	17,790
742,45	20,751
742,64	26,259
742,83	17,660
743,02	17,477
743,21	27,565
743,40	29,559
743,59	17,623
743,78	15,066
743,97	20,301
744,16	21,286
744,34	21,654
744,53	17,213
744,72	31,393
744,91	9,895
745,10	22,833
745,29	19,858
745,48	16,830
745,67	18,534
745,86	12,207
746,05	28,539
746,24	23,312
746,43	23,877
746,62	17,281
746,81	23,288
747,00	27,766
747,18	29,451
747,37	21,535
747,56	21,798
747,75	18,600
747,94	26,915
748,13	28,539
748,32	34,615
748,51	30,248
748,70	26,139
748,89	26,087
749,08	13,714
749,26	26,014
749,45	27,294
749,64	25,062
749,83	17,303
750,02	27,348
750,21	26,686
750,40	21,875
750,59	30,896
750,78	44,083
750,96	20,112
751,15	24,590
751,34	36,911
751,53	31,773
751,72	39,084
751,91	28,767
752,10	19,753
752,29	41,525
752,47	24,719
752,66	32,958
752,85	29,412
753,04	34,700
753,23	17,881
753,42	34,650
753,61	31,373
753,80	31,707
753,98	30,175
754,17	22,699
754,36	37,571
754,55	21,944
754,74	40,173
754,93	29,683
755,12	36,267
755,30	37,119
755,49	37,920
755,68	37,464
755,87	20,420
756,06	35,196
756,25	36,508
756,43	25,172
756,62	31,157
756,81	16,502
757,00	36,812
757,19	38,699
757,38	38,801
757,56	34,516
757,75	33,987
757,94	44,164
758,13	35,065
758,32	28,788
758,51	20,588
758,69	20,000
758,88	42,943
759,07	41,219
759,26	30,233
759,45	35,808
759,63	50,186
759,82	38,721
760,01	27,425
760,20	28,405
760,39	35,448
760,57	31,818
760,76	28,378
760,95	31,944
761,14	52,245
761,33	40,312
761,51	39,785
761,70	45,862
761,89	31,148
762,08	44,186
762,27	30,769
762,45	41,634
762,64	34,799
762,83	50,000
763,02	38,605
763,21	45,690
763,39	46,122
763,58	47,547
763,77	38,996
763,96	57,831
764,14	41,667
764,33	39,194
764,52	54,506
764,71	39,013
764,89	32,353
765,08	42,672
765,27	44,981
765,46	47,826
765,65	37,555
765,83	50,216
766,02	48,085
766,21	62,983
766,40	50,952
766,58	53,659
766,77	30,846
766,96	55,455
767,15	49,758
767,33	41,520
767,52	55,488
767,71	66,522
767,90	47,191
768,08	45,525
768,27	55,000
768,46	62,891
768,64	88,083
768,83	47,396
769,02	61,500
769,21	46,725
769,39	48,256
769,58	54,913
769,77	64,368
769,96	46,597
770,14	65,306
770,33	44,393
770,52	40,741
770,70	73,333
770,89	71,812
771,08	50,000
771,27	73,711
771,45	50,877
771,64	70,833
771,83	46,262
772,01	57,831
772,20	67,839
772,39	56,667
772,57	43,411
772,76	50,370
772,95	68,085
773,14	65,591
773,32	80,000
773,51	71,144
773,70	96,250
773,88	92,896
774,07	54,450
774,26	50,355
774,44	53,659
774,63	80,711
774,82	54,268
775,00	77,333
775,19	62,400
775,38	78,613
775,56	54,687
775,75	81,325
775,94	53,797
776,12	52,486
776,31	67,647
776,50	68,182
776,68	56,842
776,87	55,114
777,06	71,034
777,24	88,889
777,43	69,872
777,62	113,235
777,80	94,595
777,99	88,000
778,18	70,297
778,36	85,600
778,55	64,463
778,74	77,778
778,92	70,414
779,11	76,667
779,29	77,987
779,48	63,946
779,67	48,062
779,85	106,504
780,04	63,243
780,23	48,201
780,41	83,594
780,60	62,105
780,79	71,186
780,97	96,053
781,16	66,061
781,34	84,536
781,53	100,000
781,72	66,423
781,90	78,125
782,09	70,323
782,28	106,569
782,46	46,667
782,65	68,571
782,83	119,101
783,02	85,000
783,21	97,333
783,39	113,913
783,58	76,923
783,76	82,123
783,95	53,939
784,14	76,159
784,32	85,235
784,51	112,069
784,69	61,864
784,88	86,486
785,06	79,832
785,25	78,344
785,44	101,439
785,62	88,571
785,81	156,338
785,99	112,230
786,18	72,973
786,37	73,333
786,55	79,817
786,74	67,763
786,92	94,531
787,11	55,000
787,29	56,716
787,48	88,667
787,67	125,301
787,85	111,207
788,04	59,901
788,22	45,902
788,41	110,588
788,59	123,853
788,78	59,394
788,96	81,132
789,15	132,632
789,34	115,455
789,52	89,381
789,71	76,744
789,89	195,745
790,08	101,370
790,26	70,000
790,45	69,697
790,63	95,370
790,82	81,818
791,00	65,972
791,19	55,914
791,38	109,028
791,56	119,298
791,75	117,431
791,93	119,540
792,12	72,189
792,30	115,200
792,49	96,639
792,67	106,716
792,86	94,574
793,04	87,850
793,23	58,333
793,41	121,519
793,60	130,303
793,78	77,193
793,97	142,308
794,15	100,000
794,34	118,681
794,52	131,169
794,71	138,272
794,89	113,333
795,08	109,709
795,26	89,444
795,45	86,567
795,63	93,182
795,82	94,393
796,00	84,404
796,19	101,667
796,37	90,511
796,56	116,129
796,74	109,735
796,93	151,685
797,11	106,329
797,30	105,833
797,48	102,069
797,67	111,667
797,85	82,653
798,04	145,833
798,22	97,619
798,41	104,902
798,59	115,789
798,77	201,538
798,96	91,398
799,14	106,897
799,33	107,634
799,51	90,000
799,70	93,289
799,88	118,182
800,07	62,500
800,25	83,448
800,44	88,889
800,62	124,706
800,80	105,797
800,99	168,254
801,17	87,931
801,36	91,724
801,54	142,708
801,73	97,980
801,91	78,689
802,10	115,476
802,28	115,888
802,46	98,765
802,65	83,908
802,83	140,449
803,02	97,895
803,20	121,094
803,39	68,966
803,57	148,193
803,75	70,946
803,94	115,966
804,12	82,500
804,31	124,779
804,49	78,846
804,67	96,800
804,86	84,821
805,04	107,432
805,23	86,207
805,41	89,344
805,59	81,967
805,78	77,273
805,96	65,385
806,15	92,969
806,33	116,807
806,51	59,292
806,70	175,000
806,88	89,431
807,07	61,905
807,25	78,616
807,43	90,728
807,62	101,626
807,80	132,258
807,99	86,508
808,17	112,057
808,35	108,772
808,54	97,849
808,72	85,600
808,90	123,684
809,09	95,000
809,27	106,306
809,46	154,464
809,64	106,863
809,82	94,253
810,01	91,667
810,19	134,000
810,37	71,538
810,56	134,146
810,74	66,887
810,92	116,667
811,11	145,098
811,29	115,603
811,48	120,202
811,66	110,078
811,84	106,422
812,03	95,455
812,21	97,436
812,39	111,017
812,58	76,471
812,76	91,589
812,94	111,333
813,13	78,571
813,31	95,000
813,49	135,870
813,68	88,696
813,86	112,245
814,04	130,097
814,23	137,374
814,41	65,441
814,59	71,186
814,78	99,265
814,96	102,703
815,14	146,667
815,33	89,855
815,51	86,667
815,69	104,938
815,87	92,174
816,06	116,250
816,24	105,960
816,42	63,462
816,61	117,797
816,79	142,169
816,97	81,081
817,16	63,226
817,34	82,069
817,52	94,483
817,70	134,921
817,89	72,727
818,07	61,207
818,25	102,703
818,44	85,465
818,62	89,655
818,80	89,510
818,98	78,095
819,17	92,308
819,35	77,059
819,53	104,950
819,72	68,605
819,90	80,838
820,08	52,597
820,26	114,035
820,45	80,723
820,63	88,021
820,81	76,510
820,99	87,970
821,18	63,704
821,36	95,238
821,54	97,093
821,73	90,811
821,91	62,766
822,09	71,176
822,27	59,391
822,46	71,250
822,64	100,000
822,82	60,976
823,00	75,676
823,19	69,697
823,37	118,571
823,55	86,471
823,73	82,000
823,91	67,956
824,10	86,034
824,28	107,407
824,46	53,488
824,64	65,686
824,83	59,350
825,01	80,435
825,19	76,571
825,37	64,583
825,56	71,875
825,74	63,810
825,92	80,337
826,10	75,776
826,28	84,564
826,47	87,805
826,65	61,486
826,83	84,409
827,01	69,697
827,19	96,203
827,38	64,767
827,56	78,365
827,74	52,439
827,92	70,732
828,10	71,196
828,29	67,143
828,47	63,158
828,65	55,676
828,83	75,253
829,01	54,000
829,20	70,253
829,38	45,643
829,56	63,158
829,74	88,636
829,92	58,763
830,10	66,667
830,29	87,027
830,47	77,083
830,65	50,000
830,83	69,143
831,01	56,667
831,20	58,911
831,38	66,341
831,56	63,563
831,74	79,429
831,92	53,977
832,10	62,273
832,29	66,351
832,47	46,903
832,65	70,638
832,83	56,744
833,01	50,988
833,19	41,629
833,37	66,296
833,56	68,545
833,74	54,251
833,92	49,115
834,10	67,513
834,28	37,692
834,46	54,325
834,64	59,766
834,83	35,836
835,01	56,420
835,19	50,237
835,37	43,426
835,55	54,874
835,73	56,618
835,91	54,440
836,09	29,046
836,28	42,366
836,46	47,368
836,64	52,869
836,82	38,806
837,00	65,646
837,18	46,640
837,36	49,198
837,54	35,606
837,72	44,622
837,91	38,153
838,09	36,400
838,27	57,875
838,45	37,864
838,63	35,932
838,81	46,053
838,99	58,188
839,17	47,573
839,35	28,148
839,53	43,960
839,72	35,593
839,90	37,690
840,08	49,359
840,26	50,473
840,44	26,235
840,62	38,721
840,80	38,580
840,98	36,858
841,16	28,826
841,34	39,710
841,52	42,492
841,70	50,505
841,89	44,194
842,07	42,432
842,25	30,519
842,43	31,290
842,61	42,359
842,79	38,110
842,97	34,146
843,15	37,822
843,33	31,354
843,51	31,504
843,69	18,333
843,87	38,275
844,05	34,771
844,23	32,973
844,41	32,915
844,59	38,636
844,77	27,666
844,95	27,427
845,13	22,404
845,31	26,536
845,50	40,979
845,68	32,902
845,86	33,255
846,04	37,778
846,22	32,936
846,40	17,848
846,58	27,346
846,76	30,923
846,94	33,654
847,12	34,123
847,30	23,963
847,48	39,089
847,66	27,805
847,84	26,904
848,02	27,443
848,20	30,684
848,38	32,983
848,56	39,785
848,74	28,926
848,92	21,921
849,10	31,250
849,28	28,540
849,46	16,121
849,64	24,048
849,82	12,500
850,00	20,329
850,18	20,092
850,36	27,193
850,54	25,785
850,72	37,422
850,90	27,737
851,08	20,576
851,26	30,567
851,44	20,482
851,62	26,049
851,80	23,459
851,98	30,247
852,16	40,123
852,34	29,602
852,52	24,851
852,70	20,482
852,87	21,905
853,05	23,647
853,23	24,118
853,41	19,836
853,59	23,019
853,77	26,389
853,95	23,305
854,13	12,233
854,31	28,796
854,49	16,433
854,67	24,248
854,85	25,217
855,03	22,222
855,21	22,673
855,39	18,792
855,57	31,341
855,75	18,887
855,93	19,081
856,11	26,635
856,28	28,125
856,46	15,196
856,64	26,861
856,82	16,579
857,00	21,799
857,18	21,440
857,36	20,840
857,54	19,426
857,72	21,536
857,90	15,815
858,08	21,451
858,26	13,761
858,44	18,012
858,61	15,251
858,79	20,465
858,97	20,917
859,15	15,525
859,33	15,798
859,51	17,252
859,69	20,238
859,87	19,766
860,05	17,573
860,23	11,970
860,40	16,743
860,58	16,379
860,76	15,960
860,94	14,656
861,12	14,164
861,30	17,921
861,48	16,006
861,66	17,831
861,84	19,693
862,01	20,856
862,19	17,209
862,37	16,181
862,55	10,446
862,73	16,576
862,91	12,974
863,09	19,116
863,27	10,167
863,44	15,894
863,62	13,184
863,80	10,260
863,98	12,005
864,16	14,673
864,34	13,117
864,52	21,982
864,69	21,566
864,87	17,759
865,05	11,583
865,23	12,077
865,41	15,256
865,59	17,800
865,76	17,313
865,94	17,206
866,12	11,665
866,30	11,411
866,48	16,833
866,66	18,330
866,83	10,066
867,01	11,377
867,19	15,566
867,37	9,964
867,55	17,124
867,73	13,212
867,90	13,406
868,08	21,133
868,26	6,613
868,44	12,554
868,62	12,017
868,79	12,662
868,97	12,793
869,15	12,314
869,33	10,143
869,51	15,393
869,69	13,452
869,86	11,077
870,04	15,450
870,22	10,614
870,40	11,818
870,57	12,400
870,75	15,134
870,93	13,944
871,11	11,801
871,29	11,789
871,46	10,675
871,64	9,298
871,82	8,780
872,00	9,891
872,18	12,900
872,35	12,923
872,53	14,839
872,71	11,550
872,89	12,975
873,06	10,240
873,24	10,294
873,42	10,305
873,60	7,622
873,77	11,566
873,95	9,249
874,13	13,059
874,31	9,715
874,49	11,683
874,66	9,794
874,84	7,726
875,02	9,520
875,20	10,165
875,37	7,325
875,55	5,927
875,73	9,232
875,91	11,875
876,08	8,121
876,26	8,576
876,44	9,505
876,61	10,687
876,79	13,396
876,97	7,541
877,15	13,435
877,32	11,890
877,50	8,862
877,68	8,190
877,86	8,762
878,03	11,819
878,21	7,817
878,39	8,815
878,56	7,522
878,74	7,881
878,92	10,757
879,10	8,728
879,27	7,143
879,45	8,573
879,63	4,886
879,80	9,245
879,98	8,327
880,16	9,721
880,34	5,199
880,51	8,704
880,69	9,593
880,87	5,017
881,04	6,190
881,22	8,827
881,40	4,672
881,57	7,609
881,75	8,992
881,93	7,197
882,10	9,737
882,28	5,103
882,46	8,690
882,63	8,606
882,81	7,299
882,99	8,162
883,16	8,432
883,34	7,723
883,52	3,990
883,69	7,920
883,87	8,601
884,05	4,905
884,22	5,909
884,40	6,528
884,58	6,760
884,75	7,407
884,93	8,168
885,11	5,495
885,28	7,937
885,46	7,083
885,64	6,335
885,81	7,327
885,99	5,158
886,17	6,713
886,34	6,817
886,52	7,457
886,70	4,097
886,87	7,872
887,05	5,539
887,22	7,893
887,40	7,704
887,58	5,025
887,75	6,979
887,93	5,876
888,11	4,152
888,28	4,647
888,46	3,955
888,63	8,111
888,81	6,185
888,99	3,934
889,16	4,898
889,34	5,278
889,51	5,431
889,69	4,184
889,87	4,887
890,04	3,318
890,22	4,288
890,39	2,698
890,57	6,415
890,75	5,814
890,92	5,439
891,10	6,020
891,27	4,896
891,45	4,958
891,63	5,768
891,80	4,528
891,98	5,645
892,15	2,580
892,33	4,235
892,51	3,869
892,68	4,946
892,86	4,567
893,03	4,068
893,21	5,569
893,38	4,641
893,56	5,853
893,74	6,252
893,91	5,361
894,09	4,491
894,26	5,408
894,44	4,253
894,61	4,569
894,79	4,540
894,96	5,376
895,14	5,615
895,32	3,508
895,49	4,031
895,67	3,503
895,84	5,165
896,02	5,047
896,19	4,481
896,37	5,163
896,54	4,308
896,72	3,721
896,89	4,685
897,07	2,744
897,25	4,955
897,42	4,571
897,60	3,363
897,77	5,248
897,95	4,876
898,12	4,140
898,30	3,515
898,47	4,456
898,65	3,404
898,82	3,569
899,00	4,013
899,17	5,015
899,35	4,273
899,52	2,079
899,70	4,357
899,87	3,104
900,05	4,835
900,22	4,124
900,40	4,631
900,57	3,880
900,75	2,943
900,92	4,488
901,10	3,613
901,27	3,410
901,45	5,352
901,62	3,899
901,80	4,651
901,97	3,994
902,15	5,164
902,32	4,012
902,50	3,539
902,67	4,355
902,85	3,812
903,02	4,428
903,20	3,479
903,37	4,775
903,54	3,098
903,72	3,060
903,89	3,560
904,07	4,076
904,24	4,808
904,42	3,455
904,59	3,039
904,77	3,992
904,94	3,440
905,12	2,110
905,29	4,119
905,47	3,625
905,64	3,455
905,81	4,196
905,99	3,516
906,16	3,663
906,34	3,333
906,51	3,621
906,69	3,011
906,86	3,400
907,03	3,269
907,21	3,238
907,38	1,812
907,56	2,892
907,73	4,493
907,91	4,050
908,08	2,777
908,25	2,255
908,43	4,260
908,60	3,033
908,78	4,758
908,95	4,195
909,13	4,624
909,30	1,793
909,47	3,672
909,65	4,920
909,82	4,469
910,00	3,820
910,17	4,494
910,34	4,646
910,52	4,197
910,69	4,616
910,87	3,204
911,04	1,751
911,21	3,909
911,39	4,321
911,56	2,885
911,73	2,934
911,91	4,718
912,08	3,872
912,26	3,321
912,43	3,694
912,60	3,885
912,78	3,526
912,95	3,620
913,13	4,416
913,30	4,256
913,47	4,010
913,65	1,253
913,82	3,797
913,99	2,495
914,17	3,114
914,34	4,276
914,51	4,010
914,69	2,727
914,86	3,263
915,03	4,507
915,21	3,063
915,38	2,622
915,56	2,926
915,73	3,154
915,90	3,901
916,08	3,943
916,25	2,261
916,42	3,245
916,60	3,366
916,77	2,879
916,94	3,197
917,12	3,381
917,29	4,062
917,46	2,912
917,64	2,811
917,81	3,049
917,98	2,546
918,16	2,965
918,33	3,534
918,50	3,058
918,67	3,454
918,85	3,078
919,02	3,489
919,19	4,258
919,37	2,927
919,54	2,995
919,71	4,048
919,89	2,656
920,06	2,182
920,23	2,904
920,41	3,268
920,58	2,602
920,75	2,789
920,92	2,453
921,10	2,733
921,27	2,102
921,44	3,639
921,62	1,779
921,79	2,384
921,96	2,965
922,13	2,334
922,31	2,397
922,48	2,907
922,65	3,045
922,82	2,830
923,00	3,842
923,17	1,881
923,34	2,080
923,52	1,933
923,69	2,901
923,86	2,422
924,03	2,036
924,21	2,792
924,38	3,039
924,55	3,946
924,72	3,022
924,90	2,505
925,07	2,214
925,24	2,671
925,41	2,327
925,59	1,679
925,76	2,341
925,93	3,032
926,10	3,149
926,28	2,653
926,45	2,838
926,62	2,703
926,79	1,924
926,96	2,907
927,14	2,745
927,31	1,445
927,48	3,050
927,65	3,010
927,83	1,630
928,00	2,562
928,17	3,278
928,34	2,184
928,51	2,845
928,69	1,288
928,86	2,936
929,03	3,155
929,20	2,295
929,37	3,116
929,55	2,052
929,72	2,477
929,89	1,706
930,06	2,349
930,23	2,637
930,41	2,775
930,58	3,590
930,75	2,197
930,92	2,055
931,09	2,522
931,27	2,210
931,44	2,547
931,61	3,350
931,78	2,401
931,95	1,705
932,12	2,184
932,30	2,370
932,47	2,204
932,64	3,325
932,81	2,676
932,98	1,831
933,16	2,315
933,33	2,232
933,50	1,684
933,67	3,418
933,84	1,754
934,01	1,853
934,18	1,955
934,36	1,763
934,53	1,956
934,70	2,034
934,87	1,718
935,04	3,038
935,21	1,956
935,38	2,205
935,56	2,380
935,73	2,290
935,90	0,976
936,07	2,288
936,24	2,839
936,41	2,343
936,58	1,121
936,76	1,806
936,93	1,141
937,10	1,898
937,27	2,345
937,44	1,643
937,61	2,459
937,78	2,981
937,95	1,566
938,13	1,926
938,30	2,714
938,47	2,758
938,64	1,743
938,81	2,094
938,98	1,916
939,15	2,130
939,32	2,413
939,49	2,350
939,66	2,936
939,84	2,383
940,01	3,069
940,18	2,494
940,35	2,088
940,52	1,424
940,69	3,242
940,86	2,149
941,03	1,725
941,20	3,361
941,37	2,918
941,54	1,028
941,71	1,583
941,89	2,100
942,06	1,985
942,23	2,180
942,40	2,345
942,57	2,774
942,74	2,797
942,91	1,054
943,08	3,346
943,25	2,262
943,42	2,712
943,59	3,062
943,76	3,250
943,93	2,079
944,10	2,012
944,27	2,012
944,44	2,440
944,61	1,186
944,79	2,909
944,96	3,783
945,13	2,221
945,30	1,667
945,47	2,480
945,64	2,676
945,81	3,616
945,98	2,535
946,15	2,735
946,32	2,258
946,49	3,649
946,66	2,340
946,83	2,903
947,00	2,600
947,17	2,549
947,34	3,498
947,51	2,931
947,68	4,330
947,85	2,228
948,02	3,402
948,19	4,404
948,36	3,274
948,53	3,756
948,70	4,233
948,87	3,796
949,04	3,359
949,21	2,032
949,38	3,954
949,55	3,271
949,72	3,506
949,89	2,915
950,06	2,881
950,23	4,501
950,40	4,410
950,57	1,694
950,74	5,354
950,91	4,572
951,08	2,403
951,25	3,937
951,42	5,576
951,59	4,267
951,76	4,929
951,93	4,824
952,10	3,296
952,27	3,388
952,44	3,205
952,61	3,579
952,77	4,090
952,94	3,372
953,11	6,709
953,28	4,979
953,45	4,563
953,62	4,193
953,79	4,209
953,96	5,992
954,13	5,173
954,30	5,550
954,47	5,838
954,64	5,162
954,81	5,618
954,98	5,190
955,15	5,198
955,32	4,348
955,49	6,093
955,65	7,669
955,82	8,157
955,99	3,944
956,16	9,461
956,33	6,625
956,50	7,845
956,67	9,594
956,84	7,111
957,01	7,956
957,18	8,692
957,35	8,152
957,52	5,537
957,68	9,667
957,85	11,234
958,02	9,905
958,19	11,662
958,36	12,323
958,53	13,917
958,70	9,412
958,87	12,133
959,04	8,120
959,21	12,222
959,37	12,879
959,54	13,782
959,71	9,305
959,88	10,538
960,05	16,225
960,22	10,888
960,39	15,733
960,56	5,443
960,72	12,422
960,89	20,152
961,06	17,834
961,23	16,739
961,40	16,017
961,57	14,693
961,74	14,241
961,90	17,500
962,07	18,265
962,24	18,537
962,41	18,090
962,58	18,417
962,75	20,354
962,92	27,664
963,08	17,636
963,25	18,198
963,42	14,251
963,59	24,587
963,76	21,573
963,93	18,535
964,10	18,844
964,26	17,544
964,43	23,514
964,60	27,979
964,77	27,952
964,94	20,170
965,10	36,607
965,27	21,671
965,44	39,221
965,61	28,375
965,78	29,073
965,95	36,826
966,11	39,628
966,28	41,636
966,45	33,022
966,62	42,769
966,79	47,347
966,95	29,552
967,12	49,842
967,29	31,597
967,46	37,879
967,63	49,434
967,79	66,216
967,96	43,290
968,13	62,000
968,30	59,274
968,47	62,887
968,63	55,856
968,80	48,624
968,97	48,077
969,14	46,512
969,31	54,444
969,47	40,000
969,64	57,071
969,81	33,679
969,98	58,791
970,14	50,307
970,31	80,503
970,48	75,833
970,65	87,574
970,81	93,151
970,98	97,080
971,15	106,122
971,32	56,250
971,48	103,401
971,65	88,462
971,82	133,333
971,99	94,253
972,15	109,859
972,32	84,685
972,49	107,692
972,66	140,000
972,82	134,884
972,99	86,992
973,16	133,333
973,33	116,071
973,49	94,737
973,66	123,656
973,83	126,214
974,00	134,884
974,16	128,431
974,33	139,474
974,50	100,000
974,67	155,789
974,83	98,810
975,00	120,000
975,17	102,198
975,33	138,202
975,50	122,388
975,67	179,592
975,84	208,955
976,00	119,101
976,17	226,230
976,34	107,000
976,50	171,910
976,67	119,417
976,84	2533,333
977,00	240,816
977,17	226,667
977,34	182,418
977,50	114,925
977,67	200,000
977,84	227,419
978,01	246,809
978,17	977,778
978,34	338,889
978,51	347,059
978,67	201,316
978,84	114,844
979,01	267,568
979,17	174,359
979,34	115,753
979,51	257,143
979,67	212,346
979,84	271,429
980,01	333,333
980,17	263,380
980,34	366,667
980,51	242,029
980,67	176,471
980,84	466,667
981,01	500,000
981,17	516,000
981,34	1122,222
981,50	220,588
981,67	284,746
981,84	5200,000
982,00	456,667
982,17	276,190
982,34	164,444
982,50	606,667
982,67	173,958
982,84	2000,000
983,00	1600,000
983,17	185,075
983,33	184,483
983,50	2040,000
983,67	-300,000
983,83	318,182
984,00	-1257,143
984,17	683,333
984,33	-4800,000
984,50	365,714
984,66	341,304
984,83	190,909
985,00	-245,833
985,16	506,897
985,33	582,353
985,49	494,444
985,66	344,118
985,83	269,565
985,99	376,923
986,16	-3625,000
986,32	700,000
986,49	10700,000
986,66	403,030
986,82	958,333
986,99	247,170
987,15	-552,632
987,32	-346,429
987,49	184,000
987,65	5850,000
987,82	387,500
987,98	220,408
988,15	466,667
988,31	1020,000
988,48	-2200,000
988,65	407,143
988,81	350,000
988,98	300,000
989,14	319,048
989,31	676,190
989,47	323,529
989,64	-800,000
989,80	881,250
989,97	356,757
990,14	-273,913
990,30	-536,364
990,47	322,449
990,63	366,667
990,80	314,000
990,96	-570,000
991,13	356,250
991,29	451,724
991,46	0,000
991,62	-1007,692
991,79	966,667
991,95	14100,000
992,12	-1600,000
992,29	-450,000
992,45	197,647
992,62	288,372
992,78	306,818
992,95	-506,667
993,11	510,714
993,28	1280,000
993,44	-970,000
993,61	-831,250
993,77	-3575,000
993,94	-5600,000
994,10	-121,333
994,27	600,000
994,43	334,884
994,60	0,000
994,76	2775,000
994,93	695,000
995,09	-811,765
995,26	1211,111
995,42	211,765
995,59	642,857
995,75	1000,000
995,92	1528,571
996,08	388,889
996,25	-1237,500
996,41	-5200,000
996,58	1046,667
996,74	331,818
996,91	465,517
997,07	0,000
997,23	10700,000
997,40	-16500,000
997,56	-900,000
997,73	-1500,000
997,89	407,895
998,06	984,615
998,22	-550,000
998,39	664,000
998,55	1455,556
998,72	-1550,000
998,88	-350,000
999,05	-165,385
999,21	235,714
999,37	-753,333
999,54	-1050,000
999,70	-340,000
999,87	743,750
1000,03	423,077
1000,20	295,833
1000,36	0,000
1000,52	441,667
1000,69	-638,095
1000,85	-880,000
1001,02	-541,667
1001,18	3250,000
1001,35	1138,462
1001,51	735,294
1001,67	-1115,385
1001,84	-2360,000
1002,00	316,216
1002,17	1127,273
1002,33	-3025,000
1002,50	690,476
1002,66	-930,769
1002,82	392,500
1002,99	1142,857
1003,15	-1728,571
1003,32	-1163,636
1003,48	514,286
1003,64	1180,000
1003,81	496,296
1003,97	-6100,000
1004,14	854,545
1004,30	310,000
1004,46	-686,667
1004,63	978,571
1004,79	408,333
1004,95	1013,333
1005,12	6100,000
1005,28	562,069
1005,45	394,595
1005,61	420,690
1005,77	-320,833
1005,94	-628,571
1006,10	-6000,000
1006,26	1130,769
1006,43	-311,538
1006,59	-1163,636
1006,76	900,000
1006,92	1477,778
1007,08	13700,000
1007,25	-225,926
1007,41	351,724
1007,57	4900,000
1007,74	1000,000
1007,90	-517,241
1008,06	247,826
1008,23	1076,471
1008,39	-768,750
1008,55	-450,000
1008,72	-1614,286
1008,88	0,000
1009,04	385,366
1009,21	-268,421
1009,37	-708,333
1009,53	307,143
1009,70	2900,000
1009,86	-550,000
1010,02	2733,333
1010,19	1063,636
1010,35	291,176
1010,51	-6200,000
1010,68	-1300,000
1010,84	-220,455
1011,00	656,250
1011,17	-390,909
1011,33	0,000
1011,49	-960,000
1011,66	978,571
1011,82	577,419
1011,98	1135,714
1012,14	-554,545
1012,31	330,769
1012,47	0,000
1012,63	2566,667
1012,80	985,714
1012,96	-650,000
1013,12	-1650,000
1013,29	583,333
1013,45	409,756
1013,61	4966,667
1013,77	-183,929
1013,94	2620,000
1014,10	167,797
1014,26	-2425,000
1014,43	-408,000
1014,59	570,000
1014,75	-477,778
1014,91	-613,333
1015,08	397,222
1015,24	8600,000
1015,40	529,412
1015,56	-10500,000
1015,73	357,143
1015,89	663,636
1016,05	3575,000
1016,21	-937,500
1016,38	878,947
1016,54	1115,385
1016,70	-4466,667
1016,86	465,625
1017,03	975,000
1017,19	-1069,231
1017,35	-800,000
1017,51	-1980,000
1017,68	-900,000
1017,84	-1857,143
1018,00	323,810
1018,16	415,385
1018,33	-1614,286
1018,49	-908,333
1018,65	-300,000
1018,81	376,923
1018,97	-1071,429
1019,14	-3166,667
1019,30	-292,308
1019,46	0,000
1019,62	-752,941
1019,79	-4133,333
1019,95	1358,333
1020,11	8850,000
1020,27	-370,370
1020,43	-473,077
1020,60	2283,333
1020,76	638,889
1020,92	933,333
1021,08	700,000
1021,24	1110,000
1021,41	1822,222
1021,57	1487,500
1021,73	907,692
1021,89	2160,000
1022,05	-464,286
1022,21	605,000
1022,38	-800,000
1022,54	-2450,000
1022,70	353,333
1022,86	-1200,000
1023,02	537,500
1023,19	2840,000
1023,35	4766,667
1023,51	483,333
1023,67	414,815
1023,83	-725,000
1023,99	231,579
1024,16	-484,615
1024,32	-1277,778
1024,48	-1300,000
1024,64	335,714
1024,80	639,130
1024,96	394,872
1025,12	638,095
1025,29	585,714
1025,45	402,632
1025,61	861,111
1025,77	-1980,000
1025,93	-8500,000
1026,09	-1585,714
1026,26	1000,000
1026,42	556,250
1026,58	436,364
1026,74	1966,667
1026,90	392,000
1027,06	382,143
1027,22	1235,714
1027,38	309,615
1027,55	3200,000
1027,71	1350,000
1027,87	-400,000
1028,03	1040,000
1028,19	418,750
1028,35	670,000
1028,51	1620,000
1028,67	725,000
1028,83	-2050,000
1029,00	-269,048
1029,16	1420,000
1029,32	-367,857
1029,48	231,111
1029,64	338,889
1029,80	4550,000
1029,96	886,667
1030,12	534,783
1030,28	-3500,000
1030,44	-584,615
1030,61	-462,500
1030,77	-202,857
1030,93	-826,667
1031,09	2300,000
1031,25	-10800,000
1031,41	-296,667
1031,57	350,000
1031,73	775,000
1031,89	-1127,273
1032,05	-333,333
1032,21	1200,000
1032,37	-166,667
1032,53	-707,143
1032,69	-395,833
1032,86	381,481
1033,02	-332,500
1033,18	-587,500
1033,34	447,368
1033,50	-5750,000
1033,66	-295,122
1033,82	708,696
1033,98	-437,037
1034,14	216,667
1034,30	419,355
1034,46	-2800,000
1034,62	575,000
1034,78	-547,619
1034,94	397,368
1035,10	-976,923
1035,26	-200,000
1035,42	-251,724
1035,58	-672,222
1035,74	941,667
1035,90	-1007,692
1036,06	-1133,333
1036,22	1650,000
1036,38	-817,647
1036,54	-562,500
1036,70	-187,879
1036,86	6800,000
1037,02	605,556
1037,18	926,316
1037,34	173,333
1037,50	-126,829
1037,66	-564,706
1037,82	2820,000
1037,98	-514,815
1038,14	-380,000
1038,30	-1300,000
1038,46	-450,000
1038,62	543,478
1038,78	-3233,333
1038,94	-578,947
1039,10	490,909
1039,26	385,185
1039,42	-666,667
1039,58	1442,857
1039,74	-557,895
1039,90	337,500
1040,06	-369,231
>>>>>End Processed Spectral Data<<<<<
