SpectraSuite Data File
++++++++++++++++++++++++++++++++++++
Date: Wed Feb 01 16:28:17 EET 2017
User: optolab
Dark Spectrum Present: Yes
Reference Spectrum Present: Yes
Number of Sampled Component Spectra: 1
Spectrometers: USB4C02475
Integration Time (usec): 100000 (USB4C02475)
Spectra Averaged: 1 (USB4C02475)
Boxcar Smoothing: 0 (USB4C02475)
Correct for Electrical Dark: No (USB4C02475)
Strobe/Lamp Enabled: No (USB4C02475)
Correct for Detector Non-linearity: No (USB4C02475)
Correct for Stray Light: No (USB4C02475)
Number of Pixels in Processed Spectrum: 3648
>>>>>Begin Processed Spectral Data<<<<<
344,91	4250,000
345,13	4250,000
345,35	4250,000
345,57	0,000
345,79	547,368
346,00	-1988,889
346,22	-1900,000
346,44	432,353
346,66	-575,000
346,87	-14200,000
347,09	360,606
347,31	-513,636
347,53	-269,231
347,74	220,000
347,96	496,970
348,18	742,105
348,40	448,387
348,61	876,471
348,83	419,048
349,05	301,961
349,27	-7400,000
349,48	619,231
349,70	-279,310
349,92	406,452
350,14	254,717
350,35	360,000
350,57	3300,000
350,79	588,000
351,01	-880,952
351,22	357,407
351,44	792,308
351,66	-344,000
351,87	-666,667
352,09	257,692
352,31	283,607
352,53	276,563
352,74	413,889
352,96	235,065
353,18	794,737
353,40	484,000
353,61	333,333
353,83	458,824
354,05	1027,273
354,26	2450,000
354,48	200,000
354,70	448,485
354,92	-362,069
355,13	261,616
355,35	361,364
355,57	645,833
355,78	240,964
356,00	-3225,000
356,22	465,385
356,44	6500,000
356,65	315,909
356,87	523,077
357,09	620,833
357,30	266,667
357,52	246,552
357,74	700,000
357,95	264,103
358,17	280,328
358,39	212,903
358,60	391,892
358,82	525,000
359,04	462,963
359,26	368,571
359,47	9800,000
359,69	297,500
359,91	354,545
360,12	652,381
360,34	620,833
360,56	-72,222
360,77	3375,000
360,99	614,286
361,21	294,000
361,42	5550,000
361,64	242,857
361,86	253,846
362,07	-680,645
362,29	221,333
362,51	-811,765
362,72	584,000
362,94	335,294
363,16	283,721
363,37	-871,429
363,59	446,154
363,81	370,455
364,02	666,667
364,24	620,833
364,46	4133,333
364,67	1100,000
364,89	2657,143
365,11	251,429
365,32	693,103
365,54	522,222
365,76	389,796
365,97	379,412
366,19	172,414
366,41	677,273
366,62	581,481
366,84	283,721
367,05	348,980
367,27	2183,333
367,49	-661,538
367,70	794,118
367,92	255,738
368,14	308,333
368,35	-11300,000
368,57	544,000
368,79	579,310
369,00	293,478
369,22	-1112,500
369,43	256,471
369,65	232,258
369,87	443,243
370,08	215,663
370,30	260,714
370,51	224,590
370,73	280,000
370,95	250,000
371,16	257,143
371,38	430,000
371,60	1312,500
371,81	196,875
372,03	1020,000
372,24	576,667
372,46	271,698
372,68	240,000
372,89	393,939
373,11	630,769
373,32	461,364
373,54	-892,308
373,76	1038,462
373,97	1000,000
374,19	740,909
374,40	318,750
374,62	-4066,667
374,84	4625,000
375,05	528,571
375,27	358,000
375,48	-13700,000
375,70	220,000
375,92	260,714
376,13	412,500
376,35	186,301
376,56	1000,000
376,78	236,111
376,99	407,143
377,21	331,250
377,43	222,727
377,64	247,826
377,86	506,897
378,07	343,590
378,29	-1650,000
378,51	648,387
378,72	335,417
378,94	-1400,000
379,15	412,121
379,37	776,471
379,58	332,308
379,80	980,000
380,01	631,250
380,23	311,765
380,45	1840,000
380,66	3633,333
380,88	347,727
381,09	261,429
381,31	188,889
381,52	276,471
381,74	1500,000
381,95	704,545
382,17	484,615
382,39	676,190
382,60	251,020
382,82	392,308
383,03	309,615
383,25	367,742
383,46	311,364
383,68	566,667
383,89	870,000
384,11	374,194
384,32	-3600,000
384,54	777,778
384,76	-4066,667
384,97	336,364
385,19	427,586
385,40	282,353
385,62	303,509
385,83	388,095
386,05	284,314
386,26	264,000
386,48	201,149
386,69	225,000
386,91	545,000
387,12	345,763
387,34	241,379
387,55	308,065
387,77	471,875
387,98	561,538
388,20	193,478
388,41	397,059
388,63	9400,000
388,84	203,279
389,06	335,714
389,27	736,842
389,49	552,778
389,70	230,612
389,92	276,667
390,13	297,959
390,35	298,039
390,56	305,556
390,78	633,333
390,99	960,000
391,21	678,947
391,42	346,667
391,64	392,683
391,85	206,897
392,07	265,909
392,28	144,000
392,50	421,212
392,71	-1587,500
392,93	300,000
393,14	516,667
393,36	230,612
393,57	125,564
393,79	1211,111
394,00	293,617
394,22	143,836
394,43	155,422
394,65	313,953
394,86	1562,500
395,08	628,571
395,29	207,547
395,50	376,923
395,72	605,556
395,93	695,238
396,15	214,085
396,36	185,294
396,58	245,000
396,79	317,500
397,01	268,000
397,22	302,778
397,44	213,636
397,65	261,404
397,87	395,238
398,08	230,612
398,29	362,500
398,51	285,714
398,72	221,951
398,94	209,231
399,15	300,000
399,37	200,000
399,58	157,143
399,80	545,455
400,01	185,185
400,22	461,905
400,44	253,086
400,65	485,714
400,87	230,882
401,08	188,571
401,30	260,870
401,51	249,123
401,72	326,923
401,94	226,582
402,15	590,000
402,37	145,378
402,58	638,889
402,80	257,143
403,01	209,859
403,22	1100,000
403,44	239,130
403,65	194,643
403,87	217,143
404,08	394,872
404,30	216,471
404,51	-3800,000
404,72	171,429
404,94	179,412
405,15	162,000
405,37	203,797
405,58	184,706
405,79	157,317
406,01	392,683
406,22	212,069
406,44	259,574
406,65	245,614
406,86	95,833
407,08	201,266
407,29	128,155
407,51	140,244
407,72	119,444
407,93	181,522
408,15	102,564
408,36	213,953
408,58	135,052
408,79	90,833
409,00	170,833
409,22	171,429
409,43	172,152
409,64	94,410
409,86	105,031
410,07	88,462
410,29	100,746
410,50	114,894
410,71	108,929
410,93	86,624
411,14	132,558
411,35	90,476
411,57	55,263
411,78	92,969
412,00	68,153
412,21	98,065
412,42	79,894
412,64	79,828
412,85	63,402
413,06	49,390
413,28	40,991
413,49	73,934
413,70	72,826
413,92	52,174
414,13	26,141
414,34	46,360
414,56	40,909
414,77	57,384
414,98	50,336
415,20	46,713
415,41	37,394
415,63	42,786
415,84	31,111
416,05	38,736
416,27	38,760
416,48	36,798
416,69	36,504
416,91	23,514
417,12	24,332
417,33	34,105
417,55	24,346
417,76	44,764
417,97	31,535
418,19	18,290
418,40	20,213
418,61	25,370
418,83	18,545
419,04	15,300
419,25	16,044
419,46	25,564
419,68	21,111
419,89	13,413
420,10	17,823
420,32	15,318
420,53	18,504
420,74	20,966
420,96	20,875
421,17	18,476
421,38	14,472
421,60	12,804
421,81	12,301
422,02	9,613
422,23	13,333
422,45	10,580
422,66	16,164
422,87	11,508
423,09	15,250
423,30	10,635
423,51	11,024
423,73	10,953
423,94	10,294
424,15	11,361
424,36	9,423
424,58	11,812
424,79	9,494
425,00	8,793
425,22	8,313
425,43	9,911
425,64	8,656
425,85	7,399
426,07	8,865
426,28	7,411
426,49	7,301
426,71	6,551
426,92	4,735
427,13	5,319
427,34	4,188
427,56	7,709
427,77	4,603
427,98	7,799
428,19	4,313
428,41	6,063
428,62	7,280
428,83	6,576
429,04	6,341
429,26	5,901
429,47	5,196
429,68	4,238
429,89	4,388
430,11	5,044
430,32	3,564
430,53	5,106
430,74	3,188
430,96	3,522
431,17	5,026
431,38	3,686
431,59	3,869
431,81	4,908
432,02	3,573
432,23	3,539
432,44	3,742
432,66	4,379
432,87	3,873
433,08	3,717
433,29	3,594
433,51	2,553
433,72	3,469
433,93	2,390
434,14	3,232
434,35	2,661
434,57	3,060
434,78	2,558
434,99	3,255
435,20	2,924
435,42	2,511
435,63	2,471
435,84	3,121
436,05	3,108
436,26	2,506
436,48	2,631
436,69	2,237
436,90	2,829
437,11	2,285
437,32	3,282
437,54	3,126
437,75	2,554
437,96	3,129
438,17	2,296
438,38	3,294
438,60	2,936
438,81	3,196
439,02	3,683
439,23	3,555
439,44	4,362
439,66	5,934
439,87	7,281
440,08	9,180
440,29	11,407
440,50	14,221
440,72	17,559
440,93	22,098
441,14	25,381
441,35	29,321
441,56	32,495
441,77	35,424
441,99	38,889
442,20	41,522
442,41	42,283
442,62	44,334
442,83	45,892
443,04	46,805
443,26	46,292
443,47	46,897
443,68	47,602
443,89	47,388
444,10	48,616
444,31	50,271
444,53	51,730
444,74	55,158
444,95	57,644
445,16	64,894
445,37	70,074
445,58	76,064
445,80	80,789
446,01	85,297
446,22	90,430
446,43	91,586
446,64	91,937
446,85	92,914
447,06	93,989
447,28	93,060
447,49	92,522
447,70	91,545
447,91	91,987
448,12	91,814
448,33	92,711
448,54	92,100
448,76	91,523
448,97	92,173
449,18	92,720
449,39	91,099
449,60	93,220
449,81	93,714
450,02	94,521
450,23	95,712
450,45	96,629
450,66	95,220
450,87	97,867
451,08	97,344
451,29	97,286
451,50	98,766
451,71	99,277
451,92	99,159
452,13	97,721
452,35	99,481
452,56	98,156
452,77	97,466
452,98	98,253
453,19	96,026
453,40	96,424
453,61	96,344
453,82	94,540
454,03	95,228
454,25	94,558
454,46	94,931
454,67	94,961
454,88	94,779
455,09	95,374
455,30	94,588
455,51	96,135
455,72	95,692
455,93	96,758
456,14	94,190
456,35	96,511
456,56	95,267
456,78	95,879
456,99	96,447
457,20	94,291
457,41	93,135
457,62	94,934
457,83	93,307
458,04	92,716
458,25	94,398
458,46	92,761
458,67	93,221
458,88	93,774
459,09	92,795
459,30	92,774
459,51	94,092
459,73	94,041
459,94	94,724
460,15	93,736
460,36	94,031
460,57	93,760
460,78	93,792
460,99	93,383
461,20	93,597
461,41	93,459
461,62	92,798
461,83	93,040
462,04	92,335
462,25	91,871
462,46	91,682
462,67	92,566
462,88	92,249
463,09	92,168
463,30	92,795
463,51	93,644
463,72	92,820
463,93	92,011
464,15	93,830
464,36	93,413
464,57	94,230
464,78	93,877
464,99	93,160
465,20	93,751
465,41	93,979
465,62	93,733
465,83	92,752
466,04	93,207
466,25	93,289
466,46	92,603
466,67	93,525
466,88	93,613
467,09	93,188
467,30	93,707
467,51	93,041
467,72	93,912
467,93	93,476
468,14	92,815
468,35	92,787
468,56	92,678
468,77	92,509
468,98	92,424
469,19	91,117
469,40	90,811
469,61	90,737
469,82	87,559
470,03	87,205
470,24	85,461
470,45	82,081
470,66	79,616
470,87	77,251
471,08	73,690
471,29	70,348
471,50	66,820
471,71	61,475
471,92	56,223
472,13	51,972
472,34	46,225
472,55	40,750
472,76	35,936
472,97	30,440
473,18	25,564
473,39	21,125
473,60	17,248
473,81	13,592
474,01	10,315
474,22	7,897
474,43	5,949
474,64	4,137
474,85	3,264
475,06	2,272
475,27	1,896
475,48	1,568
475,69	1,341
475,90	1,187
476,11	1,088
476,32	0,946
476,53	1,210
476,74	1,049
476,95	1,005
477,16	0,903
477,37	1,058
477,58	0,978
477,79	0,946
478,00	0,795
478,21	0,781
478,41	1,097
478,62	0,728
478,83	0,922
479,04	0,964
479,25	0,732
479,46	0,870
479,67	1,002
479,88	1,060
480,09	0,835
480,30	1,182
480,51	1,130
480,72	0,990
480,93	1,025
481,14	0,785
481,34	0,959
481,55	0,722
481,76	0,880
481,97	0,900
482,18	0,783
482,39	0,678
482,60	0,743
482,81	0,832
483,02	0,581
483,23	0,776
483,44	0,898
483,65	0,801
483,85	0,532
484,06	0,743
484,27	0,718
484,48	0,860
484,69	0,801
484,90	0,979
485,11	0,702
485,32	0,801
485,53	0,785
485,73	0,872
485,94	0,614
486,15	0,769
486,36	0,644
486,57	0,866
486,78	0,714
486,99	0,865
487,20	0,752
487,41	0,864
487,61	0,589
487,82	0,653
488,03	0,889
488,24	0,629
488,45	0,624
488,66	0,854
488,87	0,633
489,08	0,681
489,28	0,684
489,49	0,851
489,70	0,836
489,91	0,826
490,12	0,616
490,33	0,735
490,54	0,648
490,74	0,694
490,95	0,799
491,16	0,615
491,37	0,861
491,58	0,597
491,79	0,705
492,00	0,616
492,20	0,557
492,41	0,595
492,62	0,415
492,83	0,643
493,04	0,628
493,25	0,734
493,45	0,585
493,66	0,739
493,87	0,679
494,08	0,569
494,29	0,495
494,50	0,619
494,70	0,828
494,91	0,591
495,12	0,730
495,33	0,661
495,54	0,766
495,75	0,843
495,95	0,577
496,16	0,763
496,37	0,625
496,58	0,822
496,79	0,753
496,99	0,535
497,20	0,619
497,41	0,795
497,62	0,657
497,83	0,744
498,04	0,621
498,24	0,813
498,45	0,628
498,66	0,869
498,87	0,771
499,08	0,561
499,28	0,827
499,49	0,623
499,70	0,793
499,91	0,694
500,12	0,779
500,32	0,689
500,53	0,689
500,74	0,708
500,95	0,745
501,15	0,825
501,36	0,667
501,57	0,868
501,78	0,771
501,99	0,803
502,19	0,492
502,40	0,761
502,61	0,818
502,82	0,920
503,02	0,947
503,23	0,805
503,44	0,869
503,65	0,899
503,86	0,818
504,06	0,788
504,27	0,917
504,48	0,796
504,69	0,844
504,89	0,917
505,10	0,818
505,31	0,745
505,52	0,846
505,72	0,826
505,93	0,991
506,14	0,800
506,35	0,670
506,55	0,810
506,76	0,818
506,97	0,721
507,18	0,994
507,38	0,942
507,59	0,888
507,80	0,803
508,01	0,737
508,21	0,907
508,42	1,015
508,63	0,930
508,84	0,801
509,04	0,800
509,25	1,006
509,46	1,052
509,67	1,001
509,87	0,909
510,08	1,079
510,29	1,159
510,49	1,000
510,70	1,125
510,91	1,176
511,12	1,085
511,32	0,992
511,53	1,160
511,74	1,105
511,94	1,359
512,15	1,164
512,36	1,375
512,57	1,344
512,77	1,450
512,98	1,461
513,19	1,609
513,39	2,015
513,60	2,403
513,81	3,389
514,01	4,078
514,22	5,585
514,43	7,237
514,64	9,449
514,84	11,985
515,05	15,450
515,26	18,987
515,46	23,787
515,67	28,746
515,88	34,261
516,08	39,961
516,29	45,617
516,50	52,312
516,70	57,922
516,91	63,294
517,12	69,050
517,32	73,639
517,53	77,183
517,74	80,325
517,95	82,190
518,15	84,597
518,36	85,990
518,57	86,742
518,77	88,151
518,98	90,526
519,19	89,657
519,39	90,232
519,60	91,005
519,80	93,100
520,01	93,703
520,22	94,679
520,42	95,414
520,63	95,457
520,84	96,565
521,04	96,574
521,25	96,685
521,46	96,904
521,66	96,817
521,87	96,703
522,08	96,248
522,28	96,259
522,49	95,447
522,70	95,154
522,90	95,604
523,11	96,301
523,31	95,602
523,52	95,194
523,73	94,242
523,93	93,897
524,14	94,205
524,35	94,930
524,55	94,214
524,76	93,541
524,97	94,290
525,17	94,367
525,38	93,814
525,58	94,188
525,79	94,458
526,00	95,315
526,20	95,364
526,41	95,484
526,61	96,088
526,82	95,846
527,03	96,768
527,23	96,289
527,44	96,981
527,64	96,726
527,85	97,247
528,06	96,968
528,26	97,390
528,47	97,633
528,68	96,849
528,88	96,765
529,09	96,607
529,29	97,527
529,50	98,126
529,70	97,925
529,91	96,635
530,12	97,104
530,32	96,943
530,53	96,736
530,73	96,355
530,94	97,787
531,15	97,758
531,35	97,466
531,56	97,669
531,76	98,199
531,97	98,471
532,17	98,685
532,38	97,128
532,59	98,996
532,79	98,574
533,00	98,098
533,20	98,885
533,41	98,311
533,61	97,876
533,82	98,165
534,03	96,729
534,23	97,890
534,44	98,727
534,64	96,363
534,85	95,260
535,05	95,525
535,26	95,812
535,46	94,688
535,67	94,552
535,88	94,200
536,08	93,413
536,29	94,256
536,49	92,797
536,70	93,696
536,90	94,246
537,11	94,070
537,31	93,577
537,52	93,603
537,72	94,538
537,93	93,974
538,13	94,080
538,34	95,723
538,55	96,031
538,75	96,709
538,96	96,632
539,16	95,805
539,37	96,660
539,57	97,891
539,78	97,803
539,98	98,209
540,19	97,023
540,39	97,768
540,60	98,372
540,80	98,171
541,01	97,994
541,21	99,361
541,42	97,443
541,62	97,914
541,83	97,677
542,03	99,168
542,24	98,635
542,44	98,805
542,65	97,537
542,85	98,364
543,06	98,002
543,26	98,274
543,47	99,075
543,67	97,329
543,88	100,020
544,08	99,238
544,29	99,156
544,49	97,766
544,70	97,456
544,90	97,581
545,11	97,906
545,31	96,127
545,52	95,456
545,72	95,390
545,93	95,284
546,13	93,935
546,34	94,382
546,54	92,694
546,75	92,506
546,95	91,700
547,15	90,899
547,36	91,117
547,56	88,667
547,77	87,917
547,97	86,749
548,18	83,860
548,38	82,294
548,59	78,849
548,79	76,311
549,00	72,692
549,20	68,890
549,41	64,474
549,61	58,776
549,81	54,192
550,02	48,498
550,22	43,053
550,43	37,836
550,63	32,419
550,84	27,287
551,04	22,736
551,25	18,503
551,45	15,080
551,65	11,694
551,86	9,185
552,06	7,104
552,27	5,365
552,47	4,441
552,68	3,330
552,88	2,347
553,08	1,830
553,29	1,734
553,49	1,501
553,70	1,349
553,90	1,341
554,11	1,063
554,31	1,222
554,51	1,100
554,72	0,912
554,92	1,109
555,13	1,046
555,33	1,268
555,53	1,229
555,74	0,985
555,94	1,202
556,15	0,891
556,35	0,825
556,56	1,045
556,76	1,114
556,96	0,992
557,17	0,915
557,37	0,936
557,58	0,941
557,78	0,821
557,98	0,834
558,19	1,032
558,39	0,960
558,59	0,909
558,80	0,898
559,00	0,907
559,21	0,722
559,41	0,824
559,61	0,770
559,82	0,953
560,02	0,878
560,23	1,076
560,43	0,842
560,63	0,783
560,84	0,822
561,04	0,782
561,24	0,734
561,45	0,758
561,65	0,852
561,85	1,111
562,06	0,777
562,26	0,643
562,47	0,953
562,67	0,775
562,87	0,827
563,08	0,573
563,28	0,762
563,48	0,767
563,69	0,773
563,89	0,974
564,09	0,784
564,30	0,587
564,50	0,784
564,70	0,965
564,91	0,971
565,11	0,654
565,31	0,849
565,52	0,747
565,72	0,840
565,92	1,024
566,13	0,679
566,33	0,816
566,53	0,780
566,74	0,926
566,94	0,614
567,14	0,679
567,35	0,750
567,55	0,688
567,75	0,840
567,96	0,564
568,16	0,699
568,36	0,614
568,57	0,873
568,77	0,606
568,97	0,672
569,18	0,856
569,38	0,716
569,58	0,669
569,79	0,678
569,99	0,756
570,19	0,713
570,39	0,781
570,60	0,611
570,80	0,666
571,00	0,799
571,21	0,642
571,41	0,586
571,61	0,755
571,82	0,644
572,02	0,770
572,22	0,782
572,42	0,545
572,63	0,736
572,83	0,709
573,03	0,683
573,24	0,696
573,44	0,595
573,64	0,778
573,84	0,832
574,05	0,649
574,25	0,813
574,45	0,518
574,66	0,740
574,86	0,706
575,06	0,580
575,26	0,682
575,47	0,697
575,67	0,847
575,87	0,662
576,07	0,525
576,28	0,805
576,48	0,777
576,68	0,749
576,88	0,635
577,09	0,659
577,29	0,715
577,49	0,747
577,69	0,783
577,90	0,598
578,10	0,577
578,30	0,606
578,50	0,623
578,71	0,667
578,91	0,606
579,11	0,724
579,31	0,739
579,52	0,543
579,72	0,711
579,92	0,750
580,12	0,630
580,33	0,690
580,53	0,702
580,73	0,635
580,93	0,755
581,13	0,646
581,34	0,711
581,54	0,771
581,74	0,611
581,94	0,954
582,15	0,600
582,35	0,590
582,55	0,898
582,75	0,727
582,95	0,664
583,16	0,572
583,36	0,842
583,56	0,713
583,76	0,584
583,96	0,728
584,17	0,653
584,37	0,742
584,57	0,637
584,77	0,679
584,97	0,690
585,18	0,612
585,38	0,653
585,58	0,809
585,78	0,696
585,98	0,707
586,19	0,766
586,39	0,638
586,59	0,808
586,79	0,577
586,99	0,767
587,20	0,746
587,40	0,690
587,60	0,738
587,80	0,631
588,00	0,739
588,20	0,599
588,41	0,798
588,61	0,625
588,81	0,724
589,01	0,777
589,21	0,726
589,41	0,806
589,62	0,776
589,82	0,755
590,02	0,569
590,22	0,863
590,42	0,575
590,62	0,769
590,83	0,769
591,03	0,700
591,23	0,553
591,43	0,978
591,63	0,833
591,83	0,689
592,03	0,731
592,24	0,879
592,44	0,873
592,64	0,766
592,84	0,839
593,04	0,804
593,24	0,728
593,44	0,694
593,65	0,820
593,85	0,750
594,05	0,521
594,25	0,888
594,45	0,779
594,65	0,789
594,85	0,772
595,06	0,870
595,26	0,953
595,46	0,565
595,66	0,664
595,86	1,000
596,06	0,843
596,26	0,893
596,46	0,785
596,66	0,727
596,87	0,978
597,07	0,757
597,27	0,799
597,47	0,764
597,67	1,065
597,87	0,957
598,07	0,811
598,27	0,940
598,47	0,861
598,67	0,889
598,88	1,114
599,08	1,002
599,28	1,074
599,48	1,231
599,68	1,376
599,88	1,239
600,08	1,727
600,28	2,007
600,48	2,110
600,68	2,339
600,88	3,148
601,09	3,757
601,29	4,545
601,49	5,533
601,69	6,798
601,89	8,166
602,09	9,889
602,29	12,182
602,49	14,499
602,69	17,036
602,89	19,897
603,09	23,547
603,29	26,778
603,49	30,869
603,69	35,565
603,90	38,734
604,10	43,386
604,30	47,701
604,50	52,264
604,70	57,864
604,90	62,120
605,10	66,552
605,30	71,677
605,50	75,966
605,70	80,748
605,90	84,126
606,10	86,731
606,30	89,366
606,50	92,630
606,70	94,706
606,90	95,302
607,10	96,878
607,30	97,465
607,50	97,075
607,70	98,809
607,90	98,155
608,10	98,133
608,30	98,265
608,50	98,505
608,70	97,057
608,90	97,875
609,11	98,099
609,31	97,296
609,51	97,794
609,71	97,108
609,91	97,459
610,11	96,576
610,31	97,352
610,51	96,468
610,71	97,495
610,91	96,971
611,11	97,324
611,31	97,256
611,51	97,124
611,71	96,913
611,91	96,815
612,11	98,384
612,31	97,595
612,51	96,776
612,71	97,885
612,91	97,142
613,11	96,590
613,31	96,906
613,51	96,662
613,71	96,274
613,91	96,621
614,11	97,021
614,31	96,510
614,50	96,609
614,70	96,098
614,90	96,188
615,10	96,331
615,30	96,271
615,50	96,190
615,70	96,335
615,90	97,297
616,10	96,798
616,30	96,896
616,50	97,174
616,70	95,773
616,90	97,724
617,10	96,818
617,30	97,961
617,50	97,777
617,70	97,622
617,90	98,463
618,10	96,619
618,30	98,747
618,50	96,685
618,70	97,678
618,90	98,897
619,10	97,810
619,30	96,244
619,49	97,767
619,69	97,403
619,89	97,328
620,09	97,380
620,29	98,759
620,49	97,280
620,69	98,323
620,89	98,242
621,09	97,297
621,29	97,840
621,49	97,761
621,69	96,959
621,89	97,335
622,09	97,258
622,29	96,592
622,48	97,440
622,68	96,527
622,88	95,935
623,08	95,624
623,28	95,828
623,48	95,566
623,68	96,657
623,88	96,124
624,08	96,404
624,28	97,158
624,48	96,465
624,67	96,176
624,87	95,492
625,07	95,640
625,27	95,812
625,47	96,866
625,67	96,372
625,87	96,147
626,07	95,510
626,27	95,302
626,47	95,760
626,66	96,548
626,86	96,972
627,06	97,829
627,26	96,229
627,46	96,970
627,66	97,826
627,86	96,865
628,06	97,049
628,25	96,447
628,45	97,559
628,65	97,726
628,85	96,867
629,05	96,973
629,25	96,756
629,45	97,227
629,65	97,878
629,84	97,292
630,04	97,672
630,24	98,295
630,44	98,308
630,64	99,842
630,84	99,724
631,04	99,051
631,23	100,455
631,43	100,613
631,63	100,187
631,83	101,050
632,03	100,962
632,23	101,535
632,42	101,488
632,62	102,154
632,82	101,872
633,02	103,006
633,22	103,739
633,42	102,601
633,62	102,294
633,81	103,682
634,01	101,991
634,21	101,316
634,41	102,218
634,61	101,652
634,80	100,649
635,00	101,097
635,20	100,430
635,40	99,736
635,60	99,373
635,80	100,262
635,99	100,076
636,19	99,636
636,39	99,964
636,59	98,778
636,79	99,344
636,98	98,742
637,18	98,994
637,38	98,847
637,58	99,407
637,78	99,244
637,97	99,573
638,17	98,922
638,37	99,484
638,57	99,613
638,77	99,954
638,96	99,667
639,16	99,781
639,36	99,471
639,56	100,253
639,76	100,202
639,95	99,928
640,15	100,583
640,35	99,606
640,55	100,288
640,75	100,343
640,94	100,892
641,14	100,226
641,34	99,705
641,54	99,595
641,73	98,907
641,93	98,022
642,13	99,559
642,33	98,463
642,53	97,328
642,72	98,050
642,92	97,049
643,12	97,919
643,32	98,363
643,51	98,703
643,71	98,490
643,91	98,165
644,11	97,827
644,30	97,527
644,50	98,446
644,70	97,455
644,90	98,418
645,09	98,528
645,29	96,791
645,49	98,450
645,69	96,765
645,88	98,360
646,08	97,872
646,28	96,695
646,48	96,240
646,67	95,738
646,87	94,677
647,07	94,700
647,26	93,648
647,46	93,259
647,66	92,289
647,86	90,375
648,05	87,668
648,25	87,540
648,45	86,697
648,65	83,472
648,84	82,308
649,04	81,834
649,24	79,171
649,43	76,250
649,63	76,088
649,83	72,597
650,03	71,612
650,22	69,292
650,42	67,504
650,62	65,339
650,81	63,899
651,01	61,665
651,21	59,892
651,40	58,447
651,60	57,371
651,80	55,977
652,00	54,086
652,19	52,465
652,39	51,564
652,59	48,938
652,78	46,935
652,98	45,307
653,18	43,913
653,37	41,809
653,57	39,345
653,77	36,594
653,96	34,505
654,16	32,332
654,36	30,833
654,55	28,402
654,75	24,768
654,95	23,103
655,14	20,019
655,34	18,157
655,54	14,961
655,73	13,865
655,93	11,977
656,13	10,498
656,32	9,015
656,52	8,290
656,72	7,018
656,91	6,747
657,11	5,884
657,31	5,021
657,50	4,275
657,70	4,127
657,90	3,685
658,09	3,343
658,29	3,609
658,49	2,756
658,68	2,726
658,88	2,486
659,07	2,078
659,27	2,007
659,47	2,423
659,66	1,401
659,86	2,276
660,06	1,893
660,25	1,447
660,45	1,724
660,64	1,480
660,84	1,456
661,04	1,382
661,23	1,477
661,43	1,407
661,63	1,341
661,82	1,219
662,02	1,677
662,21	1,490
662,41	1,396
662,61	1,360
662,80	0,917
663,00	1,127
663,19	1,299
663,39	1,397
663,59	1,568
663,78	1,173
663,98	1,046
664,17	1,069
664,37	1,680
664,57	1,564
664,76	1,408
664,96	1,351
665,15	1,246
665,35	1,225
665,55	0,838
665,74	1,427
665,94	1,492
666,13	1,326
666,33	0,836
666,53	1,538
666,72	0,767
666,92	1,763
667,11	1,230
667,31	0,966
667,50	1,032
667,70	1,317
667,90	1,494
668,09	1,044
668,29	1,202
668,48	1,452
668,68	1,117
668,87	1,028
669,07	1,374
669,26	1,360
669,46	1,102
669,66	1,063
669,85	1,173
670,05	1,134
670,24	0,823
670,44	1,083
670,63	1,236
670,83	1,154
671,02	1,153
671,22	1,271
671,42	0,904
671,61	1,110
671,81	0,848
672,00	1,036
672,20	1,052
672,39	0,834
672,59	0,829
672,78	1,028
672,98	0,771
673,17	0,957
673,37	0,785
673,56	1,126
673,76	0,854
673,95	1,057
674,15	0,592
674,34	1,090
674,54	0,813
674,73	0,824
674,93	0,864
675,13	1,032
675,32	1,001
675,52	0,984
675,71	0,798
675,91	0,821
676,10	0,595
676,30	0,640
676,49	0,917
676,69	0,874
676,88	1,118
677,08	0,792
677,27	0,523
677,47	0,830
677,66	0,883
677,86	1,051
678,05	1,024
678,24	0,533
678,44	0,823
678,63	0,738
678,83	0,687
679,02	0,808
679,22	0,635
679,41	0,810
679,61	0,523
679,80	0,781
680,00	0,757
680,19	0,585
680,39	0,664
680,58	0,705
680,78	0,610
680,97	0,470
681,17	0,622
681,36	0,549
681,56	0,819
681,75	0,749
681,94	0,691
682,14	0,876
682,33	0,875
682,53	0,986
682,72	0,946
682,92	0,942
683,11	0,757
683,31	0,351
683,50	0,785
683,69	0,564
683,89	0,379
684,08	0,374
684,28	0,527
684,47	0,738
684,67	0,626
684,86	0,256
685,06	0,511
685,25	0,444
685,44	0,620
685,64	0,408
685,83	0,496
686,03	0,422
686,22	0,484
686,42	0,368
686,61	0,542
686,80	0,709
687,00	0,555
687,19	0,668
687,39	0,401
687,58	0,601
687,77	0,391
687,97	0,502
688,16	0,481
688,36	0,419
688,55	0,472
688,74	0,622
688,94	0,316
689,13	0,510
689,33	0,439
689,52	0,400
689,71	0,519
689,91	0,514
690,10	0,465
690,30	0,364
690,49	0,546
690,68	0,591
690,88	0,532
691,07	0,358
691,27	0,540
691,46	0,397
691,65	0,548
691,85	0,580
692,04	0,420
692,23	0,236
692,43	0,343
692,62	0,424
692,82	0,579
693,01	0,389
693,20	0,561
693,40	0,431
693,59	0,538
693,78	0,455
693,98	0,376
694,17	0,390
694,36	0,855
694,56	0,565
694,75	0,318
694,94	0,518
695,14	0,725
695,33	0,385
695,53	0,418
695,72	0,537
695,91	0,605
696,11	0,594
696,30	0,327
696,49	0,415
696,69	0,544
696,88	0,505
697,07	0,382
697,27	0,276
697,46	0,556
697,65	0,346
697,85	0,342
698,04	0,998
698,23	0,785
698,43	0,726
698,62	0,364
698,81	0,704
699,01	1,010
699,20	0,618
699,39	0,903
699,58	0,834
699,78	1,006
699,97	0,736
700,16	1,247
700,36	0,320
700,55	1,311
700,74	0,753
700,94	1,003
701,13	1,084
701,32	1,707
701,52	1,615
701,71	0,967
701,90	1,385
702,09	1,554
702,29	1,295
702,48	1,897
702,67	1,186
702,87	1,157
703,06	1,534
703,25	1,500
703,44	1,529
703,64	2,237
703,83	1,598
704,02	1,240
704,22	0,790
704,41	2,235
704,60	2,289
704,79	1,405
704,99	1,658
705,18	1,931
705,37	2,126
705,56	2,556
705,76	2,271
705,95	2,237
706,14	1,624
706,33	3,223
706,53	2,184
706,72	2,191
706,91	3,022
707,11	2,420
707,30	3,317
707,49	3,400
707,68	1,863
707,88	2,456
708,07	2,436
708,26	2,740
708,45	3,343
708,64	2,915
708,84	3,623
709,03	3,630
709,22	2,677
709,41	3,195
709,61	3,302
709,80	3,753
709,99	4,167
710,18	3,281
710,38	3,053
710,57	2,780
710,76	3,105
710,95	3,581
711,14	6,128
711,34	4,875
711,53	3,770
711,72	3,934
711,91	2,486
712,11	5,878
712,30	4,990
712,49	5,280
712,68	4,718
712,87	6,777
713,07	8,047
713,26	5,150
713,45	7,220
713,64	4,944
713,83	4,694
714,03	6,832
714,22	4,766
714,41	4,831
714,60	4,917
714,79	4,720
714,99	3,051
715,18	5,285
715,37	5,468
715,56	6,621
715,75	6,747
715,94	5,689
716,14	5,155
716,33	5,981
716,52	5,889
716,71	6,313
716,90	7,195
717,10	5,287
717,29	6,457
717,48	7,494
717,67	6,284
717,86	6,180
718,05	2,398
718,24	6,231
718,44	8,614
718,63	6,831
718,82	10,139
719,01	6,800
719,20	5,450
719,39	7,269
719,59	6,685
719,78	5,074
719,97	8,647
720,16	7,060
720,35	6,039
720,54	7,757
720,73	4,932
720,93	9,534
721,12	2,583
721,31	8,405
721,50	8,605
721,69	6,517
721,88	9,276
722,07	5,887
722,27	7,805
722,46	8,636
722,65	4,824
722,84	6,593
723,03	6,079
723,22	10,539
723,41	7,077
723,60	12,197
723,79	10,971
723,99	10,137
724,18	11,638
724,37	11,431
724,56	13,024
724,75	9,982
724,94	12,119
725,13	15,571
725,32	8,460
725,51	14,675
725,71	7,765
725,90	11,737
726,09	13,297
726,28	9,692
726,47	7,813
726,66	11,814
726,85	8,094
727,04	14,019
727,23	13,519
727,42	12,878
727,61	7,831
727,81	14,390
728,00	15,330
728,19	7,780
728,38	5,616
728,57	8,281
728,76	12,422
728,95	11,830
729,14	6,116
729,33	12,623
729,52	12,823
729,71	11,137
729,90	11,022
730,09	11,098
730,28	21,824
730,48	11,717
730,67	13,785
730,86	9,826
731,05	13,785
731,24	10,771
731,43	12,956
731,62	17,669
731,81	15,756
732,00	16,773
732,19	13,793
732,38	9,817
732,57	12,125
732,76	16,548
732,95	14,533
733,14	11,964
733,33	7,967
733,52	17,070
733,71	14,815
733,90	19,409
734,09	13,233
734,28	20,828
734,47	12,632
734,66	16,825
734,85	14,043
735,04	16,757
735,23	14,815
735,42	17,723
735,61	24,800
735,81	15,172
736,00	20,633
736,19	14,645
736,38	17,333
736,57	23,677
736,76	12,403
736,95	16,818
737,14	15,350
737,33	18,138
737,52	12,670
737,71	11,378
737,90	13,162
738,09	19,785
738,28	18,341
738,47	13,235
738,66	19,531
738,85	18,385
739,04	22,920
739,22	18,074
739,41	19,516
739,60	11,873
739,79	19,007
739,98	15,245
740,17	19,728
740,36	21,250
740,55	27,866
740,74	17,739
740,93	20,528
741,12	17,096
741,31	20,772
741,50	14,313
741,69	15,926
741,88	13,800
742,07	14,621
742,26	14,419
742,45	23,913
742,64	31,475
742,83	15,106
743,02	19,640
743,21	26,559
743,40	22,265
743,59	24,590
743,78	22,926
743,97	24,624
744,16	17,517
744,34	24,606
744,53	24,385
744,72	24,740
744,91	13,895
745,10	24,524
745,29	26,241
745,48	20,744
745,67	18,534
745,86	18,545
746,05	22,831
746,24	29,847
746,43	34,752
746,62	20,507
746,81	27,626
747,00	24,635
747,18	36,484
747,37	21,535
747,56	26,292
747,75	22,757
747,94	37,199
748,13	32,420
748,32	32,051
748,51	23,702
748,70	39,808
748,89	23,430
749,08	12,000
749,26	30,788
749,45	39,059
749,64	33,747
749,83	16,031
750,02	9,945
750,21	31,965
750,40	17,969
750,59	33,726
750,78	33,136
750,96	29,609
751,15	25,410
751,34	34,031
751,53	35,468
751,72	34,232
751,91	22,192
752,10	7,407
752,29	37,571
752,47	30,618
752,66	26,197
752,85	24,149
753,04	34,069
753,23	23,841
753,42	38,906
753,61	27,124
753,80	29,268
753,98	33,684
754,17	31,288
754,36	33,051
754,55	12,226
754,74	46,821
754,93	35,447
755,12	21,333
755,30	36,288
755,49	26,911
755,68	34,294
755,87	22,222
756,06	40,223
756,25	38,413
756,43	38,276
756,62	28,190
756,81	24,422
757,00	38,841
757,19	36,301
757,38	33,123
757,56	39,032
757,75	42,157
757,94	26,814
758,13	31,818
758,32	33,712
758,51	39,338
758,69	23,200
758,88	33,333
759,07	34,767
759,26	46,047
759,45	31,004
759,63	49,814
759,82	28,283
760,01	22,408
760,20	32,296
760,39	45,896
760,57	39,256
760,76	30,631
760,95	49,074
761,14	37,143
761,33	47,500
761,51	28,674
761,70	46,207
761,89	45,492
762,08	44,651
762,27	48,352
762,45	41,634
762,64	36,264
762,83	44,248
763,02	25,116
763,21	28,448
763,39	54,286
763,58	43,019
763,77	42,857
763,96	69,478
764,14	37,500
764,33	41,392
764,52	59,657
764,71	65,022
764,89	25,000
765,08	42,672
765,27	56,506
765,46	47,283
765,65	40,175
765,83	52,814
766,02	39,574
766,21	47,514
766,40	52,381
766,58	51,220
766,77	41,294
766,96	48,182
767,15	56,522
767,33	30,994
767,52	51,220
767,71	53,478
767,90	46,067
768,08	47,471
768,27	45,500
768,46	57,812
768,64	60,622
768,83	65,104
769,02	56,000
769,21	36,681
769,39	49,419
769,58	68,208
769,77	68,199
769,96	62,827
770,14	54,422
770,33	69,159
770,52	56,614
770,70	57,333
770,89	83,893
771,08	56,780
771,27	75,258
771,45	59,649
771,64	81,250
771,83	75,234
772,01	25,904
772,20	70,352
772,39	48,000
772,57	37,984
772,76	45,926
772,95	70,213
773,14	63,978
773,32	56,774
773,51	64,677
773,70	78,750
773,88	76,503
774,07	53,403
774,26	55,319
774,44	39,024
774,63	69,036
774,82	67,073
775,00	74,000
775,19	58,400
775,38	63,006
775,56	73,437
775,75	67,470
775,94	79,114
776,12	53,039
776,31	75,294
776,50	64,773
776,68	64,737
776,87	76,705
777,06	75,172
777,24	88,889
777,43	54,487
777,62	57,353
777,80	98,649
777,99	73,714
778,18	78,713
778,36	101,600
778,55	83,471
778,74	93,750
778,92	83,432
779,11	112,500
779,29	80,503
779,48	70,068
779,67	77,519
779,85	79,675
780,04	66,486
780,23	82,734
780,41	75,000
780,60	44,211
780,79	92,090
780,97	62,500
781,16	70,909
781,34	91,753
781,53	100,000
781,72	85,401
781,90	54,687
782,09	80,000
782,28	103,650
782,46	63,704
782,65	65,714
782,83	130,337
783,02	112,500
783,21	96,667
783,39	113,913
783,58	84,024
783,76	74,302
783,95	84,242
784,14	94,702
784,32	84,564
784,51	94,828
784,69	60,169
784,88	74,775
785,06	58,824
785,25	91,720
785,44	94,964
785,62	92,857
785,81	130,986
785,99	95,683
786,18	106,081
786,37	84,444
786,55	76,147
786,74	80,921
786,92	80,469
787,11	60,833
787,29	84,328
787,48	69,333
787,67	116,867
787,85	85,345
788,04	63,861
788,22	95,902
788,41	150,588
788,59	144,037
788,78	78,182
788,96	116,038
789,15	127,368
789,34	79,091
789,52	100,000
789,71	82,171
789,89	155,319
790,08	73,973
790,26	114,286
790,45	79,545
790,63	90,741
790,82	87,879
791,00	84,028
791,19	98,925
791,38	111,806
791,56	122,807
791,75	105,505
791,93	90,805
792,12	76,331
792,30	112,800
792,49	70,588
792,67	114,179
792,86	84,496
793,04	148,598
793,23	35,833
793,41	118,987
793,60	97,980
793,78	149,123
793,97	139,744
794,15	110,909
794,34	145,055
794,52	149,351
794,71	67,901
794,89	86,667
795,08	109,709
795,26	86,111
795,45	189,552
795,63	133,333
795,82	95,327
796,00	83,486
796,19	105,000
796,37	98,540
796,56	133,333
796,74	88,496
796,93	147,191
797,11	113,924
797,30	85,833
797,48	104,828
797,67	103,333
797,85	123,469
798,04	110,417
798,22	92,063
798,41	139,216
798,59	127,368
798,77	112,308
798,96	123,656
799,14	117,241
799,33	123,664
799,51	100,769
799,70	83,893
799,88	87,879
800,07	103,289
800,25	66,897
800,44	94,949
800,62	125,882
800,80	124,638
800,99	166,667
801,17	87,931
801,36	100,690
801,54	147,917
801,73	84,848
801,91	73,770
802,10	133,333
802,28	137,383
802,46	137,037
802,65	87,356
802,83	125,843
803,02	123,158
803,20	105,469
803,39	70,690
803,57	125,301
803,75	73,649
803,94	95,798
804,12	95,000
804,31	95,575
804,49	98,077
804,67	105,600
804,86	88,393
805,04	117,568
805,23	89,655
805,41	112,295
805,59	65,574
805,78	90,152
805,96	72,436
806,15	133,594
806,33	114,286
806,51	72,566
806,70	203,333
806,88	76,423
807,07	65,873
807,25	77,358
807,43	90,066
807,62	115,447
807,80	126,882
807,99	92,063
808,17	117,021
808,35	104,386
808,54	124,731
808,72	80,800
808,90	68,421
809,09	110,000
809,27	118,919
809,46	142,857
809,64	115,686
809,82	87,356
810,01	76,515
810,19	86,000
810,37	70,000
810,56	164,634
810,74	67,550
810,92	105,303
811,11	135,294
811,29	130,496
811,48	142,424
811,66	132,558
811,84	111,927
812,03	83,636
812,21	80,769
812,39	114,407
812,58	92,157
812,76	66,355
812,94	119,333
813,13	77,778
813,31	104,167
813,49	140,217
813,68	132,174
813,86	108,163
814,04	133,010
814,23	117,172
814,41	67,647
814,59	86,441
814,78	72,059
814,96	105,405
815,14	117,778
815,33	107,971
815,51	76,296
815,69	107,407
815,87	73,913
816,06	89,375
816,24	76,821
816,42	81,410
816,61	109,322
816,79	142,169
816,97	90,090
817,16	80,645
817,34	83,448
817,52	110,345
817,70	102,381
817,89	110,744
818,07	97,414
818,25	91,892
818,44	89,535
818,62	104,310
818,80	83,217
818,98	98,095
819,17	95,385
819,35	111,176
819,53	124,752
819,72	76,744
819,90	94,611
820,08	66,234
820,26	87,719
820,45	80,723
820,63	84,375
820,81	91,946
820,99	90,977
821,18	69,630
821,36	86,667
821,54	79,070
821,73	64,324
821,91	64,894
822,09	89,412
822,27	57,868
822,46	67,500
822,64	86,093
822,82	55,610
823,00	66,667
823,19	50,000
823,37	91,429
823,55	77,647
823,73	78,667
823,91	52,486
824,10	76,536
824,28	60,741
824,46	56,977
824,64	58,824
824,83	56,098
825,01	61,594
825,19	66,857
825,37	69,792
825,56	80,625
825,74	86,667
825,92	67,416
826,10	75,776
826,28	86,577
826,47	63,415
826,65	80,405
826,83	39,785
827,01	60,606
827,19	82,278
827,38	78,756
827,56	76,923
827,74	54,878
827,92	67,805
828,10	72,826
828,29	80,476
828,47	51,754
828,65	62,703
828,83	65,152
829,01	66,667
829,20	82,911
829,38	65,560
829,56	41,296
829,74	78,030
829,92	70,619
830,10	84,234
830,29	56,216
830,47	70,312
830,65	48,661
830,83	56,000
831,01	54,167
831,20	70,792
831,38	61,463
831,56	67,206
831,74	85,143
831,92	53,977
832,10	81,364
832,29	44,550
832,47	57,522
832,65	67,660
832,83	44,651
833,01	44,269
833,19	47,964
833,37	60,000
833,56	61,033
833,74	52,632
833,92	46,460
834,10	60,406
834,28	37,308
834,46	44,291
834,64	62,500
834,83	51,195
835,01	45,914
835,19	58,294
835,37	51,793
835,55	58,123
835,73	55,147
835,91	32,819
836,09	49,378
836,28	57,634
836,46	34,035
836,64	59,426
836,82	33,209
837,00	51,361
837,18	35,178
837,36	49,733
837,54	46,212
837,72	35,458
837,91	46,586
838,09	40,400
838,27	64,469
838,45	50,809
838,63	26,780
838,81	50,987
838,99	60,279
839,17	39,482
839,35	37,407
839,53	57,718
839,72	50,000
839,90	32,827
840,08	46,154
840,26	50,473
840,44	29,938
840,62	33,333
840,80	29,012
840,98	46,828
841,16	38,078
841,34	36,522
841,52	34,824
841,70	34,343
841,89	42,581
842,07	36,486
842,25	37,013
842,43	34,516
842,61	44,504
842,79	47,866
842,97	35,366
843,15	46,132
843,33	39,667
843,51	45,346
843,69	38,056
843,87	31,536
844,05	32,345
844,23	28,108
844,41	28,141
844,59	33,807
844,77	23,919
844,95	29,369
845,13	22,131
845,31	28,212
845,50	38,402
845,68	33,679
845,86	30,425
846,04	38,025
846,22	28,162
846,40	33,333
846,58	28,686
846,76	25,436
846,94	27,163
847,12	33,886
847,30	32,488
847,48	30,456
847,66	29,268
847,84	27,665
848,02	32,848
848,20	31,347
848,38	29,202
848,56	30,108
848,74	20,661
848,92	17,328
849,10	26,562
849,28	21,569
849,46	19,159
849,64	20,000
849,82	25,962
850,00	13,552
850,18	27,252
850,36	23,904
850,54	35,202
850,72	36,590
850,90	32,117
851,08	23,045
851,26	32,794
851,44	29,920
851,62	18,764
851,80	28,429
851,98	35,185
852,16	34,362
852,34	29,791
852,52	24,056
852,70	11,044
852,87	20,381
853,05	25,651
853,23	24,902
853,41	17,791
853,59	13,019
853,77	21,627
853,95	16,737
854,13	17,087
854,31	26,178
854,49	20,240
854,67	24,624
854,85	26,261
855,03	16,092
855,21	22,673
855,39	23,826
855,57	22,826
855,75	23,609
855,93	19,788
856,11	31,579
856,28	22,743
856,46	16,667
856,64	20,065
856,82	21,117
857,00	21,972
857,18	28,638
857,36	22,353
857,54	20,777
857,72	16,861
857,90	21,911
858,08	17,901
858,26	15,902
858,44	20,497
858,61	16,811
858,79	26,047
858,97	22,779
859,15	20,852
859,33	16,871
859,51	20,447
859,69	16,220
859,87	23,719
860,05	20,781
860,23	14,091
860,40	19,048
860,58	11,063
860,76	20,904
860,94	9,160
861,12	12,040
861,30	19,152
861,48	16,289
861,66	23,477
861,84	20,670
862,01	21,257
862,19	22,087
862,37	16,618
862,55	11,142
862,73	14,130
862,91	17,625
863,09	16,645
863,27	11,281
863,44	15,497
863,62	17,532
863,80	12,855
863,98	16,858
864,16	13,194
864,34	14,286
864,52	14,351
864,69	20,964
864,87	15,256
865,05	12,741
865,23	11,715
865,41	11,681
865,59	18,047
865,76	10,982
865,94	12,125
866,12	14,609
866,30	15,215
866,48	15,711
866,66	16,594
866,83	11,269
867,01	14,611
867,19	10,750
867,37	10,924
867,55	17,563
867,73	14,806
867,90	11,111
868,08	17,865
868,26	10,718
868,44	11,695
868,62	16,196
868,79	11,472
868,97	14,286
869,15	10,934
869,33	13,561
869,51	14,862
869,69	10,949
869,86	10,564
870,04	11,958
870,22	9,677
870,40	11,111
870,57	13,300
870,75	12,069
870,93	15,193
871,11	9,359
871,29	9,654
871,46	5,639
871,64	12,957
871,82	13,561
872,00	9,100
872,18	16,011
872,35	13,815
872,53	15,501
872,71	8,758
872,89	13,438
873,06	13,745
873,24	11,213
873,42	9,677
873,60	6,979
873,77	12,189
873,95	10,074
874,13	9,839
874,31	8,734
874,49	10,811
874,66	9,966
874,84	8,082
875,02	13,100
875,20	8,182
875,37	10,307
875,55	5,758
875,73	5,695
875,91	9,922
876,08	5,892
876,26	7,910
876,44	6,869
876,61	12,061
876,79	12,383
876,97	9,662
877,15	13,969
877,32	9,528
877,50	9,549
877,68	9,746
877,86	7,994
878,03	8,903
878,21	9,882
878,39	8,370
878,56	10,177
878,74	6,797
878,92	8,383
879,10	9,763
879,27	8,183
879,45	10,717
879,63	9,438
879,80	8,158
879,98	4,057
880,16	10,129
880,34	5,604
880,51	7,110
880,69	8,704
880,87	4,536
881,04	7,930
881,22	8,762
881,40	3,905
881,57	5,842
881,75	7,398
881,93	7,841
882,10	8,905
882,28	4,854
882,46	8,201
882,63	9,736
882,81	7,011
882,99	8,100
883,16	8,017
883,34	7,666
883,52	4,824
883,69	7,388
883,87	8,429
884,05	6,619
884,22	7,057
884,40	7,598
884,58	5,251
884,75	6,689
884,93	7,749
885,11	5,930
885,28	5,747
885,46	6,748
885,64	6,283
885,81	7,855
885,99	6,460
886,17	6,912
886,34	4,719
886,52	6,525
886,70	3,895
886,87	7,457
887,05	5,132
887,22	3,793
887,40	7,704
887,58	6,517
887,75	6,082
887,93	6,907
888,11	2,126
888,28	4,220
888,46	4,399
888,63	7,032
888,81	4,615
888,99	2,654
889,16	5,183
889,34	5,602
889,51	5,050
889,69	5,125
889,87	4,088
890,04	4,170
890,22	5,103
890,39	2,388
890,57	6,199
890,75	7,824
890,92	6,063
891,10	6,020
891,27	4,723
891,45	5,250
891,63	6,288
891,80	3,831
891,98	6,144
892,15	4,272
892,33	3,816
892,51	5,324
892,68	3,833
892,86	5,203
893,03	5,230
893,21	3,142
893,38	3,162
893,56	4,093
893,74	4,142
893,91	4,769
894,09	4,771
894,26	4,859
894,44	3,668
894,61	6,105
894,79	3,405
894,96	5,031
895,14	4,389
895,32	2,829
895,49	3,953
895,67	3,776
895,84	5,723
896,02	3,567
896,19	4,519
896,37	4,938
896,54	4,308
896,72	3,943
896,89	5,017
897,07	3,634
897,25	6,607
897,42	3,096
897,60	5,438
897,77	5,248
897,95	4,697
898,12	2,583
898,30	3,550
898,47	3,557
898,65	2,987
898,82	4,049
899,00	4,745
899,17	4,191
899,35	4,834
899,52	1,871
899,70	3,631
899,87	4,116
900,05	4,424
900,22	3,436
900,40	3,030
900,57	4,765
900,75	3,809
900,92	4,317
901,10	4,416
901,27	4,085
901,45	4,988
901,62	4,908
901,80	4,651
901,97	3,099
902,15	5,294
902,32	4,145
902,50	3,876
902,67	3,953
902,85	2,834
903,02	5,967
903,20	3,680
903,37	4,641
903,54	4,464
903,72	3,126
903,89	3,263
904,07	3,097
904,24	4,776
904,42	3,582
904,59	2,815
904,77	4,187
904,94	3,538
905,12	2,407
905,29	3,193
905,47	4,748
905,64	3,803
905,81	3,450
905,99	3,171
906,16	3,914
906,34	4,095
906,51	4,326
906,69	2,111
906,86	2,987
907,03	2,872
907,21	3,849
907,38	2,795
907,56	3,224
907,73	3,491
907,91	3,581
908,08	3,326
908,25	1,920
908,43	2,617
908,60	3,784
908,78	4,108
908,95	3,626
909,13	3,908
909,30	1,884
909,47	3,731
909,65	4,660
909,82	4,263
910,00	3,383
910,17	2,685
910,34	4,329
910,52	2,315
910,69	5,296
910,87	4,548
911,04	3,219
911,21	3,465
911,39	3,513
911,56	4,566
911,73	2,563
911,91	3,830
912,08	4,262
912,26	1,730
912,43	3,557
912,60	3,206
912,78	2,952
912,95	4,228
913,13	2,971
913,30	3,778
913,47	3,847
913,65	1,786
913,82	2,708
913,99	2,522
914,17	2,425
914,34	3,040
914,51	3,959
914,69	4,307
914,86	3,905
915,03	3,039
915,21	2,734
915,38	1,935
915,56	2,598
915,73	2,595
915,90	3,051
916,08	3,472
916,25	3,234
916,42	2,346
916,60	3,631
916,77	3,080
916,94	2,734
917,12	3,993
917,29	3,719
917,46	2,863
917,64	2,287
917,81	3,794
917,98	2,046
918,16	3,247
918,33	2,514
918,50	3,949
918,67	2,311
918,85	3,078
919,02	2,706
919,19	3,257
919,37	2,620
919,54	3,315
919,71	4,094
919,89	2,106
920,06	2,728
920,23	2,178
920,41	2,133
920,58	3,327
920,75	2,587
920,92	2,612
921,10	2,509
921,27	1,531
921,44	3,989
921,62	1,779
921,79	3,761
921,96	1,925
922,13	1,707
922,31	2,177
922,48	2,560
922,65	2,375
922,82	2,251
923,00	3,456
923,17	1,261
923,34	2,356
923,52	1,997
923,69	1,715
923,86	1,685
924,03	2,336
924,21	3,173
924,38	2,892
924,55	3,715
924,72	2,873
924,90	2,779
925,07	2,504
925,24	2,608
925,41	3,470
925,59	2,109
925,76	2,502
925,93	1,703
926,10	2,820
926,28	2,388
926,45	3,185
926,62	2,785
926,79	2,313
926,96	2,988
927,14	2,805
927,31	1,247
927,48	2,187
927,65	2,167
927,83	1,550
928,00	1,858
928,17	2,735
928,34	1,767
928,51	3,537
928,69	2,283
928,86	2,528
929,03	2,528
929,20	1,707
929,37	2,679
929,55	2,580
929,72	3,130
929,89	2,358
930,06	2,693
930,23	2,913
930,41	1,952
930,58	2,826
930,75	2,563
930,92	1,961
931,09	2,904
931,27	1,341
931,44	2,528
931,61	2,722
931,78	1,978
931,95	1,647
932,12	2,258
932,30	2,313
932,47	2,223
932,64	2,442
932,81	2,318
932,98	2,140
933,16	2,688
933,33	2,078
933,50	2,806
933,67	2,855
933,84	2,240
934,01	1,926
934,18	2,439
934,36	1,485
934,53	1,524
934,70	2,429
934,87	2,708
935,04	2,278
935,21	1,809
935,38	1,782
935,56	1,826
935,73	2,326
935,90	1,215
936,07	2,196
936,24	2,271
936,41	1,955
936,58	1,673
936,76	3,169
936,93	0,957
937,10	1,345
937,27	1,814
937,44	1,150
937,61	1,941
937,78	2,199
937,95	1,920
938,13	0,898
938,30	2,329
938,47	2,375
938,64	1,651
938,81	1,353
938,98	1,345
939,15	2,338
939,32	2,166
939,49	2,742
939,66	2,503
939,84	1,820
940,01	2,187
940,18	1,972
940,35	1,973
940,52	1,078
940,69	2,601
940,86	1,897
941,03	1,745
941,20	2,285
941,37	2,346
941,54	1,166
941,71	1,267
941,89	1,649
942,06	1,807
942,23	2,100
942,40	2,405
942,57	2,322
942,74	2,978
942,91	1,447
943,08	3,346
943,25	2,096
943,42	2,375
943,59	2,400
943,76	3,335
943,93	3,088
944,10	1,948
944,27	2,122
944,44	3,260
944,61	1,941
944,79	1,969
944,96	3,649
945,13	1,570
945,30	1,393
945,47	2,639
945,64	2,445
945,81	4,294
945,98	3,070
946,15	2,950
946,32	2,590
946,49	3,289
946,66	2,266
946,83	2,903
947,00	2,221
947,17	3,069
947,34	3,112
947,51	3,188
947,68	3,852
947,85	2,550
948,02	2,940
948,19	4,534
948,36	2,997
948,53	3,422
948,70	4,148
948,87	3,910
949,04	2,475
949,21	2,361
949,38	3,805
949,55	3,907
949,72	3,106
949,89	3,459
950,06	3,209
950,23	3,494
950,40	4,410
950,57	1,592
950,74	5,492
950,91	3,850
951,08	2,694
951,25	3,937
951,42	5,576
951,59	3,361
951,76	5,126
951,93	3,686
952,10	3,733
952,27	2,870
952,44	3,416
952,61	3,246
952,77	3,792
952,94	5,058
953,11	7,519
953,28	4,095
953,45	6,397
953,62	5,976
953,79	5,548
953,96	7,859
954,13	4,397
954,30	5,045
954,47	5,303
954,64	6,227
954,81	5,730
954,98	4,520
955,15	5,143
955,32	5,301
955,49	5,590
955,65	9,179
955,82	8,095
955,99	5,281
956,16	7,819
956,33	5,579
956,50	7,771
956,67	10,154
956,84	5,630
957,01	7,176
957,18	7,058
957,35	8,385
957,52	10,319
957,68	10,917
957,85	9,872
958,02	7,752
958,19	10,618
958,36	9,752
958,53	10,415
958,70	7,511
958,87	12,818
959,04	16,332
959,21	11,616
959,37	15,152
959,54	12,900
959,71	10,267
959,88	10,977
960,05	16,004
960,22	7,574
960,39	11,600
960,56	7,089
960,72	15,182
960,89	14,829
961,06	14,904
961,23	14,993
961,40	18,326
961,57	15,264
961,74	12,975
961,90	19,688
962,07	18,569
962,24	22,439
962,41	17,588
962,58	19,277
962,75	20,708
962,92	31,402
963,08	20,000
963,25	19,820
963,42	20,048
963,59	28,512
963,76	33,483
963,93	19,222
964,10	25,268
964,26	26,754
964,43	20,930
964,60	24,611
964,77	28,193
964,94	21,875
965,10	29,464
965,27	23,760
965,44	35,844
965,61	43,802
965,78	24,920
965,95	35,629
966,11	32,817
966,28	40,149
966,45	34,891
966,62	37,231
966,79	51,837
966,95	31,343
967,12	39,117
967,29	32,639
967,46	36,364
967,63	52,075
967,79	57,658
967,96	37,662
968,13	31,500
968,30	57,258
968,47	52,921
968,63	58,108
968,80	43,578
968,97	51,923
969,14	55,233
969,31	54,444
969,47	52,353
969,64	70,202
969,81	40,415
969,98	57,692
970,14	51,534
970,31	84,277
970,48	39,167
970,65	48,521
970,81	72,603
970,98	101,460
971,15	76,531
971,32	49,219
971,48	68,027
971,65	71,538
971,82	109,804
971,99	97,701
972,15	79,577
972,32	125,225
972,49	87,413
972,66	125,455
972,82	86,047
972,99	100,813
973,16	152,874
973,33	103,571
973,49	125,263
973,66	100,000
973,83	75,728
974,00	146,512
974,16	129,412
974,33	133,333
974,50	102,105
974,67	146,316
974,83	146,429
975,00	129,474
975,17	115,385
975,33	94,382
975,50	92,537
975,67	244,898
975,84	182,090
976,00	143,820
976,17	206,557
976,34	86,000
976,50	119,101
976,67	139,806
976,84	2666,667
977,00	226,531
977,17	193,333
977,34	129,670
977,50	174,627
977,67	250,000
977,84	177,419
978,01	191,489
978,17	711,111
978,34	230,556
978,51	285,294
978,67	125,000
978,84	114,844
979,01	294,595
979,17	94,872
979,34	88,356
979,51	244,898
979,67	208,642
979,84	218,367
980,01	257,778
980,17	180,282
980,34	418,519
980,51	221,739
980,67	152,941
980,84	446,667
981,01	595,000
981,17	516,000
981,34	1155,556
981,50	180,882
981,67	210,169
981,84	5150,000
982,00	506,667
982,17	297,619
982,34	146,667
982,50	540,000
982,67	171,875
982,84	2680,000
983,00	2016,667
983,17	200,000
983,33	217,241
983,50	1680,000
983,67	-331,034
983,83	312,121
984,00	-1242,857
984,17	905,556
984,33	-6750,000
984,50	440,000
984,66	376,087
984,83	224,675
985,00	-429,167
985,16	482,759
985,33	682,353
985,49	594,444
985,66	444,118
985,83	373,913
985,99	305,128
986,16	-2600,000
986,32	700,000
986,49	10200,000
986,66	375,758
986,82	733,333
986,99	281,132
987,15	-457,895
987,32	-346,429
987,49	268,000
987,65	5900,000
987,82	370,833
987,98	279,592
988,15	430,000
988,31	1600,000
988,48	-1700,000
988,65	364,286
988,81	369,444
988,98	356,098
989,14	357,143
989,31	666,667
989,47	241,176
989,64	-861,538
989,80	681,250
989,97	300,000
990,14	-323,913
990,30	-472,727
990,47	355,102
990,63	400,000
990,80	210,000
990,96	-715,000
991,13	468,750
991,29	424,138
991,46	0,000
991,62	-884,615
991,79	1016,667
991,95	12600,000
992,12	-1310,000
992,29	-712,500
992,45	169,412
992,62	337,209
992,78	313,636
992,95	-633,333
993,11	503,571
993,28	1420,000
993,44	-1480,000
993,61	-562,500
993,77	-1700,000
993,94	-4466,667
994,10	-134,667
994,27	900,000
994,43	346,512
994,60	0,000
994,76	2225,000
994,93	705,000
995,09	-576,471
995,26	1166,667
995,42	276,471
995,59	576,190
995,75	846,154
995,92	1857,143
996,08	361,111
996,25	-1362,500
996,41	-7250,000
996,58	846,667
996,74	309,091
996,91	506,897
997,07	0,000
997,23	11200,000
997,40	-16900,000
997,56	-823,077
997,73	-1900,000
997,89	413,158
998,06	961,538
998,22	-594,444
998,39	668,000
998,55	1755,556
998,72	-1700,000
998,88	-273,333
999,05	-115,385
999,21	257,143
999,37	-626,667
999,54	-1233,333
999,70	-363,333
999,87	956,250
1000,03	384,615
1000,20	343,750
1000,36	0,000
1000,52	458,333
1000,69	-809,524
1000,85	-1030,000
1001,02	-658,333
1001,18	2400,000
1001,35	892,308
1001,51	629,412
1001,67	-1253,846
1001,84	-2800,000
1002,00	337,838
1002,17	1136,364
1002,33	-2000,000
1002,50	476,190
1002,66	-815,385
1002,82	285,000
1002,99	1035,714
1003,15	-2114,286
1003,32	-1254,545
1003,48	425,000
1003,64	993,333
1003,81	403,704
1003,97	-5300,000
1004,14	1300,000
1004,30	300,000
1004,46	-560,000
1004,63	921,429
1004,79	375,000
1004,95	973,333
1005,12	4700,000
1005,28	562,069
1005,45	462,162
1005,61	424,138
1005,77	-291,667
1005,94	-542,857
1006,10	-5850,000
1006,26	984,615
1006,43	-350,000
1006,59	-954,545
1006,76	871,429
1006,92	1722,222
1007,08	15000,000
1007,25	-225,926
1007,41	662,069
1007,57	6150,000
1007,74	1350,000
1007,90	-544,828
1008,06	280,435
1008,23	876,471
1008,39	-718,750
1008,55	-353,846
1008,72	-1214,286
1008,88	0,000
1009,04	360,976
1009,21	-242,105
1009,37	-1141,667
1009,53	264,286
1009,70	3900,000
1009,86	-714,286
1010,02	3366,667
1010,19	909,091
1010,35	267,647
1010,51	-6250,000
1010,68	-1737,500
1010,84	-234,091
1011,00	681,250
1011,17	-318,182
1011,33	0,000
1011,49	-773,333
1011,66	1014,286
1011,82	538,710
1011,98	928,571
1012,14	-590,909
1012,31	341,026
1012,47	0,000
1012,63	2250,000
1012,80	935,714
1012,96	-781,250
1013,12	-1650,000
1013,29	794,444
1013,45	412,195
1013,61	5133,333
1013,77	-187,500
1013,94	2240,000
1014,10	181,356
1014,26	-2925,000
1014,43	-556,000
1014,59	650,000
1014,75	-511,111
1014,91	-826,667
1015,08	452,778
1015,24	10200,000
1015,40	594,118
1015,56	-16200,000
1015,73	311,905
1015,89	972,727
1016,05	4350,000
1016,21	-1387,500
1016,38	957,895
1016,54	1053,846
1016,70	-4033,333
1016,86	493,750
1017,03	1018,750
1017,19	-592,308
1017,35	-829,412
1017,51	-1820,000
1017,68	-1300,000
1017,84	-2514,286
1018,00	359,524
1018,16	419,231
1018,33	-1885,714
1018,49	-1008,333
1018,65	-259,459
1018,81	284,615
1018,97	-1114,286
1019,14	-4200,000
1019,30	-261,538
1019,46	0,000
1019,62	-435,294
1019,79	-4966,667
1019,95	1683,333
1020,11	7600,000
1020,27	-429,630
1020,43	-423,077
1020,60	2550,000
1020,76	872,222
1020,92	693,333
1021,08	570,000
1021,24	1070,000
1021,41	1244,444
1021,57	1575,000
1021,73	1146,154
1021,89	2140,000
1022,05	-428,571
1022,21	600,000
1022,38	-766,667
1022,54	-1933,333
1022,70	402,222
1022,86	-1625,000
1023,02	658,333
1023,19	2020,000
1023,35	5166,667
1023,51	495,833
1023,67	503,704
1023,83	-906,250
1023,99	334,211
1024,16	-434,615
1024,32	-1111,111
1024,48	-1360,000
1024,64	342,857
1024,80	400,000
1024,96	412,821
1025,12	342,857
1025,29	604,762
1025,45	284,211
1025,61	844,444
1025,77	-2640,000
1025,93	-8600,000
1026,09	-1557,143
1026,26	891,667
1026,42	600,000
1026,58	454,545
1026,74	2600,000
1026,90	340,000
1027,06	300,000
1027,22	842,857
1027,38	344,231
1027,55	4833,333
1027,71	1600,000
1027,87	-388,000
1028,03	1140,000
1028,19	440,625
1028,35	795,000
1028,51	1980,000
1028,67	1066,667
1028,83	-2725,000
1029,00	-350,000
1029,16	1060,000
1029,32	-407,143
1029,48	328,889
1029,64	341,667
1029,80	6000,000
1029,96	886,667
1030,12	626,087
1030,28	-3300,000
1030,44	-769,231
1030,61	-570,833
1030,77	-222,857
1030,93	-813,333
1031,09	1516,667
1031,25	-8900,000
1031,41	-320,000
1031,57	542,308
1031,73	731,250
1031,89	-1181,818
1032,05	-422,222
1032,21	881,818
1032,37	-161,111
1032,53	-985,714
1032,69	-358,333
1032,86	370,370
1033,02	-252,500
1033,18	-718,750
1033,34	463,158
1033,50	-3600,000
1033,66	-363,415
1033,82	643,478
1033,98	-474,074
1034,14	224,359
1034,30	396,774
1034,46	-4666,667
1034,62	815,000
1034,78	-514,286
1034,94	331,579
1035,10	-769,231
1035,26	-181,395
1035,42	-244,828
1035,58	-661,111
1035,74	1150,000
1035,90	-961,538
1036,06	-1533,333
1036,22	1233,333
1036,38	-876,471
1036,54	-416,667
1036,70	-266,667
1036,86	8600,000
1037,02	477,778
1037,18	773,684
1037,34	133,333
1037,50	-202,439
1037,66	-576,471
1037,82	2900,000
1037,98	-455,556
1038,14	-352,000
1038,30	-925,000
1038,46	-485,714
1038,62	573,913
1038,78	-3333,333
1038,94	-515,789
1039,10	495,455
1039,26	359,259
1039,42	-966,667
1039,58	1600,000
1039,74	-757,895
1039,90	325,000
1040,06	-380,769
>>>>>End Processed Spectral Data<<<<<
