SpectraSuite Data File
++++++++++++++++++++++++++++++++++++
Date: Wed Feb 01 16:30:33 EET 2017
User: optolab
Dark Spectrum Present: Yes
Reference Spectrum Present: Yes
Number of Sampled Component Spectra: 1
Spectrometers: USB4C02475
Integration Time (usec): 100000 (USB4C02475)
Spectra Averaged: 1 (USB4C02475)
Boxcar Smoothing: 0 (USB4C02475)
Correct for Electrical Dark: No (USB4C02475)
Strobe/Lamp Enabled: No (USB4C02475)
Correct for Detector Non-linearity: No (USB4C02475)
Correct for Stray Light: No (USB4C02475)
Number of Pixels in Processed Spectrum: 3648
>>>>>Begin Processed Spectral Data<<<<<
344,91	3400,000
345,13	3400,000
345,35	3400,000
345,57	0,000
345,79	315,789
346,00	-1900,000
346,22	-2328,571
346,44	388,235
346,66	-445,833
346,87	-11900,000
347,09	390,909
347,31	-509,091
347,53	-374,359
347,74	280,000
347,96	506,061
348,18	784,211
348,40	403,226
348,61	1152,941
348,83	369,048
349,05	252,941
349,27	-4600,000
349,48	761,538
349,70	-482,759
349,92	470,968
350,14	188,679
350,35	342,000
350,57	3325,000
350,79	560,000
351,01	-838,095
351,22	264,815
351,44	792,308
351,66	-488,000
351,87	-485,714
352,09	146,154
352,31	206,557
352,53	246,875
352,74	466,667
352,96	231,169
353,18	805,263
353,40	532,000
353,61	297,778
353,83	388,235
354,05	1036,364
354,26	2566,667
354,48	278,000
354,70	451,515
354,92	-462,069
355,13	200,000
355,35	359,091
355,57	570,833
355,78	218,072
356,00	-2675,000
356,22	523,077
356,44	6300,000
356,65	325,000
356,87	511,538
357,09	662,500
357,30	188,889
357,52	253,448
357,74	705,000
357,95	358,974
358,17	200,000
358,39	250,000
358,60	324,324
358,82	525,000
359,04	559,259
359,26	417,143
359,47	6900,000
359,69	360,000
359,91	469,697
360,12	604,762
360,34	545,833
360,56	-66,667
360,77	3875,000
360,99	666,667
361,21	270,000
361,42	6500,000
361,64	224,490
361,86	270,769
362,07	-577,419
362,29	230,667
362,51	-576,471
362,72	532,000
362,94	429,412
363,16	218,605
363,37	-821,429
363,59	503,846
363,81	304,545
364,02	605,556
364,24	570,833
364,46	2566,667
364,67	1045,455
364,89	2500,000
365,11	198,571
365,32	520,690
365,54	305,556
365,76	279,592
365,97	252,941
366,19	175,862
366,41	731,818
366,62	566,667
366,84	323,256
367,05	314,286
367,27	2333,333
367,49	-592,308
367,70	664,706
367,92	265,574
368,14	287,500
368,35	-11900,000
368,57	632,000
368,79	448,276
369,00	332,609
369,22	-1587,500
369,43	249,412
369,65	264,516
369,87	489,189
370,08	166,265
370,30	237,500
370,51	242,623
370,73	251,111
370,95	243,548
371,16	326,190
371,38	400,000
371,60	1625,000
371,81	162,500
372,03	986,667
372,24	303,333
372,46	309,434
372,68	192,857
372,89	415,152
373,11	376,923
373,32	436,364
373,54	-1100,000
373,76	823,077
373,97	780,000
374,19	636,364
374,40	243,750
374,62	-3800,000
374,84	4225,000
375,05	432,143
375,27	398,000
375,48	-9500,000
375,70	233,333
375,92	310,714
376,13	437,500
376,35	230,137
376,56	1200,000
376,78	262,500
376,99	296,429
377,21	287,500
377,43	237,879
377,64	217,391
377,86	562,069
378,07	382,051
378,29	-1400,000
378,51	609,677
378,72	270,833
378,94	-1466,667
379,15	303,030
379,37	870,588
379,58	200,000
379,80	626,667
380,01	843,750
380,23	298,039
380,45	1860,000
380,66	3366,667
380,88	300,000
381,09	258,571
381,31	201,111
381,52	260,784
381,74	1655,556
381,95	659,091
382,17	526,923
382,39	576,190
382,60	175,510
382,82	423,077
383,03	338,462
383,25	419,355
383,46	252,273
383,68	433,333
383,89	625,000
384,11	393,548
384,32	-3033,333
384,54	572,222
384,76	-3866,667
384,97	381,818
385,19	475,862
385,40	276,471
385,62	233,333
385,83	340,476
386,05	309,804
386,26	348,000
386,48	220,690
386,69	383,333
386,91	655,000
387,12	283,051
387,34	212,069
387,55	275,806
387,77	534,375
387,98	600,000
388,20	176,087
388,41	405,882
388,63	9600,000
388,84	181,967
389,06	378,571
389,27	700,000
389,49	416,667
389,70	273,469
389,92	296,667
390,13	308,163
390,35	241,176
390,56	344,444
390,78	422,222
390,99	1150,000
391,21	589,474
391,42	373,333
391,64	336,585
391,85	217,241
392,07	275,000
392,28	104,000
392,50	387,879
392,71	-1000,000
392,93	265,385
393,14	394,444
393,36	226,531
393,57	148,872
393,79	911,111
394,00	325,532
394,22	209,589
394,43	197,590
394,65	325,581
394,86	1537,500
395,08	495,238
395,29	271,698
395,50	676,923
395,72	516,667
395,93	957,143
396,15	198,592
396,36	186,765
396,58	226,667
396,79	180,000
397,01	296,000
397,22	241,667
397,44	234,848
397,65	196,491
397,87	288,095
398,08	242,857
398,29	328,125
398,51	214,286
398,72	221,951
398,94	252,308
399,15	297,143
399,37	192,982
399,58	176,923
399,80	636,364
400,01	203,704
400,22	514,286
400,44	181,481
400,65	510,714
400,87	177,941
401,08	224,286
401,30	300,000
401,51	252,632
401,72	357,692
401,94	165,823
402,15	515,000
402,37	168,908
402,58	605,556
402,80	325,714
403,01	249,296
403,22	1018,182
403,44	239,130
403,65	148,214
403,87	184,286
404,08	356,410
404,30	128,235
404,51	-3266,667
404,72	168,571
404,94	154,902
405,15	182,000
405,37	184,810
405,58	162,353
405,79	192,683
406,01	275,610
406,22	222,414
406,44	259,574
406,65	229,825
406,86	143,750
407,08	183,544
407,29	135,922
407,51	145,122
407,72	146,296
407,93	118,478
408,15	116,239
408,36	316,279
408,58	171,134
408,79	92,500
409,00	167,708
409,22	196,825
409,43	155,696
409,64	92,547
409,86	89,308
410,07	133,846
410,29	106,716
410,50	95,745
410,71	98,214
410,93	62,420
411,14	131,783
411,35	97,619
411,57	61,842
411,78	71,094
412,00	72,611
412,21	85,806
412,42	76,720
412,64	65,665
412,85	64,948
413,06	82,927
413,28	47,297
413,49	61,137
413,70	64,855
413,92	51,383
414,13	31,950
414,34	36,015
414,56	33,217
414,77	80,169
414,98	47,315
415,20	41,176
415,41	47,025
415,63	40,299
415,84	32,500
416,05	34,615
416,27	27,390
416,48	29,494
416,69	39,159
416,91	28,378
417,12	21,658
417,33	28,842
417,55	25,151
417,76	37,166
417,97	28,838
418,19	20,278
418,40	21,064
418,61	25,926
418,83	19,636
419,04	17,350
419,25	19,315
419,46	17,444
419,68	19,365
419,89	17,139
420,10	15,782
420,32	17,684
420,53	18,504
420,74	16,264
420,96	14,750
421,17	14,319
421,38	16,431
421,60	14,680
421,81	10,592
422,02	15,987
422,23	11,643
422,45	11,684
422,66	14,489
422,87	14,211
423,09	13,979
423,30	16,323
423,51	17,717
423,73	18,155
423,94	19,258
424,15	20,340
424,36	20,745
424,58	25,375
424,79	25,734
425,00	27,121
425,22	29,337
425,43	28,563
425,64	31,452
425,85	31,991
426,07	34,578
426,28	33,659
426,49	36,754
426,71	36,326
426,92	34,912
427,13	36,484
427,34	36,802
427,56	42,058
427,77	36,634
427,98	38,726
428,19	40,787
428,41	42,001
428,62	43,681
428,83	43,627
429,04	45,093
429,26	45,221
429,47	46,641
429,68	46,582
429,89	45,107
430,11	49,928
430,32	46,045
430,53	47,909
430,74	49,581
430,96	48,909
431,17	50,282
431,38	51,169
431,59	50,342
431,81	50,802
432,02	49,838
432,23	48,153
432,44	49,102
432,66	49,001
432,87	49,069
433,08	48,242
433,29	47,551
433,51	45,720
433,72	46,837
433,93	45,101
434,14	46,477
434,35	45,861
434,57	43,676
434,78	45,408
434,99	43,762
435,20	43,229
435,42	42,728
435,63	41,488
435,84	44,058
436,05	43,119
436,26	44,297
436,48	47,506
436,69	50,496
436,90	52,940
437,11	56,663
437,32	61,868
437,54	66,209
437,75	68,650
437,96	72,738
438,17	73,816
438,38	76,101
438,60	78,496
438,81	78,600
439,02	80,243
439,23	79,160
439,44	78,618
439,66	80,071
439,87	78,801
440,08	78,568
440,29	77,322
440,50	77,864
440,72	77,199
440,93	76,633
441,14	77,528
441,35	79,053
441,56	77,682
441,77	80,121
441,99	81,023
442,20	80,542
442,41	80,693
442,62	82,309
442,83	83,521
443,04	83,297
443,26	84,499
443,47	85,151
443,68	85,393
443,89	85,908
444,10	85,186
444,31	84,441
444,53	83,690
444,74	83,832
444,95	81,848
445,16	82,624
445,37	79,373
445,58	78,093
445,80	77,437
446,01	76,933
446,22	75,029
446,43	73,940
446,64	72,571
446,85	72,306
447,06	72,294
447,28	71,193
447,49	71,394
447,70	71,273
447,91	71,220
448,12	70,859
448,33	71,337
448,54	71,154
448,76	71,261
448,97	71,075
449,18	72,163
449,39	71,077
449,60	72,556
449,81	72,664
450,02	73,480
450,23	72,760
450,45	75,218
450,66	74,639
450,87	76,449
451,08	76,195
451,29	77,994
451,50	79,351
451,71	79,619
451,92	80,094
452,13	79,346
452,35	80,270
452,56	80,721
452,77	78,387
452,98	77,832
453,19	76,500
453,40	74,735
453,61	74,338
453,82	71,431
454,03	70,582
454,25	68,865
454,46	66,111
454,67	63,529
454,88	61,207
455,09	60,393
455,30	58,043
455,51	57,508
455,72	54,426
455,93	52,132
456,14	51,297
456,35	50,300
456,56	47,491
456,78	46,381
456,99	44,637
457,20	43,243
457,41	41,664
457,62	40,102
457,83	37,878
458,04	36,881
458,25	34,608
458,46	32,093
458,67	31,258
458,88	28,805
459,09	26,580
459,30	25,055
459,51	22,442
459,73	21,137
459,94	20,362
460,15	18,143
460,36	16,084
460,57	14,310
460,78	12,684
460,99	11,338
461,20	9,375
461,41	8,509
461,62	7,314
461,83	6,526
462,04	5,195
462,25	4,528
462,46	3,490
462,67	2,988
462,88	2,562
463,09	2,077
463,30	1,553
463,51	1,552
463,72	1,144
463,93	1,070
464,15	1,080
464,36	0,807
464,57	0,734
464,78	0,646
464,99	0,682
465,20	0,570
465,41	0,835
465,62	0,640
465,83	0,627
466,04	0,725
466,25	0,613
466,46	0,530
466,67	0,492
466,88	0,724
467,09	0,684
467,30	0,584
467,51	0,571
467,72	0,505
467,93	0,531
468,14	0,517
468,35	0,523
468,56	0,677
468,77	0,596
468,98	0,768
469,19	0,521
469,40	0,617
469,61	0,560
469,82	0,507
470,03	0,660
470,24	0,682
470,45	0,632
470,66	0,450
470,87	0,533
471,08	0,632
471,29	0,393
471,50	0,523
471,71	0,473
471,92	0,772
472,13	0,624
472,34	0,598
472,55	0,571
472,76	0,571
472,97	0,717
473,18	0,538
473,39	0,647
473,60	0,985
473,81	0,460
474,01	0,683
474,22	0,594
474,43	1,026
474,64	0,732
474,85	0,429
475,06	0,547
475,27	0,667
475,48	0,666
475,69	0,555
475,90	0,658
476,11	0,763
476,32	0,687
476,53	0,710
476,74	0,641
476,95	0,614
477,16	0,567
477,37	0,654
477,58	0,680
477,79	0,866
478,00	0,826
478,21	0,590
478,41	0,730
478,62	0,450
478,83	1,006
479,04	0,852
479,25	0,473
479,46	0,579
479,67	0,877
479,88	0,850
480,09	0,678
480,30	0,930
480,51	0,945
480,72	0,809
480,93	0,801
481,14	0,639
481,34	0,761
481,55	0,705
481,76	0,621
481,97	0,896
482,18	0,730
482,39	0,830
482,60	0,938
482,81	0,853
483,02	0,581
483,23	0,638
483,44	0,757
483,65	0,677
483,85	0,580
484,06	0,605
484,27	0,504
484,48	0,633
484,69	0,835
484,90	0,779
485,11	0,483
485,32	0,797
485,53	0,823
485,73	0,805
485,94	0,610
486,15	0,760
486,36	0,561
486,57	0,797
486,78	0,887
486,99	0,832
487,20	0,727
487,41	0,617
487,61	0,768
487,82	0,835
488,03	0,635
488,24	0,796
488,45	0,644
488,66	0,742
488,87	0,718
489,08	0,669
489,28	0,836
489,49	0,831
489,70	0,836
489,91	0,735
490,12	0,719
490,33	0,695
490,54	0,617
490,74	0,632
490,95	0,900
491,16	0,681
491,37	0,911
491,58	0,658
491,79	0,670
492,00	0,839
492,20	0,752
492,41	0,579
492,62	0,698
492,83	0,665
493,04	0,616
493,25	0,738
493,45	0,710
493,66	0,736
493,87	0,758
494,08	0,746
494,29	0,532
494,50	0,788
494,70	0,872
494,91	0,952
495,12	0,913
495,33	0,735
495,54	1,009
495,75	1,138
495,95	1,147
496,16	1,357
496,37	1,461
496,58	1,832
496,79	2,226
496,99	2,765
497,20	3,384
497,41	4,128
497,62	5,400
497,83	6,415
498,04	7,671
498,24	8,979
498,45	10,262
498,66	11,923
498,87	13,578
499,08	15,268
499,28	17,242
499,49	19,609
499,70	21,254
499,91	23,862
500,12	25,665
500,32	28,139
500,53	30,408
500,74	33,307
500,95	35,803
501,15	38,837
501,36	41,914
501,57	45,063
501,78	47,862
501,99	50,561
502,19	53,091
502,40	56,450
502,61	59,430
502,82	61,894
503,02	64,614
503,23	67,533
503,44	69,790
503,65	71,500
503,86	73,478
504,06	76,106
504,27	78,227
504,48	79,511
504,69	80,484
504,89	81,896
505,10	81,718
505,31	83,146
505,52	82,669
505,72	84,450
505,93	83,974
506,14	84,412
506,35	84,330
506,55	83,357
506,76	83,226
506,97	82,791
507,18	82,765
507,38	83,017
507,59	80,557
507,80	80,871
508,01	80,047
508,21	78,274
508,42	79,197
508,63	78,006
508,84	77,412
509,04	77,037
509,25	76,891
509,46	74,408
509,67	74,532
509,87	74,699
510,08	73,885
510,29	73,186
510,49	72,859
510,70	72,864
510,91	71,827
511,12	71,622
511,32	70,961
511,53	69,790
511,74	69,619
511,94	70,513
512,15	70,062
512,36	70,135
512,57	68,927
512,77	69,698
512,98	69,016
513,19	68,819
513,39	69,133
513,60	68,998
513,81	69,889
514,01	70,025
514,22	70,029
514,43	69,887
514,64	69,212
514,84	70,194
515,05	69,411
515,26	70,156
515,46	69,513
515,67	69,449
515,88	68,314
516,08	68,694
516,29	68,261
516,50	67,441
516,70	67,639
516,91	66,969
517,12	66,544
517,32	65,474
517,53	65,844
517,74	65,630
517,95	63,691
518,15	64,251
518,36	63,441
518,57	63,284
518,77	63,163
518,98	63,163
519,19	62,197
519,39	62,214
519,60	62,832
519,80	62,991
520,01	63,420
520,22	63,586
520,42	64,553
520,63	65,016
520,84	66,091
521,04	67,673
521,25	67,969
521,46	69,426
521,66	70,824
521,87	72,058
522,08	73,318
522,28	74,926
522,49	76,525
522,70	77,561
522,90	79,318
523,11	82,409
523,31	82,720
523,52	84,118
523,73	84,836
523,93	85,437
524,14	87,335
524,35	87,471
524,55	88,556
524,76	88,724
524,97	89,683
525,17	90,793
525,38	89,980
525,58	89,605
525,79	89,793
526,00	89,623
526,20	89,610
526,41	89,101
526,61	89,437
526,82	87,455
527,03	85,666
527,23	84,888
527,44	83,942
527,64	83,074
527,85	80,724
528,06	78,146
528,26	77,207
528,47	75,656
528,68	73,563
528,88	71,734
529,09	69,116
529,29	67,222
529,50	65,418
529,70	63,418
529,91	60,240
530,12	57,969
530,32	55,628
530,53	53,549
530,73	51,133
530,94	48,625
531,15	46,854
531,35	44,214
531,56	42,099
531,76	39,595
531,97	37,089
532,17	35,520
532,38	32,380
532,59	30,975
532,79	29,159
533,00	26,828
533,20	25,441
533,41	23,348
533,61	21,861
533,82	20,600
534,03	19,085
534,23	18,238
534,44	16,872
534,64	15,614
534,85	14,024
535,05	12,748
535,26	11,243
535,46	10,346
535,67	9,133
535,88	8,005
536,08	6,908
536,29	6,040
536,49	5,261
536,70	4,390
536,90	3,672
537,11	3,059
537,31	2,446
537,52	2,033
537,72	1,689
537,93	1,444
538,13	1,334
538,34	1,181
538,55	1,017
538,75	0,817
538,96	0,953
539,16	0,734
539,37	0,785
539,57	0,783
539,78	0,777
539,98	0,610
540,19	0,743
540,39	0,759
540,60	0,548
540,80	0,842
541,01	0,670
541,21	0,757
541,42	0,627
541,62	0,589
541,83	0,494
542,03	0,884
542,24	0,370
542,44	0,758
542,65	0,549
542,85	0,666
543,06	0,525
543,26	0,552
543,47	0,420
543,67	0,803
543,88	0,771
544,08	0,403
544,29	0,727
544,49	0,702
544,70	0,603
544,90	0,661
545,11	0,402
545,31	0,824
545,52	0,584
545,72	0,821
545,93	0,400
546,13	0,598
546,34	0,393
546,54	0,588
546,75	0,693
546,95	0,546
547,15	0,524
547,36	0,463
547,56	0,681
547,77	0,542
547,97	0,702
548,18	0,495
548,38	0,556
548,59	0,602
548,79	0,466
549,00	0,394
549,20	0,646
549,41	0,537
549,61	0,743
549,81	0,533
550,02	0,791
550,22	0,385
550,43	0,535
550,63	0,646
550,84	0,527
551,04	0,618
551,25	0,622
551,45	0,630
551,65	0,636
551,86	0,661
552,06	0,572
552,27	0,423
552,47	0,705
552,68	0,717
552,88	0,540
553,08	0,374
553,29	0,619
553,49	0,593
553,70	0,719
553,90	0,464
554,11	0,559
554,31	0,542
554,51	0,628
554,72	0,427
554,92	0,576
555,13	0,613
555,33	0,689
555,53	0,746
555,74	0,659
555,94	0,720
556,15	0,484
556,35	0,564
556,56	0,738
556,76	0,561
556,96	0,506
557,17	0,661
557,37	0,662
557,58	0,621
557,78	0,547
557,98	0,491
558,19	0,421
558,39	0,659
558,59	0,540
558,80	0,600
559,00	0,456
559,21	0,411
559,41	0,495
559,61	0,695
559,82	0,625
560,02	0,468
560,23	0,546
560,43	0,574
560,63	0,456
560,84	0,253
561,04	0,484
561,24	0,535
561,45	0,500
561,65	0,458
561,85	0,653
562,06	0,601
562,26	0,493
562,47	0,522
562,67	0,550
562,87	0,541
563,08	0,472
563,28	0,537
563,48	0,428
563,69	0,597
563,89	0,682
564,09	0,583
564,30	0,591
564,50	0,739
564,70	0,579
564,91	0,653
565,11	0,516
565,31	0,516
565,52	0,629
565,72	0,591
565,92	0,713
566,13	0,508
566,33	0,408
566,53	0,521
566,74	0,590
566,94	0,633
567,14	0,391
567,35	0,565
567,55	0,547
567,75	0,698
567,96	0,645
568,16	0,565
568,36	0,540
568,57	0,666
568,77	0,510
568,97	0,500
569,18	0,624
569,38	0,539
569,58	0,525
569,79	0,395
569,99	0,659
570,19	0,717
570,39	0,707
570,60	0,521
570,80	0,670
571,00	0,574
571,21	0,538
571,41	0,589
571,61	0,539
571,82	0,603
572,02	0,581
572,22	0,637
572,42	0,453
572,63	0,671
572,83	0,695
573,03	0,564
573,24	0,630
573,44	0,543
573,64	0,641
573,84	0,707
574,05	0,671
574,25	0,787
574,45	0,430
574,66	0,659
574,86	0,857
575,06	0,616
575,26	0,517
575,47	0,577
575,67	0,690
575,87	0,498
576,07	0,540
576,28	0,709
576,48	0,814
576,68	0,734
576,88	0,442
577,09	0,834
577,29	0,499
577,49	0,781
577,69	0,761
577,90	1,039
578,10	0,726
578,30	0,827
578,50	0,718
578,71	1,133
578,91	0,986
579,11	1,199
579,31	1,238
579,52	1,357
579,72	1,636
579,92	1,871
580,12	2,022
580,33	2,557
580,53	2,820
580,73	3,178
580,93	4,152
581,13	4,619
581,34	5,037
581,54	6,064
581,74	6,795
581,94	8,213
582,15	9,214
582,35	10,505
582,55	12,475
582,75	13,922
582,95	16,108
583,16	17,543
583,36	19,711
583,56	21,322
583,76	23,450
583,96	25,755
584,17	27,907
584,37	30,357
584,57	31,677
584,77	33,797
584,97	35,531
585,18	36,934
585,38	38,753
585,58	39,764
585,78	40,875
585,98	42,362
586,19	42,923
586,39	43,981
586,59	44,645
586,79	45,396
586,99	46,293
587,20	46,436
587,40	47,242
587,60	47,377
587,80	48,891
588,00	49,325
588,20	49,110
588,41	51,279
588,61	51,601
588,81	53,003
589,01	54,399
589,21	55,938
589,41	57,307
589,62	59,984
589,82	62,477
590,02	64,600
590,22	67,783
590,42	70,299
590,62	72,734
590,83	74,607
591,03	78,454
591,23	80,025
591,43	81,866
591,63	84,084
591,83	86,164
592,03	86,958
592,24	88,771
592,44	90,145
592,64	91,548
592,84	92,453
593,04	92,638
593,24	93,087
593,44	93,703
593,65	93,497
593,85	93,985
594,05	94,387
594,25	93,160
594,45	94,341
594,65	93,886
594,85	94,228
595,06	93,916
595,26	93,688
595,46	94,911
595,66	94,673
595,86	94,881
596,06	94,953
596,26	96,025
596,46	95,840
596,66	95,218
596,87	95,420
597,07	95,472
597,27	95,772
597,47	96,775
597,67	96,097
597,87	96,268
598,07	95,327
598,27	96,955
598,47	96,189
598,67	96,203
598,88	97,598
599,08	97,129
599,28	97,189
599,48	96,249
599,68	96,963
599,88	97,284
600,08	97,525
600,28	96,843
600,48	98,171
600,68	97,166
600,88	96,977
601,09	97,620
601,29	95,203
601,49	97,276
601,69	96,678
601,89	95,882
602,09	96,318
602,29	95,491
602,49	94,916
602,69	95,289
602,89	95,206
603,09	95,709
603,29	95,189
603,49	94,855
603,69	95,155
603,90	94,881
604,10	95,020
604,30	94,916
604,50	94,875
604,70	96,157
604,90	95,609
605,10	96,425
605,30	96,849
605,50	96,469
605,70	97,885
605,90	97,057
606,10	96,847
606,30	97,025
606,50	98,359
606,70	98,381
606,90	98,917
607,10	97,963
607,30	98,332
607,50	98,095
607,70	99,192
607,90	98,552
608,10	98,490
608,30	98,277
608,50	98,559
608,70	97,954
608,90	97,781
609,11	98,332
609,31	96,662
609,51	98,238
609,71	96,995
609,91	97,691
610,11	96,681
610,31	97,462
610,51	96,433
610,71	96,937
610,91	97,128
611,11	96,348
611,31	97,050
611,51	96,162
611,71	96,334
611,91	96,254
612,11	96,685
612,31	95,205
612,51	94,819
612,71	94,202
612,91	94,409
613,11	92,749
613,31	93,620
613,51	91,938
613,71	91,175
613,91	91,125
614,11	91,108
614,31	90,254
614,50	89,975
614,70	88,496
614,90	88,525
615,10	88,176
615,30	88,110
615,50	86,778
615,70	86,938
615,90	86,691
616,10	86,109
616,30	86,744
616,50	86,468
616,70	86,224
616,90	86,428
617,10	86,853
617,30	86,564
617,50	87,415
617,70	87,855
617,90	87,497
618,10	87,361
618,30	88,652
618,50	86,730
618,70	88,506
618,90	89,227
619,10	87,776
619,30	86,293
619,49	86,461
619,69	85,549
619,89	83,356
620,09	82,858
620,29	82,932
620,49	81,242
620,69	79,535
620,89	77,931
621,09	76,636
621,29	74,494
621,49	72,120
621,69	70,208
621,89	68,982
622,09	66,608
622,29	65,157
622,48	64,572
622,68	62,284
622,88	60,121
623,08	58,877
623,28	57,580
623,48	56,495
623,68	55,339
623,88	54,751
624,08	53,196
624,28	52,867
624,48	51,173
624,67	50,955
624,87	50,147
625,07	48,749
625,27	49,311
625,47	49,085
625,67	49,077
625,87	48,057
626,07	47,379
626,27	47,441
626,47	47,314
626,66	46,793
626,86	46,861
627,06	46,836
627,26	46,386
627,46	46,124
627,66	46,365
627,86	45,852
628,06	45,685
628,25	45,420
628,45	45,578
628,65	45,597
628,85	44,643
629,05	44,495
629,25	44,409
629,45	43,285
629,65	43,973
629,84	43,639
630,04	43,551
630,24	43,289
630,44	42,116
630,64	43,033
630,84	42,659
631,04	42,028
631,23	41,916
631,43	41,306
631,63	40,432
631,83	40,347
632,03	39,575
632,23	39,233
632,42	38,392
632,62	37,593
632,82	37,412
633,02	36,707
633,22	36,579
633,42	35,777
633,62	35,368
633,81	34,346
634,01	34,214
634,21	33,961
634,41	33,807
634,61	32,081
634,80	31,619
635,00	31,678
635,20	31,012
635,40	29,997
635,60	29,131
635,80	28,488
635,99	27,744
636,19	27,051
636,39	25,887
636,59	24,831
636,79	24,116
636,98	22,316
637,18	20,791
637,38	19,336
637,58	18,011
637,78	15,981
637,97	14,537
638,17	13,250
638,37	11,633
638,57	10,444
638,77	8,798
638,96	7,900
639,16	6,807
639,36	6,124
639,56	4,963
639,76	4,653
639,95	3,926
640,15	3,243
640,35	2,827
640,55	2,220
640,75	2,140
640,94	1,963
641,14	1,737
641,34	1,657
641,54	1,204
641,73	1,411
641,93	1,261
642,13	1,090
642,33	1,033
642,53	0,852
642,72	1,152
642,92	1,116
643,12	0,894
643,32	1,163
643,51	0,915
643,71	1,013
643,91	0,719
644,11	1,225
644,30	0,988
644,50	0,815
644,70	0,823
644,90	0,558
645,09	1,180
645,29	0,614
645,49	0,933
645,69	1,121
645,88	1,072
646,08	1,187
646,28	1,293
646,48	1,126
646,67	1,078
646,87	1,120
647,07	0,843
647,26	0,726
647,46	0,885
647,66	0,973
647,86	1,130
648,05	1,173
648,25	0,980
648,45	0,794
648,65	1,016
648,84	1,001
649,04	1,167
649,24	1,083
649,43	0,772
649,63	1,236
649,83	1,094
650,03	1,108
650,22	1,151
650,42	1,255
650,62	0,872
650,81	1,171
651,01	1,074
651,21	0,981
651,40	0,687
651,60	1,105
651,80	0,674
652,00	0,808
652,19	0,790
652,39	1,040
652,59	0,835
652,78	1,123
652,98	0,665
653,18	0,671
653,37	1,131
653,57	1,397
653,77	0,836
653,96	0,942
654,16	1,378
654,36	1,005
654,55	1,421
654,75	0,717
654,95	1,131
655,14	0,779
655,34	1,115
655,54	0,978
655,73	0,633
655,93	0,970
656,13	0,865
656,32	0,595
656,52	0,725
656,72	0,812
656,91	1,287
657,11	0,680
657,31	0,575
657,50	0,948
657,70	0,978
657,90	0,999
658,09	0,902
658,29	1,098
658,49	1,007
658,68	1,199
658,88	1,408
659,07	0,474
659,27	0,718
659,47	1,173
659,66	0,601
659,86	0,994
660,06	1,352
660,25	0,591
660,45	1,278
660,64	0,943
660,84	0,784
661,04	0,542
661,23	0,921
661,43	0,906
661,63	0,976
661,82	0,597
662,02	0,998
662,21	0,979
662,41	0,746
662,61	1,005
662,80	0,855
663,00	1,109
663,19	1,202
663,39	1,256
663,59	1,603
663,78	0,753
663,98	0,636
664,17	0,877
664,37	0,989
664,57	1,251
664,76	1,052
664,96	1,083
665,15	0,601
665,35	0,843
665,55	1,069
665,74	1,230
665,94	0,966
666,13	1,224
666,33	0,758
666,53	1,394
666,72	0,894
666,92	1,214
667,11	0,851
667,31	1,024
667,50	0,858
667,70	1,185
667,90	0,952
668,09	0,862
668,29	0,729
668,48	0,940
668,68	0,701
668,87	0,538
669,07	0,902
669,26	0,944
669,46	0,732
669,66	1,079
669,85	0,801
670,05	0,607
670,24	0,562
670,44	1,067
670,63	0,650
670,83	0,796
671,02	1,333
671,22	1,225
671,42	0,664
671,61	0,768
671,81	0,809
672,00	1,028
672,20	0,729
672,39	0,660
672,59	0,695
672,78	0,848
672,98	0,801
673,17	0,475
673,37	0,800
673,56	0,861
673,76	0,891
673,95	0,998
674,15	0,534
674,34	0,570
674,54	0,676
674,73	0,796
674,93	0,764
675,13	0,530
675,32	0,637
675,52	0,748
675,71	0,654
675,91	0,746
676,10	0,440
676,30	0,607
676,49	0,720
676,69	1,048
676,88	0,893
677,08	0,844
677,27	0,550
677,47	0,467
677,66	0,812
677,86	0,756
678,05	0,668
678,24	0,636
678,44	0,671
678,63	0,581
678,83	0,561
679,02	0,683
679,22	0,399
679,41	0,466
679,61	0,535
679,80	0,610
680,00	0,649
680,19	0,573
680,39	0,664
680,58	0,472
680,78	0,516
680,97	0,417
681,17	0,575
681,36	0,537
681,56	0,836
681,75	0,443
681,94	0,600
682,14	0,859
682,33	0,680
682,53	0,975
682,72	0,655
682,92	0,898
683,11	0,494
683,31	0,378
683,50	0,566
683,69	0,596
683,89	0,411
684,08	0,490
684,28	0,381
684,47	0,615
684,67	0,406
684,86	0,427
685,06	0,364
685,25	0,494
685,44	0,455
685,64	0,219
685,83	0,443
686,03	0,131
686,22	0,259
686,42	0,368
686,61	0,452
686,80	0,385
687,00	0,467
687,19	0,604
687,39	0,378
687,58	0,310
687,77	0,364
687,97	0,471
688,16	0,247
688,36	0,234
688,55	0,499
688,74	0,501
688,94	0,470
689,13	0,389
689,33	0,358
689,52	0,404
689,71	0,485
689,91	0,278
690,10	0,404
690,30	0,377
690,49	0,440
690,68	0,332
690,88	0,576
691,07	0,407
691,27	0,298
691,46	0,271
691,65	0,480
691,85	0,322
692,04	0,226
692,23	0,272
692,43	0,343
692,62	0,444
692,82	0,473
693,01	0,267
693,20	0,581
693,40	0,340
693,59	0,525
693,78	0,480
693,98	0,211
694,17	0,334
694,36	0,436
694,56	0,548
694,75	0,309
694,94	0,492
695,14	0,670
695,33	0,283
695,53	0,480
695,72	0,508
695,91	0,542
696,11	0,515
696,30	0,501
696,49	0,327
696,69	0,586
696,88	0,359
697,07	0,272
697,27	0,513
697,46	0,521
697,65	0,364
697,85	0,318
698,04	0,659
698,23	0,360
698,43	0,611
698,62	0,400
698,81	0,553
699,01	0,966
699,20	0,793
699,39	0,879
699,58	0,761
699,78	0,805
699,97	0,442
700,16	0,960
700,36	0,685
700,55	1,021
700,74	0,850
700,94	0,566
701,13	0,661
701,32	1,496
701,52	1,335
701,71	0,573
701,90	1,501
702,09	1,347
702,29	1,694
702,48	1,581
702,67	1,237
702,87	1,104
703,06	0,972
703,25	1,771
703,44	1,214
703,64	2,283
703,83	1,877
704,02	1,924
704,22	1,597
704,41	1,251
704,60	2,356
704,79	1,247
704,99	2,193
705,18	1,600
705,37	1,379
705,56	2,401
705,76	2,429
705,95	2,217
706,14	1,707
706,33	3,031
706,53	1,903
706,72	2,783
706,91	3,274
707,11	2,914
707,30	3,220
707,49	2,862
707,68	2,441
707,88	3,172
708,07	0,550
708,26	2,953
708,45	2,582
708,64	3,273
708,84	3,426
709,03	2,622
709,22	1,354
709,41	3,905
709,61	2,813
709,80	3,276
709,99	4,010
710,18	3,504
710,38	2,722
710,57	1,407
710,76	2,534
710,95	3,442
711,14	4,026
711,34	3,262
711,53	4,722
711,72	4,571
711,91	4,040
712,11	5,530
712,30	5,030
712,49	4,192
712,68	4,802
712,87	7,200
713,07	5,872
713,26	3,777
713,45	3,372
713,64	6,147
713,83	4,113
714,03	6,282
714,22	6,244
714,41	4,315
714,60	6,086
714,79	3,097
714,99	5,217
715,18	3,848
715,37	6,481
715,56	6,100
715,75	5,805
715,94	6,002
716,14	4,945
716,33	6,843
716,52	4,860
716,71	5,754
716,90	6,119
717,10	6,197
717,29	6,171
717,48	9,368
717,67	4,271
717,86	4,883
718,05	3,477
718,24	7,430
718,44	8,096
718,63	6,766
718,82	7,746
719,01	8,734
719,20	6,697
719,39	4,823
719,59	2,768
719,78	6,360
719,97	9,205
720,16	6,580
720,35	7,865
720,54	7,475
720,73	6,576
720,93	7,742
721,12	6,863
721,31	8,693
721,50	7,864
721,69	7,169
721,88	9,804
722,07	8,486
722,27	5,122
722,46	7,022
722,65	6,460
722,84	10,047
723,03	5,736
723,22	9,815
723,41	10,278
723,60	13,784
723,79	7,340
723,99	10,309
724,18	12,175
724,37	9,128
724,56	8,564
724,75	10,784
724,94	11,683
725,13	12,284
725,32	10,837
725,51	10,545
725,71	9,186
725,90	9,671
726,09	11,321
726,28	12,488
726,47	7,520
726,66	10,419
726,85	9,734
727,04	12,773
727,23	6,064
727,42	13,854
727,61	5,820
727,81	10,949
728,00	8,426
728,19	9,039
728,38	5,292
728,57	12,579
728,76	17,850
728,95	11,607
729,14	6,908
729,33	12,623
729,52	16,085
729,71	15,040
729,90	9,874
730,09	11,215
730,28	16,051
730,48	12,297
730,67	15,719
730,86	10,572
731,05	9,463
731,24	11,138
731,43	11,950
731,62	16,040
731,81	11,944
732,00	10,292
732,19	11,367
732,38	9,686
732,57	12,125
732,76	17,143
732,95	11,867
733,14	10,663
733,33	7,830
733,52	13,317
733,71	9,068
733,90	17,224
734,09	13,233
734,28	14,897
734,47	14,342
734,66	13,297
734,85	13,050
735,04	16,894
735,23	15,079
735,42	11,671
735,61	18,533
735,81	16,552
736,00	15,964
736,19	15,385
736,38	13,926
736,57	23,120
736,76	13,488
736,95	20,000
737,14	17,781
737,33	17,175
737,52	19,759
737,71	13,141
737,90	19,818
738,09	19,172
738,28	18,182
738,47	17,484
738,66	11,719
738,85	10,653
739,04	16,808
739,22	17,905
739,41	16,129
739,60	11,873
739,79	17,979
739,98	9,256
740,17	19,728
740,36	23,036
740,55	22,046
740,74	17,913
740,93	18,496
741,12	20,772
741,31	16,360
741,50	18,079
741,69	15,185
741,88	10,800
742,07	15,523
742,26	13,296
742,45	28,063
742,64	32,374
742,83	18,298
743,02	17,477
743,21	28,370
743,40	18,042
743,59	18,648
743,78	20,742
743,97	27,444
744,16	17,960
744,34	18,701
744,53	21,311
744,72	24,324
744,91	11,368
745,10	24,736
745,29	13,002
745,48	23,679
745,67	23,625
745,86	12,676
746,05	22,603
746,24	29,847
746,43	17,730
746,62	16,820
746,81	25,571
747,00	25,261
747,18	35,824
747,37	25,586
747,56	17,303
747,75	32,385
747,94	27,571
748,13	18,265
748,32	33,333
748,51	25,734
748,70	35,252
748,89	27,053
749,08	12,571
749,26	27,208
749,45	17,882
749,64	27,543
749,83	18,830
750,02	35,635
750,21	22,874
750,40	28,906
750,59	31,132
750,78	27,219
750,96	24,302
751,15	33,607
751,34	32,984
751,53	28,818
751,72	21,294
751,91	28,767
752,10	19,136
752,29	27,119
752,47	16,573
752,66	22,254
752,85	24,768
753,04	33,754
753,23	13,907
753,42	33,131
753,61	25,163
753,80	39,837
753,98	27,719
754,17	38,344
754,36	33,051
754,55	27,900
754,74	38,150
754,93	29,683
755,12	27,200
755,30	31,856
755,49	26,911
755,68	33,429
755,87	31,532
756,06	34,637
756,25	30,159
756,43	21,034
756,62	30,267
756,81	33,993
757,00	34,783
757,19	42,808
757,38	31,861
757,56	40,968
757,75	38,562
757,94	36,593
758,13	27,273
758,32	33,333
758,51	29,779
758,69	22,000
758,88	40,240
759,07	40,860
759,26	31,163
759,45	36,245
759,63	53,903
759,82	26,263
760,01	25,084
760,20	34,630
760,39	40,672
760,57	53,306
760,76	40,090
760,95	33,333
761,14	33,878
761,33	38,750
761,51	40,860
761,70	46,552
761,89	42,213
762,08	33,488
762,27	50,916
762,45	55,253
762,64	43,956
762,83	49,115
763,02	37,209
763,21	34,483
763,39	52,653
763,58	42,264
763,77	23,552
763,96	67,068
764,14	42,917
764,33	46,154
764,52	46,352
764,71	39,910
764,89	38,725
765,08	55,172
765,27	47,584
765,46	52,717
765,65	33,624
765,83	34,199
766,02	32,340
766,21	62,431
766,40	52,857
766,58	46,748
766,77	64,179
766,96	56,818
767,15	51,208
767,33	38,596
767,52	64,634
767,71	60,870
767,90	48,876
768,08	42,802
768,27	46,000
768,46	45,312
768,64	67,358
768,83	57,292
769,02	52,000
769,21	59,389
769,39	56,977
769,58	59,538
769,77	75,862
769,96	58,115
770,14	44,218
770,33	56,542
770,52	44,444
770,70	40,000
770,89	69,799
771,08	50,424
771,27	77,835
771,45	42,105
771,64	76,563
771,83	82,243
772,01	60,241
772,20	69,347
772,39	52,667
772,57	44,961
772,76	45,185
772,95	70,213
773,14	76,344
773,32	56,129
773,51	61,692
773,70	60,625
773,88	85,792
774,07	62,827
774,26	61,702
774,44	52,439
774,63	69,543
774,82	62,195
775,00	70,000
775,19	48,800
775,38	74,566
775,56	74,479
775,75	45,181
775,94	72,152
776,12	54,144
776,31	76,471
776,50	73,864
776,68	64,211
776,87	64,205
777,06	53,793
777,24	67,222
777,43	30,128
777,62	92,647
777,80	61,486
777,99	82,857
778,18	64,851
778,36	88,000
778,55	83,471
778,74	77,083
778,92	83,432
779,11	86,667
779,29	80,503
779,48	63,265
779,67	81,395
779,85	93,496
780,04	62,703
780,23	80,576
780,41	85,156
780,60	33,684
780,79	81,921
780,97	92,763
781,16	66,667
781,34	113,402
781,53	123,077
781,72	54,745
781,90	48,437
782,09	68,387
782,28	101,460
782,46	81,481
782,65	57,143
782,83	122,472
783,02	127,500
783,21	102,000
783,39	126,957
783,58	81,657
783,76	64,804
783,95	67,879
784,14	62,252
784,32	91,946
784,51	125,000
784,69	90,678
784,88	99,099
785,06	63,025
785,25	92,994
785,44	82,734
785,62	82,857
785,81	123,944
785,99	128,777
786,18	89,189
786,37	88,889
786,55	89,908
786,74	75,000
786,92	89,063
787,11	70,833
787,29	66,418
787,48	48,000
787,67	114,458
787,85	90,517
788,04	64,356
788,22	53,279
788,41	141,176
788,59	129,358
788,78	71,515
788,96	114,151
789,15	113,684
789,34	80,000
789,52	107,080
789,71	84,496
789,89	272,340
790,08	93,151
790,26	87,143
790,45	72,727
790,63	72,222
790,82	112,121
791,00	71,528
791,19	103,226
791,38	88,194
791,56	101,754
791,75	135,780
791,93	102,299
792,12	71,598
792,30	85,600
792,49	65,546
792,67	111,194
792,86	87,597
793,04	106,542
793,23	65,833
793,41	124,051
793,60	135,354
793,78	114,912
793,97	119,231
794,15	113,636
794,34	76,923
794,52	120,779
794,71	108,642
794,89	130,000
795,08	114,563
795,26	102,222
795,45	144,776
795,63	118,939
795,82	86,916
796,00	100,917
796,19	106,667
796,37	116,058
796,56	106,452
796,74	117,699
796,93	100,000
797,11	130,380
797,30	101,667
797,48	95,862
797,67	115,833
797,85	104,082
798,04	105,208
798,22	101,587
798,41	111,765
798,59	75,789
798,77	123,077
798,96	130,108
799,14	119,828
799,33	125,191
799,51	102,308
799,70	86,577
799,88	163,636
800,07	89,474
800,25	70,345
800,44	70,707
800,62	121,176
800,80	188,406
800,99	173,016
801,17	121,552
801,36	93,793
801,54	120,833
801,73	71,717
801,91	104,098
802,10	108,333
802,28	128,972
802,46	96,296
802,65	121,839
802,83	160,674
803,02	121,053
803,20	98,438
803,39	151,724
803,57	165,060
803,75	82,432
803,94	95,798
804,12	94,167
804,31	92,035
804,49	98,077
804,67	74,400
804,86	104,464
805,04	89,865
805,23	102,069
805,41	113,934
805,59	88,525
805,78	109,848
805,96	93,590
806,15	107,031
806,33	88,235
806,51	104,425
806,70	171,667
806,88	98,374
807,07	80,159
807,25	78,616
807,43	123,841
807,62	84,553
807,80	125,806
807,99	109,524
808,17	86,525
808,35	108,772
808,54	103,226
808,72	94,400
808,90	139,474
809,09	95,000
809,27	114,414
809,46	118,750
809,64	101,961
809,82	116,092
810,01	82,576
810,19	122,000
810,37	85,385
810,56	110,976
810,74	54,967
810,92	100,000
811,11	211,765
811,29	83,688
811,48	105,051
811,66	106,202
811,84	133,028
812,03	119,091
812,21	92,308
812,39	88,983
812,58	130,392
812,76	93,458
812,94	117,333
813,13	88,095
813,31	91,667
813,49	160,870
813,68	124,348
813,86	122,449
814,04	155,340
814,23	131,313
814,41	82,353
814,59	72,881
814,78	92,647
814,96	118,018
815,14	131,111
815,33	107,246
815,51	77,037
815,69	108,642
815,87	111,304
816,06	104,375
816,24	108,609
816,42	48,077
816,61	111,864
816,79	137,349
816,97	96,396
817,16	43,871
817,34	105,517
817,52	84,138
817,70	119,841
817,89	63,636
818,07	78,448
818,25	105,405
818,44	91,279
818,62	67,241
818,80	90,210
818,98	100,000
819,17	83,077
819,35	90,588
819,53	73,267
819,72	76,744
819,90	77,246
820,08	44,156
820,26	126,316
820,45	119,277
820,63	90,104
820,81	90,604
820,99	83,459
821,18	34,815
821,36	80,476
821,54	69,186
821,73	90,270
821,91	62,234
822,09	67,059
822,27	48,731
822,46	96,875
822,64	122,517
822,82	63,415
823,00	73,874
823,19	75,758
823,37	99,286
823,55	102,353
823,73	84,667
823,91	54,696
824,10	103,911
824,28	88,889
824,46	52,326
824,64	64,706
824,83	62,602
825,01	102,899
825,19	74,286
825,37	72,917
825,56	58,125
825,74	60,000
825,92	64,045
826,10	89,441
826,28	73,154
826,47	56,911
826,65	82,432
826,83	61,828
827,01	48,485
827,19	73,418
827,38	93,782
827,56	61,538
827,74	67,073
827,92	52,195
828,10	73,370
828,29	72,857
828,47	71,491
828,65	45,946
828,83	83,333
829,01	60,667
829,20	61,392
829,38	56,846
829,56	57,895
829,74	68,182
829,92	74,227
830,10	60,811
830,29	66,486
830,47	75,521
830,65	64,732
830,83	71,429
831,01	62,083
831,20	60,891
831,38	79,024
831,56	54,656
831,74	52,000
831,92	60,227
832,10	44,091
832,29	65,877
832,47	42,478
832,65	69,362
832,83	60,000
833,01	33,597
833,19	57,466
833,37	52,593
833,56	55,399
833,74	61,538
833,92	35,398
834,10	72,081
834,28	50,769
834,46	59,170
834,64	55,469
834,83	51,536
835,01	54,475
835,19	50,711
835,37	50,598
835,55	65,343
835,73	55,147
835,91	45,174
836,09	37,344
836,28	38,168
836,46	53,684
836,64	54,918
836,82	43,284
837,00	50,000
837,18	54,150
837,36	48,663
837,54	49,621
837,72	34,661
837,91	30,120
838,09	49,600
838,27	44,322
838,45	57,929
838,63	33,898
838,81	48,684
838,99	40,418
839,17	49,191
839,35	30,741
839,53	41,946
839,72	41,949
839,90	11,246
840,08	37,821
840,26	42,902
840,44	28,395
840,62	31,650
840,80	51,235
840,98	43,807
841,16	22,420
841,34	41,159
841,52	41,853
841,70	36,027
841,89	34,194
842,07	36,216
842,25	43,506
842,43	38,387
842,61	40,751
842,79	49,390
842,97	37,805
843,15	43,553
843,33	40,380
843,51	42,005
843,69	25,000
843,87	25,876
844,05	30,728
844,23	34,054
844,41	35,678
844,59	34,659
844,77	27,378
844,95	31,796
845,13	34,699
845,31	33,799
845,50	43,299
845,68	22,021
845,86	33,962
846,04	39,753
846,22	37,709
846,40	9,711
846,58	16,890
846,76	25,686
846,94	32,692
847,12	31,517
847,30	31,567
847,48	35,012
847,66	29,756
847,84	22,335
848,02	34,096
848,20	39,073
848,38	25,420
848,56	41,935
848,74	30,165
848,92	23,173
849,10	35,268
849,28	25,926
849,46	18,458
849,64	23,571
849,82	25,240
850,00	22,998
850,18	25,866
850,36	28,289
850,54	31,166
850,72	32,225
850,90	26,521
851,08	25,720
851,26	30,769
851,44	26,707
851,62	13,245
851,80	28,827
851,98	33,333
852,16	37,654
852,34	27,324
852,52	26,243
852,70	20,080
852,87	20,952
853,05	27,054
853,23	25,098
853,41	17,178
853,59	21,509
853,77	23,214
853,95	29,449
854,13	21,942
854,31	24,433
854,49	14,429
854,67	29,699
854,85	24,174
855,03	24,330
855,21	21,320
855,39	19,966
855,57	27,717
855,75	22,091
855,93	16,254
856,11	30,144
856,28	24,306
856,46	15,523
856,64	19,579
856,82	18,325
857,00	22,145
857,18	19,875
857,36	18,992
857,54	31,588
857,72	23,372
857,90	15,486
858,08	17,284
858,26	21,865
858,44	19,255
858,61	21,837
858,79	22,326
858,97	13,897
859,15	18,417
859,33	11,963
859,51	18,211
859,69	19,940
859,87	18,887
860,05	21,757
860,23	13,333
860,40	22,427
860,58	16,954
860,76	18,220
860,94	12,672
861,12	17,705
861,30	21,204
861,48	19,688
861,66	13,522
861,84	18,296
862,01	16,310
862,19	19,106
862,37	18,222
862,55	11,560
862,73	16,168
862,91	7,711
863,09	18,856
863,27	11,421
863,44	14,172
863,62	10,940
863,80	12,114
863,98	13,027
864,16	14,550
864,34	8,961
864,52	15,376
864,69	18,313
864,87	15,852
865,05	10,167
865,23	13,164
865,41	14,541
865,59	18,541
865,76	16,796
865,94	16,859
866,12	13,703
866,30	11,166
866,48	14,214
866,66	18,004
866,83	12,801
867,01	18,323
867,19	15,677
867,37	11,885
867,55	16,136
867,73	13,440
867,90	11,836
868,08	14,706
868,26	11,288
868,44	11,159
868,62	13,898
868,79	9,199
868,97	15,458
869,15	15,817
869,33	9,813
869,51	12,633
869,69	12,304
869,86	15,385
870,04	13,651
870,22	12,175
870,40	10,101
870,57	14,400
870,75	14,272
870,93	10,718
871,11	10,682
871,29	13,008
871,46	10,272
871,64	9,693
871,82	11,512
872,00	14,045
872,18	13,449
872,35	15,152
872,53	15,217
872,71	7,122
872,89	14,736
873,06	11,162
873,24	10,110
873,42	9,588
873,60	4,959
873,77	10,587
873,95	8,836
874,13	11,091
874,31	9,269
874,49	12,903
874,66	7,131
874,84	6,217
875,02	12,693
875,20	8,264
875,37	6,388
875,55	4,996
875,73	8,887
875,91	10,391
876,08	7,006
876,26	6,245
876,44	6,390
876,61	12,824
876,79	10,358
876,97	8,170
877,15	15,725
877,32	10,315
877,50	8,251
877,68	11,876
877,86	8,609
878,03	7,444
878,21	9,218
878,39	7,704
878,56	11,504
878,74	5,929
878,92	7,641
879,10	8,136
879,27	8,183
879,45	10,181
879,63	6,560
879,80	8,838
879,98	6,690
880,16	7,954
880,34	4,659
880,51	11,429
880,69	7,878
880,87	6,460
881,04	9,026
881,22	11,199
881,40	4,184
881,57	6,793
881,75	7,207
881,93	6,905
882,10	7,239
882,28	5,040
882,46	6,304
882,63	10,050
882,81	8,276
882,99	5,421
883,16	6,948
883,34	7,378
883,52	5,777
883,69	5,556
883,87	7,741
884,05	6,147
884,22	6,598
884,40	6,100
884,58	7,318
884,75	7,186
884,93	7,801
885,11	5,604
885,28	6,732
885,46	6,748
885,64	7,435
885,81	7,116
885,99	5,458
886,17	4,674
886,34	7,236
886,52	6,422
886,70	6,525
886,87	7,975
887,05	5,589
887,22	5,382
887,40	8,363
887,58	5,174
887,75	7,129
887,93	4,433
888,11	3,213
888,28	5,595
888,46	2,916
888,63	5,767
888,81	6,851
888,99	3,839
889,16	4,803
889,34	5,000
889,51	6,813
889,69	4,701
889,87	5,639
890,04	5,471
890,22	5,146
890,39	2,831
890,57	5,462
890,75	5,943
890,92	5,038
891,10	5,679
891,27	3,726
891,45	5,583
891,63	6,938
891,80	4,484
891,98	5,355
892,15	3,849
892,33	3,103
892,51	3,411
892,68	4,411
892,86	3,574
893,03	4,068
893,21	6,921
893,38	4,559
893,56	5,731
893,74	3,465
893,91	3,705
894,09	5,774
894,26	4,585
894,44	3,629
894,61	5,199
894,79	5,108
894,96	6,183
895,14	4,350
895,32	4,602
895,49	4,922
895,67	4,632
895,84	5,240
896,02	4,175
896,19	3,889
896,37	4,302
896,54	4,308
896,72	5,822
896,89	4,648
897,07	5,599
897,25	4,354
897,42	3,686
897,60	6,476
897,77	5,388
897,95	4,518
898,12	3,751
898,30	3,726
898,47	2,803
898,65	4,064
898,82	3,294
899,00	3,559
899,17	4,225
899,35	3,713
899,52	3,534
899,70	4,668
899,87	4,709
900,05	5,658
900,22	3,986
900,40	2,520
900,57	5,378
900,75	2,770
900,92	2,569
901,10	3,714
901,27	3,680
901,45	4,493
901,62	4,134
901,80	4,584
901,97	3,857
902,15	4,677
902,32	4,145
902,50	2,157
902,67	3,183
902,85	3,779
903,02	6,313
903,20	2,610
903,37	4,007
903,54	4,497
903,72	2,270
903,89	3,065
904,07	4,891
904,24	3,769
904,42	3,360
904,59	3,743
904,77	3,895
904,94	4,284
905,12	3,099
905,29	4,502
905,47	5,133
905,64	4,216
905,81	2,922
905,99	3,736
906,16	4,070
906,34	3,841
906,51	3,437
906,69	1,987
906,86	3,305
907,03	3,208
907,21	3,054
907,38	2,703
907,56	3,706
907,73	4,675
907,91	5,401
908,08	3,448
908,25	3,109
908,43	4,291
908,60	2,973
908,78	3,783
908,95	3,716
909,13	3,431
909,30	1,277
909,47	4,495
909,65	4,139
909,82	6,498
910,00	3,908
910,17	3,194
910,34	3,146
910,52	3,502
910,69	4,305
910,87	4,033
911,04	2,739
911,21	3,549
911,39	3,318
911,56	2,493
911,73	2,934
911,91	3,997
912,08	4,429
912,26	2,707
912,43	2,572
912,60	3,966
912,78	2,460
912,95	4,311
913,13	3,346
913,30	3,698
913,47	2,926
913,65	2,719
913,82	2,708
913,99	2,206
914,17	2,093
914,34	3,709
914,51	3,830
914,69	3,033
914,86	3,983
915,03	3,348
915,21	3,595
915,38	2,495
915,56	2,270
915,73	3,332
915,90	2,801
916,08	2,976
916,25	3,307
916,42	2,147
916,60	3,438
916,77	3,055
916,94	2,636
917,12	4,165
917,29	3,695
917,46	2,766
917,64	2,906
917,81	3,649
917,98	2,070
918,16	3,718
918,33	3,344
918,50	3,636
918,67	2,692
918,85	2,818
919,02	2,777
919,19	3,630
919,37	2,431
919,54	3,452
919,71	3,404
919,89	2,518
920,06	2,182
920,23	2,632
920,41	3,177
920,58	2,783
920,75	2,587
920,92	2,045
921,10	2,621
921,27	1,873
921,44	3,310
921,62	1,401
921,79	4,242
921,96	2,212
922,13	2,636
922,31	2,023
922,48	3,320
922,65	1,900
922,82	2,744
923,00	2,468
923,17	1,838
923,34	3,014
923,52	2,148
923,69	2,795
923,86	2,464
924,03	2,315
924,21	2,030
924,38	3,228
924,55	3,275
924,72	3,511
924,90	2,295
925,07	2,421
925,24	2,945
925,41	2,680
925,59	1,925
925,76	2,240
925,93	2,741
926,10	2,758
926,28	2,592
926,45	3,062
926,62	2,498
926,79	2,436
926,96	2,398
927,14	2,963
927,31	2,236
927,48	2,327
927,65	2,348
927,83	1,912
928,00	2,562
928,17	1,804
928,34	2,382
928,51	2,470
928,69	2,517
928,86	2,022
929,03	3,535
929,20	2,492
929,37	3,078
929,55	2,326
929,72	2,650
929,89	2,185
930,06	2,827
930,23	2,322
930,41	2,431
930,58	3,093
930,75	1,792
930,92	1,584
931,09	2,331
931,27	2,551
931,44	1,717
931,61	2,722
931,78	2,593
931,95	2,222
932,12	2,146
932,30	2,199
932,47	2,850
932,64	2,404
932,81	1,979
932,98	1,022
933,16	2,072
933,33	2,116
933,50	2,076
933,67	2,893
933,84	2,184
934,01	2,018
934,18	1,917
934,36	1,689
934,53	1,467
934,70	1,864
934,87	1,737
935,04	2,130
935,21	1,606
935,38	2,242
935,56	1,660
935,73	2,653
935,90	0,681
936,07	2,472
936,24	2,399
936,41	2,195
936,58	0,496
936,76	2,561
936,93	1,583
937,10	2,100
937,27	2,180
937,44	1,113
937,61	2,533
937,78	2,290
937,95	2,181
938,13	1,777
938,30	2,310
938,47	2,740
938,64	2,263
938,81	2,223
938,98	1,474
939,15	2,526
939,32	2,546
939,49	2,332
939,66	3,011
939,84	2,233
940,01	2,455
940,18	1,933
940,35	2,069
940,52	1,135
940,69	2,902
940,86	1,626
941,03	1,318
941,20	3,322
941,37	2,403
941,54	0,652
941,71	1,088
941,89	2,473
942,06	1,549
942,23	1,760
942,40	1,900
942,57	2,834
942,74	2,435
942,91	1,158
943,08	2,788
943,25	1,930
943,42	2,249
943,59	1,841
943,76	3,802
943,93	2,100
944,10	2,097
944,27	1,640
944,44	2,229
944,61	1,079
944,79	2,014
944,96	3,071
945,13	1,413
945,30	1,050
945,47	2,935
945,64	2,884
945,81	3,345
945,98	2,861
946,15	2,997
946,32	3,042
946,49	2,521
946,66	2,685
946,83	3,200
947,00	2,095
947,17	3,095
947,34	2,623
947,51	1,722
947,68	3,587
947,85	1,933
948,02	2,831
948,19	3,575
948,36	3,385
948,53	3,311
948,70	4,120
948,87	3,710
949,04	3,153
949,21	2,361
949,38	3,745
949,55	3,816
949,72	2,798
949,89	4,420
950,06	2,685
950,23	3,872
950,40	3,855
950,57	1,423
950,74	4,594
950,91	2,991
951,08	4,223
951,25	4,868
951,42	5,319
951,59	2,039
951,76	3,785
951,93	4,471
952,10	4,091
952,27	3,069
952,44	3,416
952,61	3,537
952,77	4,474
952,94	5,413
953,11	7,069
953,28	4,235
953,45	5,127
953,62	4,337
953,79	4,352
953,96	5,697
954,13	4,501
954,30	8,022
954,47	5,088
954,64	4,949
954,81	5,843
954,98	6,138
955,15	5,757
955,32	7,802
955,49	6,156
955,65	7,126
955,82	6,289
955,99	5,816
956,16	7,753
956,33	6,416
956,50	6,891
956,67	8,613
956,84	7,407
957,01	7,956
957,18	6,909
957,35	8,463
957,52	6,711
957,68	6,417
957,85	9,787
958,02	8,527
958,19	8,790
958,36	14,539
958,53	11,705
958,70	7,511
958,87	11,155
959,04	11,953
959,21	13,636
959,37	9,416
959,54	16,207
959,71	5,775
959,88	8,233
960,05	13,687
960,22	6,864
960,39	6,933
960,56	8,354
960,72	13,802
960,89	21,420
961,06	20,637
961,23	14,410
961,40	16,017
961,57	13,124
961,74	11,076
961,90	15,938
962,07	18,569
962,24	16,098
962,41	15,243
962,58	19,966
962,75	15,575
962,92	24,486
963,08	20,182
963,25	18,198
963,42	8,213
963,59	25,413
963,76	27,640
963,93	25,858
964,10	25,910
964,26	20,833
964,43	39,793
964,60	29,534
964,77	32,289
964,94	25,852
965,10	38,095
965,27	33,681
965,44	30,130
965,61	27,273
965,78	26,518
965,95	34,431
966,11	22,601
966,28	40,520
966,45	31,464
966,62	30,769
966,79	33,469
966,95	37,612
967,12	49,842
967,29	42,361
967,46	49,621
967,63	40,000
967,79	59,459
967,96	38,961
968,13	48,000
968,30	54,435
968,47	42,268
968,63	59,009
968,80	56,881
968,97	64,904
969,14	56,395
969,31	75,000
969,47	60,000
969,64	74,242
969,81	79,793
969,98	58,242
970,14	57,669
970,31	76,101
970,48	58,333
970,65	59,763
970,81	84,247
970,98	97,080
971,15	97,959
971,32	86,719
971,48	94,558
971,65	56,154
971,82	111,765
971,99	144,828
972,15	109,155
972,32	115,315
972,49	85,315
972,66	109,091
972,82	115,116
972,99	115,447
973,16	129,885
973,33	131,250
973,49	134,737
973,66	80,645
973,83	90,291
974,00	117,442
974,16	112,745
974,33	172,807
974,50	98,947
974,67	145,263
974,83	102,381
975,00	121,053
975,17	159,341
975,33	93,258
975,50	164,179
975,67	271,429
975,84	176,119
976,00	125,843
976,17	193,443
976,34	107,000
976,50	158,427
976,67	152,427
976,84	4366,667
977,00	234,694
977,17	242,222
977,34	173,626
977,50	173,134
977,67	258,929
977,84	211,290
978,01	168,085
978,17	688,889
978,34	258,333
978,51	255,882
978,67	196,053
978,84	121,094
979,01	383,784
979,17	174,359
979,34	117,123
979,51	271,429
979,67	165,432
979,84	334,694
980,01	171,111
980,17	223,944
980,34	481,481
980,51	217,391
980,67	171,765
980,84	513,333
981,01	440,000
981,17	456,000
981,34	1022,222
981,50	216,176
981,67	228,814
981,84	5350,000
982,00	476,667
982,17	211,905
982,34	144,444
982,50	960,000
982,67	192,708
982,84	2880,000
983,00	1433,333
983,17	170,149
983,33	267,241
983,50	1180,000
983,67	-355,172
983,83	342,424
984,00	-1528,571
984,17	983,333
984,33	-6450,000
984,50	354,286
984,66	330,435
984,83	137,662
985,00	-408,333
985,16	493,103
985,33	682,353
985,49	661,111
985,66	467,647
985,83	343,478
985,99	356,410
986,16	-2575,000
986,32	650,000
986,49	6800,000
986,66	393,939
986,82	908,333
986,99	288,679
987,15	-394,737
987,32	-314,286
987,49	284,000
987,65	5850,000
987,82	350,000
987,98	326,531
988,15	416,667
988,31	1070,000
988,48	-1316,667
988,65	378,571
988,81	394,444
988,98	492,683
989,14	342,857
989,31	547,619
989,47	361,765
989,64	-1046,154
989,80	1112,500
989,97	354,054
990,14	-217,391
990,30	-509,091
990,47	346,939
990,63	405,556
990,80	242,000
990,96	-550,000
991,13	353,125
991,29	427,586
991,46	0,000
991,62	-992,308
991,79	925,000
991,95	14300,000
992,12	-1790,000
992,29	-912,500
992,45	210,588
992,62	402,326
992,78	336,364
992,95	-600,000
993,11	396,429
993,28	1210,000
993,44	-1190,000
993,61	-787,500
993,77	-2625,000
993,94	-5900,000
994,10	-128,000
994,27	868,421
994,43	406,977
994,60	0,000
994,76	2300,000
994,93	530,000
995,09	-523,529
995,26	1388,889
995,42	231,373
995,59	709,524
995,75	915,385
995,92	2428,571
996,08	377,778
996,25	-1487,500
996,41	-5150,000
996,58	913,333
996,74	340,909
996,91	537,931
997,07	0,000
997,23	10900,000
997,40	-17200,000
997,56	-807,692
997,73	-1512,500
997,89	400,000
998,06	1146,154
998,22	-644,444
998,39	668,000
998,55	1955,556
998,72	-1487,500
998,88	-260,000
999,05	-147,436
999,21	383,333
999,37	-880,000
999,54	-1166,667
999,70	-356,667
999,87	912,500
1000,03	438,462
1000,20	270,833
1000,36	0,000
1000,52	458,333
1000,69	-638,095
1000,85	-1190,000
1001,02	-387,500
1001,18	3150,000
1001,35	823,077
1001,51	758,824
1001,67	-1038,462
1001,84	-3260,000
1002,00	418,919
1002,17	990,909
1002,33	-3100,000
1002,50	500,000
1002,66	-992,308
1002,82	340,000
1002,99	985,714
1003,15	-1742,857
1003,32	-990,909
1003,48	353,571
1003,64	986,667
1003,81	400,000
1003,97	-4950,000
1004,14	981,818
1004,30	543,333
1004,46	-686,667
1004,63	935,714
1004,79	355,556
1004,95	720,000
1005,12	6350,000
1005,28	627,586
1005,45	443,243
1005,61	472,414
1005,77	-287,500
1005,94	-671,429
1006,10	-5750,000
1006,26	1000,000
1006,43	-342,308
1006,59	-1009,091
1006,76	1135,714
1006,92	1411,111
1007,08	15300,000
1007,25	-325,926
1007,41	482,759
1007,57	5550,000
1007,74	1200,000
1007,90	-310,345
1008,06	286,957
1008,23	1117,647
1008,39	-693,750
1008,55	-442,308
1008,72	-1714,286
1008,88	0,000
1009,04	343,902
1009,21	-352,632
1009,37	-600,000
1009,53	300,000
1009,70	3666,667
1009,86	-842,857
1010,02	4666,667
1010,19	536,364
1010,35	245,588
1010,51	-6750,000
1010,68	-1712,500
1010,84	-206,818
1011,00	806,250
1011,17	-345,455
1011,33	0,000
1011,49	-1013,333
1011,66	771,429
1011,82	506,452
1011,98	785,714
1012,14	-718,182
1012,31	330,769
1012,47	0,000
1012,63	1816,667
1012,80	857,143
1012,96	-775,000
1013,12	-1716,667
1013,29	638,889
1013,45	400,000
1013,61	4866,667
1013,77	-162,500
1013,94	2240,000
1014,10	216,949
1014,26	-3775,000
1014,43	-412,000
1014,59	805,000
1014,75	-622,222
1014,91	-680,000
1015,08	413,889
1015,24	8100,000
1015,40	605,882
1015,56	-14500,000
1015,73	259,524
1015,89	881,818
1016,05	2975,000
1016,21	-1187,500
1016,38	852,632
1016,54	1415,385
1016,70	-3100,000
1016,86	446,875
1017,03	987,500
1017,19	-838,462
1017,35	-488,235
1017,51	-1900,000
1017,68	-580,000
1017,84	-1800,000
1018,00	314,286
1018,16	492,308
1018,33	-1771,429
1018,49	-966,667
1018,65	-243,243
1018,81	305,128
1018,97	-1771,429
1019,14	-3533,333
1019,30	-369,231
1019,46	0,000
1019,62	-494,118
1019,79	-4366,667
1019,95	1066,667
1020,11	8650,000
1020,27	-381,481
1020,43	-357,692
1020,60	1666,667
1020,76	833,333
1020,92	980,000
1021,08	665,000
1021,24	1120,000
1021,41	1188,889
1021,57	1737,500
1021,73	1269,231
1021,89	3240,000
1022,05	-485,714
1022,21	590,000
1022,38	-758,333
1022,54	-2250,000
1022,70	335,556
1022,86	-1575,000
1023,02	504,167
1023,19	1900,000
1023,35	5066,667
1023,51	612,500
1023,67	407,407
1023,83	-662,500
1023,99	384,211
1024,16	-407,692
1024,32	-1322,222
1024,48	-1050,000
1024,64	288,095
1024,80	513,043
1024,96	400,000
1025,12	466,667
1025,29	514,286
1025,45	336,842
1025,61	572,222
1025,77	-2720,000
1025,93	-7900,000
1026,09	-1600,000
1026,26	1125,000
1026,42	906,250
1026,58	524,242
1026,74	2616,667
1026,90	420,000
1027,06	435,714
1027,22	1042,857
1027,38	263,462
1027,55	4333,333
1027,71	1733,333
1027,87	-320,000
1028,03	1240,000
1028,19	403,125
1028,35	865,000
1028,51	1280,000
1028,67	641,667
1028,83	-2100,000
1029,00	-273,810
1029,16	1370,000
1029,32	-396,429
1029,48	320,000
1029,64	361,111
1029,80	5300,000
1029,96	986,667
1030,12	482,609
1030,28	-4200,000
1030,44	-630,769
1030,61	-612,500
1030,77	-222,857
1030,93	-933,333
1031,09	1883,333
1031,25	-9700,000
1031,41	-260,000
1031,57	480,769
1031,73	850,000
1031,89	-1363,636
1032,05	-333,333
1032,21	909,091
1032,37	-192,593
1032,53	-992,857
1032,69	-395,833
1032,86	496,296
1033,02	-210,000
1033,18	-818,750
1033,34	489,474
1033,50	-6050,000
1033,66	-341,463
1033,82	495,652
1033,98	-403,704
1034,14	242,308
1034,30	509,677
1034,46	-3033,333
1034,62	715,000
1034,78	-580,952
1034,94	389,474
1035,10	-630,769
1035,26	-225,581
1035,42	-286,207
1035,58	-511,111
1035,74	825,000
1035,90	-1007,692
1036,06	-1900,000
1036,22	1416,667
1036,38	-794,118
1036,54	-383,333
1036,70	-278,788
1036,86	10300,000
1037,02	727,778
1037,18	805,263
1037,34	173,333
1037,50	-158,537
1037,66	-535,294
1037,82	2900,000
1037,98	-411,111
1038,14	-384,000
1038,30	-1000,000
1038,46	-842,857
1038,62	534,783
1038,78	-2833,333
1038,94	-536,842
1039,10	400,000
1039,26	466,667
1039,42	-625,000
1039,58	1700,000
1039,74	-457,895
1039,90	321,875
1040,06	-388,462
>>>>>End Processed Spectral Data<<<<<
