SpectraSuite Data File
++++++++++++++++++++++++++++++++++++
Date: Wed Feb 01 16:31:25 EET 2017
User: optolab
Dark Spectrum Present: Yes
Reference Spectrum Present: Yes
Number of Sampled Component Spectra: 1
Spectrometers: USB4C02475
Integration Time (usec): 100000 (USB4C02475)
Spectra Averaged: 1 (USB4C02475)
Boxcar Smoothing: 0 (USB4C02475)
Correct for Electrical Dark: No (USB4C02475)
Strobe/Lamp Enabled: No (USB4C02475)
Correct for Detector Non-linearity: No (USB4C02475)
Correct for Stray Light: No (USB4C02475)
Number of Pixels in Processed Spectrum: 3648
>>>>>Begin Processed Spectral Data<<<<<
344,91	3550,000
345,13	3550,000
345,35	3550,000
345,57	0,000
345,79	468,421
346,00	-2166,667
346,22	-2200,000
346,44	467,647
346,66	-633,333
346,87	-11400,000
347,09	418,182
347,31	-563,636
347,53	-320,513
347,74	275,385
347,96	521,212
348,18	905,263
348,40	464,516
348,61	935,294
348,83	364,286
349,05	325,490
349,27	-5600,000
349,48	761,538
349,70	-431,034
349,92	358,065
350,14	335,849
350,35	376,000
350,57	3025,000
350,79	512,000
351,01	-928,571
351,22	216,667
351,44	1023,077
351,66	-476,000
351,87	-490,476
352,09	228,846
352,31	226,230
352,53	235,938
352,74	402,778
352,96	261,039
353,18	647,368
353,40	372,000
353,61	342,222
353,83	414,706
354,05	909,091
354,26	2533,333
354,48	294,000
354,70	363,636
354,92	-296,552
355,13	217,172
355,35	352,273
355,57	720,833
355,78	246,988
356,00	-3725,000
356,22	530,769
356,44	5850,000
356,65	338,636
356,87	519,231
357,09	516,667
357,30	295,556
357,52	298,276
357,74	765,000
357,95	310,256
358,17	270,492
358,39	259,677
358,60	313,514
358,82	612,500
359,04	477,778
359,26	440,000
359,47	9500,000
359,69	385,000
359,91	493,939
360,12	633,333
360,34	712,500
360,56	-111,111
360,77	3075,000
360,99	928,571
361,21	326,000
361,42	3800,000
361,64	251,020
361,86	289,231
362,07	-474,194
362,29	249,333
362,51	-747,059
362,72	652,000
362,94	414,706
363,16	358,140
363,37	-1078,571
363,59	534,615
363,81	300,000
364,02	805,556
364,24	525,000
364,46	3700,000
364,67	1427,273
364,89	1814,286
365,11	222,857
365,32	541,379
365,54	294,444
365,76	293,878
365,97	470,588
366,19	277,586
366,41	763,636
366,62	392,593
366,84	269,767
367,05	391,837
367,27	1883,333
367,49	-800,000
367,70	752,941
367,92	281,967
368,14	281,250
368,35	-11900,000
368,57	520,000
368,79	475,862
369,00	358,696
369,22	-1500,000
369,43	229,412
369,65	295,161
369,87	408,108
370,08	189,157
370,30	301,786
370,51	280,328
370,73	213,333
370,95	253,226
371,16	242,857
371,38	386,667
371,60	1562,500
371,81	209,375
372,03	900,000
372,24	436,667
372,46	267,925
372,68	172,857
372,89	369,697
373,11	453,846
373,32	377,273
373,54	-907,692
373,76	723,077
373,97	893,333
374,19	759,091
374,40	251,562
374,62	-4300,000
374,84	4625,000
375,05	660,714
375,27	340,000
375,48	-11800,000
375,70	190,667
375,92	260,714
376,13	462,500
376,35	252,055
376,56	906,250
376,78	233,333
376,99	389,286
377,21	375,000
377,43	233,333
377,64	227,536
377,86	424,138
378,07	328,205
378,29	-1812,500
378,51	400,000
378,72	222,917
378,94	-1100,000
379,15	409,091
379,37	770,588
379,58	244,615
379,80	566,667
380,01	837,500
380,23	360,784
380,45	2260,000
380,66	4400,000
380,88	325,000
381,09	230,000
381,31	187,778
381,52	311,765
381,74	1466,667
381,95	659,091
382,17	488,462
382,39	476,190
382,60	306,122
382,82	379,487
383,03	330,769
383,25	364,516
383,46	318,182
383,68	440,741
383,89	760,000
384,11	551,613
384,32	-3500,000
384,54	822,222
384,76	-4233,333
384,97	396,970
385,19	451,724
385,40	241,176
385,62	247,368
385,83	330,952
386,05	270,588
386,26	222,000
386,48	216,092
386,69	270,833
386,91	650,000
387,12	245,763
387,34	212,069
387,55	238,710
387,77	559,375
387,98	550,000
388,20	176,087
388,41	517,647
388,63	8700,000
388,84	206,557
389,06	285,714
389,27	921,053
389,49	402,778
389,70	308,163
389,92	413,333
390,13	244,898
390,35	327,451
390,56	309,259
390,78	348,148
390,99	1220,000
391,21	526,316
391,42	295,556
391,64	375,610
391,85	158,621
392,07	284,091
392,28	173,333
392,50	354,545
392,71	-1175,000
392,93	246,154
393,14	530,556
393,36	253,061
393,57	134,586
393,79	888,889
394,00	282,979
394,22	150,685
394,43	231,325
394,65	300,000
394,86	1325,000
395,08	642,857
395,29	207,547
395,50	630,769
395,72	466,667
395,93	804,762
396,15	184,507
396,36	207,353
396,58	265,000
396,79	217,500
397,01	264,000
397,22	286,111
397,44	186,364
397,65	247,368
397,87	271,429
398,08	253,061
398,29	362,500
398,51	189,286
398,72	241,463
398,94	224,615
399,15	385,714
399,37	217,544
399,58	152,747
399,80	527,273
400,01	246,296
400,22	338,095
400,44	220,988
400,65	496,429
400,87	207,353
401,08	205,714
401,30	245,652
401,51	226,316
401,72	300,000
401,94	184,810
402,15	615,000
402,37	180,672
402,58	794,444
402,80	194,286
403,01	253,521
403,22	1072,727
403,44	242,029
403,65	194,643
403,87	227,143
404,08	430,769
404,30	198,824
404,51	-4133,333
404,72	194,286
404,94	158,824
405,15	210,000
405,37	173,418
405,58	158,824
405,79	156,098
406,01	321,951
406,22	203,448
406,44	255,319
406,65	214,035
406,86	258,333
407,08	125,316
407,29	144,660
407,51	162,195
407,72	162,963
407,93	164,130
408,15	72,650
408,36	186,047
408,58	143,299
408,79	86,667
409,00	140,625
409,22	180,952
409,43	145,570
409,64	88,820
409,86	72,327
410,07	103,077
410,29	59,701
410,50	107,801
410,71	102,679
410,93	52,866
411,14	120,930
411,35	92,857
411,57	82,237
411,78	78,125
412,00	69,427
412,21	114,839
412,42	73,545
412,64	66,094
412,85	76,289
413,06	49,390
413,28	30,180
413,49	72,038
413,70	47,101
413,92	55,731
414,13	32,780
414,34	42,912
414,56	31,469
414,77	57,806
414,98	41,611
415,20	34,602
415,41	48,725
415,63	44,279
415,84	42,222
416,05	31,868
416,27	41,860
416,48	45,506
416,69	42,035
416,91	38,108
417,12	32,086
417,33	40,421
417,55	48,692
417,76	54,620
417,97	41,701
418,19	40,954
418,40	45,745
418,61	50,741
418,83	49,818
419,04	45,268
419,25	53,427
419,46	48,872
419,68	57,460
419,89	47,839
420,10	52,925
420,32	45,704
420,53	55,640
420,74	45,743
420,96	50,375
421,17	44,573
421,38	49,946
421,60	41,501
421,81	41,572
422,02	43,469
422,23	38,592
422,45	43,330
422,66	42,127
422,87	44,464
423,09	40,588
423,30	46,661
423,51	46,457
423,73	46,062
423,94	45,518
424,15	44,082
424,36	46,062
424,58	46,625
424,79	46,408
425,00	46,254
425,22	50,723
425,43	51,169
425,64	50,968
425,85	50,435
426,07	50,752
426,28	50,798
426,49	51,899
426,71	47,458
426,92	45,531
427,13	49,626
427,34	50,465
427,56	50,699
427,77	45,648
427,98	51,004
428,19	47,446
428,41	45,763
428,62	46,378
428,83	47,254
429,04	46,509
429,26	46,536
429,47	45,247
429,68	42,716
429,89	44,444
430,11	42,534
430,32	42,828
430,53	42,205
430,74	41,023
430,96	41,025
431,17	40,615
431,38	40,188
431,59	40,717
431,81	42,016
432,02	40,162
432,23	42,535
432,44	42,613
432,66	45,217
432,87	46,437
433,08	47,859
433,29	49,707
433,51	51,843
433,72	54,673
433,93	56,541
434,14	59,764
434,35	63,314
434,57	64,333
434,78	67,202
434,99	66,018
435,20	66,697
435,42	67,553
435,63	68,121
435,84	69,635
436,05	70,075
436,26	69,937
436,48	70,548
436,69	73,081
436,90	73,882
437,11	74,262
437,32	75,198
437,54	75,700
437,75	76,811
437,96	77,245
438,17	76,468
438,38	77,323
438,60	78,305
438,81	76,092
439,02	76,733
439,23	72,813
439,44	72,014
439,66	70,822
439,87	69,294
440,08	65,392
440,29	64,633
440,50	63,594
440,72	60,940
440,93	60,058
441,14	59,152
441,35	58,415
441,56	57,581
441,77	57,081
441,99	56,810
442,20	56,607
442,41	56,513
442,62	57,188
442,83	57,788
443,04	57,319
443,26	58,019
443,47	57,457
443,68	56,815
443,89	58,254
444,10	58,885
444,31	59,173
444,53	60,364
444,74	60,464
444,95	61,303
445,16	61,910
445,37	61,809
445,58	63,611
445,80	64,444
446,01	64,703
446,22	65,847
446,43	65,614
446,64	64,857
446,85	64,607
447,06	63,833
447,28	60,957
447,49	59,521
447,70	58,582
447,91	57,008
448,12	54,749
448,33	52,517
448,54	50,954
448,76	49,113
448,97	47,058
449,18	45,053
449,39	42,676
449,60	41,983
449,81	40,740
450,02	39,458
450,23	39,124
450,45	37,783
450,66	37,152
450,87	36,788
451,08	36,194
451,29	35,788
451,50	34,828
451,71	34,137
451,92	33,404
452,13	31,721
452,35	30,627
452,56	29,300
452,77	27,768
452,98	25,720
453,19	24,584
453,40	23,496
453,61	21,443
453,82	20,529
454,03	18,830
454,25	17,421
454,46	15,901
454,67	14,769
454,88	13,312
455,09	11,616
455,30	10,349
455,51	10,257
455,72	8,273
455,93	7,552
456,14	6,434
456,35	6,102
456,56	5,075
456,78	4,462
456,99	4,034
457,20	3,298
457,41	2,772
457,62	2,445
457,83	2,279
458,04	2,039
458,25	1,678
458,46	1,187
458,67	1,550
458,88	1,497
459,09	1,025
459,30	1,081
459,51	0,872
459,73	0,674
459,94	1,092
460,15	0,713
460,36	0,892
460,57	0,677
460,78	0,812
460,99	0,603
461,20	0,784
461,41	0,656
461,62	0,647
461,83	0,867
462,04	0,630
462,25	0,694
462,46	0,641
462,67	0,567
462,88	0,709
463,09	0,630
463,30	0,581
463,51	0,635
463,72	0,677
463,93	0,537
464,15	0,751
464,36	0,507
464,57	0,474
464,78	0,620
464,99	0,484
465,20	0,548
465,41	0,488
465,62	0,558
465,83	0,565
466,04	0,543
466,25	0,558
466,46	0,622
466,67	0,432
466,88	0,552
467,09	0,596
467,30	0,382
467,51	0,791
467,72	0,598
467,93	0,689
468,14	0,528
468,35	0,498
468,56	0,563
468,77	0,661
468,98	0,551
469,19	0,597
469,40	0,654
469,61	0,481
469,82	0,350
470,03	0,498
470,24	0,667
470,45	0,654
470,66	0,339
470,87	0,476
471,08	0,659
471,29	0,590
471,50	0,581
471,71	0,683
471,92	0,650
472,13	0,573
472,34	0,579
472,55	0,696
472,76	0,659
472,97	0,653
473,18	0,407
473,39	0,590
473,60	0,679
473,81	0,493
474,01	0,608
474,22	0,471
474,43	0,869
474,64	0,661
474,85	0,528
475,06	0,593
475,27	0,621
475,48	0,593
475,69	0,534
475,90	0,743
476,11	0,794
476,32	0,643
476,53	0,763
476,74	0,602
476,95	0,663
477,16	0,567
477,37	0,698
477,58	0,601
477,79	0,924
478,00	0,725
478,21	0,674
478,41	0,819
478,62	0,551
478,83	0,931
479,04	0,705
479,25	0,585
479,46	0,707
479,67	0,686
479,88	1,006
480,09	0,652
480,30	0,961
480,51	1,049
480,72	0,752
480,93	0,920
481,14	0,789
481,34	0,629
481,55	0,696
481,76	0,779
481,97	0,835
482,18	0,813
482,39	0,643
482,60	0,660
482,81	0,806
483,02	0,542
483,23	0,686
483,44	0,675
483,65	0,874
483,85	0,428
484,06	0,747
484,27	0,769
484,48	0,595
484,69	0,789
484,90	0,867
485,11	0,702
485,32	0,965
485,53	0,702
485,73	1,086
485,94	0,748
486,15	0,827
486,36	0,665
486,57	0,830
486,78	0,821
486,99	0,865
487,20	0,886
487,41	0,963
487,61	0,804
487,82	0,920
488,03	0,839
488,24	0,959
488,45	0,909
488,66	1,002
488,87	0,968
489,08	1,153
489,28	1,484
489,49	1,642
489,70	1,719
489,91	2,232
490,12	2,666
490,33	3,163
490,54	3,702
490,74	4,790
490,95	5,843
491,16	6,593
491,37	7,834
491,58	8,673
491,79	10,013
492,00	11,374
492,20	12,695
492,41	14,252
492,62	15,465
492,83	17,291
493,04	19,197
493,25	21,258
493,45	22,731
493,66	24,620
493,87	26,922
494,08	28,786
494,29	30,431
494,50	32,811
494,70	35,169
494,91	37,836
495,12	39,670
495,33	42,371
495,54	45,198
495,75	47,711
495,95	49,170
496,16	53,437
496,37	55,971
496,58	58,647
496,79	61,135
496,99	63,167
497,20	65,563
497,41	67,092
497,62	68,181
497,83	70,763
498,04	71,147
498,24	71,931
498,45	72,223
498,66	73,287
498,87	73,926
499,08	74,310
499,28	75,537
499,49	75,331
499,70	75,453
499,91	74,849
500,12	74,556
500,32	73,479
500,53	72,491
500,74	71,889
500,95	71,161
501,15	69,938
501,36	68,988
501,57	69,034
501,78	66,988
501,99	65,864
502,19	64,870
502,40	62,912
502,61	62,747
502,82	61,913
503,02	60,072
503,23	59,706
503,44	58,611
503,65	57,294
503,86	56,431
504,06	56,101
504,27	55,894
504,48	54,736
504,69	54,053
504,89	53,607
505,10	53,423
505,31	53,005
505,52	52,612
505,72	52,611
505,93	52,391
506,14	52,275
506,35	52,492
506,55	52,102
506,76	52,202
506,97	52,124
507,18	52,822
507,38	53,339
507,59	51,939
507,80	52,369
508,01	52,453
508,21	51,669
508,42	52,454
508,63	51,901
508,84	52,128
509,04	52,116
509,25	51,897
509,46	51,399
509,67	50,878
509,87	50,861
510,08	49,925
510,29	50,202
510,49	50,481
510,70	49,380
510,91	48,576
511,12	49,187
511,32	48,729
511,53	47,687
511,74	47,707
511,94	47,525
512,15	47,701
512,36	48,204
512,57	48,217
512,77	49,021
512,98	49,210
513,19	50,087
513,39	50,808
513,60	51,151
513,81	52,840
514,01	53,806
514,22	55,357
514,43	55,852
514,64	57,169
514,84	58,888
515,05	60,343
515,26	62,050
515,46	63,632
515,67	65,545
515,88	66,728
516,08	69,218
516,29	70,798
516,50	71,066
516,70	72,703
516,91	74,390
517,12	75,912
517,32	77,592
517,53	78,355
517,74	78,495
517,95	78,780
518,15	79,053
518,36	79,584
518,57	78,924
518,77	78,669
518,98	78,243
519,19	76,973
519,39	75,435
519,60	75,105
519,80	73,823
520,01	72,514
520,22	70,514
520,42	69,071
520,63	67,250
520,84	64,927
521,04	63,951
521,25	61,306
521,46	59,257
521,66	57,312
521,87	55,125
522,08	53,841
522,28	51,405
522,49	49,954
522,70	47,891
522,90	46,360
523,11	45,343
523,31	43,535
523,52	41,311
523,73	39,015
523,93	36,657
524,14	35,671
524,35	33,064
524,55	31,411
524,76	30,202
524,97	28,536
525,17	26,406
525,38	24,486
525,58	23,547
525,79	21,828
526,00	19,853
526,20	18,275
526,41	17,498
526,61	16,398
526,82	14,755
527,03	13,847
527,23	12,845
527,44	11,772
527,64	11,645
527,85	10,959
528,06	10,455
528,26	9,631
528,47	8,890
528,68	7,985
528,88	7,102
529,09	6,417
529,29	5,874
529,50	4,961
529,70	4,498
529,91	4,185
530,12	3,540
530,32	2,848
530,53	2,535
530,73	2,144
530,94	1,924
531,15	1,544
531,35	1,202
531,56	1,099
531,76	0,987
531,97	0,984
532,17	0,801
532,38	0,835
532,59	0,824
532,79	0,782
533,00	0,855
533,20	0,634
533,41	0,489
533,61	0,769
533,82	0,690
534,03	0,515
534,23	0,874
534,44	0,636
534,64	0,648
534,85	0,715
535,05	0,520
535,26	0,496
535,46	0,753
535,67	0,654
535,88	0,620
536,08	0,651
536,29	0,606
536,49	0,592
536,70	0,645
536,90	0,558
537,11	0,780
537,31	0,496
537,52	0,497
537,72	0,718
537,93	0,681
538,13	0,689
538,34	0,798
538,55	0,792
538,75	0,491
538,96	0,590
539,16	0,593
539,37	0,636
539,57	0,608
539,78	0,587
539,98	0,756
540,19	0,719
540,39	0,601
540,60	0,665
540,80	0,576
541,01	0,585
541,21	0,533
541,42	0,787
541,62	0,729
541,83	0,630
542,03	0,768
542,24	0,403
542,44	0,525
542,65	0,497
542,85	0,702
543,06	0,410
543,26	0,595
543,47	0,404
543,67	0,819
543,88	0,771
544,08	0,496
544,29	0,683
544,49	0,674
544,70	0,635
544,90	0,637
545,11	0,466
545,31	0,720
545,52	0,377
545,72	0,829
545,93	0,392
546,13	0,824
546,34	0,523
546,54	0,517
546,75	0,638
546,95	0,574
547,15	0,425
547,36	0,375
547,56	0,736
547,77	0,637
547,97	0,619
548,18	0,626
548,38	0,435
548,59	0,587
548,79	0,568
549,00	0,469
549,20	0,614
549,41	0,486
549,61	0,413
549,81	0,407
550,02	0,752
550,22	0,381
550,43	0,555
550,63	0,623
550,84	0,418
551,04	0,477
551,25	0,743
551,45	0,433
551,65	0,535
551,86	0,532
552,06	0,549
552,27	0,607
552,47	0,783
552,68	0,604
552,88	0,520
553,08	0,390
553,29	0,518
553,49	0,450
553,70	0,537
553,90	0,394
554,11	0,454
554,31	0,534
554,51	0,713
554,72	0,692
554,92	0,664
555,13	0,655
555,33	0,770
555,53	0,634
555,74	0,663
555,94	0,612
556,15	0,584
556,35	0,568
556,56	0,603
556,76	0,645
556,96	0,528
557,17	0,607
557,37	0,811
557,58	0,606
557,78	0,502
557,98	0,476
558,19	0,508
558,39	0,663
558,59	0,540
558,80	0,671
559,00	0,524
559,21	0,334
559,41	0,544
559,61	0,544
559,82	0,633
560,02	0,582
560,23	0,678
560,43	0,521
560,63	0,572
560,84	0,550
561,04	0,457
561,24	0,565
561,45	0,638
561,65	0,587
561,85	0,724
562,06	0,571
562,26	0,436
562,47	0,560
562,67	0,693
562,87	0,590
563,08	0,543
563,28	0,451
563,48	0,740
563,69	0,489
563,89	0,723
564,09	0,639
564,30	0,449
564,50	0,645
564,70	0,609
564,91	0,720
565,11	0,695
565,31	0,561
565,52	0,537
565,72	0,814
565,92	0,777
566,13	0,534
566,33	0,595
566,53	0,480
566,74	0,597
566,94	0,775
567,14	0,496
567,35	0,466
567,55	0,457
567,75	0,769
567,96	0,679
568,16	0,610
568,36	0,706
568,57	0,767
568,77	0,796
568,97	0,837
569,18	0,823
569,38	0,874
569,58	0,935
569,79	0,887
569,99	0,931
570,19	1,087
570,39	1,197
570,60	1,065
570,80	1,318
571,00	1,546
571,21	1,859
571,41	1,880
571,61	2,100
571,82	2,363
572,02	2,880
572,22	3,164
572,42	3,684
572,63	4,221
572,83	5,168
573,03	5,508
573,24	6,329
573,44	6,956
573,64	8,191
573,84	9,551
574,05	10,814
574,25	12,232
574,45	13,030
574,66	14,555
574,86	16,335
575,06	18,178
575,26	19,160
575,47	21,355
575,67	23,340
575,87	25,139
576,07	26,849
576,28	28,790
576,48	30,545
576,68	32,129
576,88	33,617
577,09	35,108
577,29	36,359
577,49	38,656
577,69	39,610
577,90	40,715
578,10	41,039
578,30	42,295
578,50	42,880
578,71	43,715
578,91	43,673
579,11	44,601
579,31	44,836
579,52	45,436
579,72	44,850
579,92	44,513
580,12	45,170
580,33	46,083
580,53	46,078
580,73	45,938
580,93	46,484
581,13	46,811
581,34	47,467
581,54	48,202
581,74	48,305
581,94	49,794
582,15	50,313
582,35	52,343
582,55	52,776
582,75	54,515
582,95	55,887
583,16	57,571
583,36	59,304
583,56	61,629
583,76	62,722
583,96	65,266
584,17	68,541
584,37	71,834
584,57	73,578
584,77	76,489
584,97	79,278
585,18	81,106
585,38	82,847
585,58	84,120
585,78	85,143
585,98	86,730
586,19	88,162
586,39	89,383
586,59	90,350
586,79	91,441
586,99	92,081
587,20	91,771
587,40	93,688
587,60	93,484
587,80	94,241
588,00	93,294
588,20	93,043
588,41	95,340
588,61	95,116
588,81	96,125
589,01	96,090
589,21	94,871
589,41	95,746
589,62	95,487
589,82	96,447
590,02	95,955
590,22	96,360
590,42	97,394
590,62	97,327
590,83	95,159
591,03	96,796
591,23	96,180
591,43	95,771
591,63	95,102
591,83	95,995
592,03	93,975
592,24	96,017
592,44	95,327
592,64	95,794
592,84	96,489
593,04	94,890
593,24	95,512
593,44	95,782
593,65	95,123
593,85	95,826
594,05	94,334
594,25	93,877
594,45	93,476
594,65	92,609
594,85	93,123
595,06	93,361
595,26	92,338
595,46	92,405
595,66	92,916
595,86	92,423
596,06	91,419
596,26	91,408
596,46	91,981
596,66	92,250
596,87	91,940
597,07	91,644
597,27	92,791
597,47	92,926
597,67	92,536
597,87	92,441
598,07	91,731
598,27	93,249
598,47	93,145
598,67	93,125
598,88	93,917
599,08	93,303
599,28	94,371
599,48	93,294
599,68	93,317
599,88	93,990
600,08	93,496
600,28	94,254
600,48	95,159
600,68	93,812
600,88	94,511
601,09	94,549
601,29	92,890
601,49	93,771
601,69	93,129
601,89	93,273
602,09	94,009
602,29	93,428
602,49	93,309
602,69	94,045
602,89	93,975
603,09	93,986
603,29	92,645
603,49	92,488
603,69	91,557
603,90	91,243
604,10	91,049
604,30	90,583
604,50	89,927
604,70	89,860
604,90	89,319
605,10	88,454
605,30	87,655
605,50	86,634
605,70	85,955
605,90	84,504
606,10	82,654
606,30	82,409
606,50	81,294
606,70	79,947
606,90	78,690
607,10	77,820
607,30	77,469
607,50	75,978
607,70	74,928
607,90	73,388
608,10	73,082
608,30	72,301
608,50	71,751
608,70	70,418
608,90	70,314
609,11	69,617
609,31	69,173
609,51	67,940
609,71	67,730
609,91	66,300
610,11	65,100
610,31	64,267
610,51	63,825
610,71	62,471
610,91	61,835
611,11	59,900
611,31	59,316
611,51	58,460
611,71	56,378
611,91	55,674
612,11	55,408
612,31	53,523
612,51	51,973
612,71	51,149
612,91	49,570
613,11	49,668
613,31	48,172
613,51	47,160
613,71	45,599
613,91	45,364
614,11	44,855
614,31	43,572
614,50	44,154
614,70	43,035
614,90	42,315
615,10	42,144
615,30	41,196
615,50	41,030
615,70	41,186
615,90	41,326
616,10	41,469
616,30	41,231
616,50	42,125
616,70	41,114
616,90	42,202
617,10	42,530
617,30	42,161
617,50	42,420
617,70	42,412
617,90	43,424
618,10	42,566
618,30	43,877
618,50	43,167
618,70	43,662
618,90	43,912
619,10	43,841
619,30	43,362
619,49	43,500
619,69	43,088
619,89	42,862
620,09	43,429
620,29	43,912
620,49	42,541
620,69	42,488
620,89	42,185
621,09	41,031
621,29	41,192
621,49	40,121
621,69	40,281
621,89	40,253
622,09	39,113
622,29	38,770
622,48	38,559
622,68	37,396
622,88	36,355
623,08	36,369
623,28	35,646
623,48	34,991
623,68	34,788
623,88	34,190
624,08	33,700
624,28	32,836
624,48	32,506
624,67	32,190
624,87	31,705
625,07	31,780
625,27	30,794
625,47	31,202
625,67	30,892
625,87	30,686
626,07	30,378
626,27	30,480
626,47	30,600
626,66	30,167
626,86	30,089
627,06	30,056
627,26	29,475
627,46	29,749
627,66	29,038
627,86	28,386
628,06	27,963
628,25	26,455
628,45	25,750
628,65	24,328
628,85	22,901
629,05	21,828
629,25	19,924
629,45	18,467
629,65	17,083
629,84	15,360
630,04	13,959
630,24	12,547
630,44	10,997
630,64	9,895
630,84	8,451
631,04	7,373
631,23	6,356
631,43	5,181
631,63	4,508
631,83	4,019
632,03	3,095
632,23	2,760
632,42	2,319
632,62	2,043
632,82	1,606
633,02	1,383
633,22	1,410
633,42	1,193
633,62	0,918
633,81	1,072
634,01	0,717
634,21	0,793
634,41	0,870
634,61	0,734
634,80	0,762
635,00	0,558
635,20	0,740
635,40	0,730
635,60	0,646
635,80	0,539
635,99	0,637
636,19	0,582
636,39	0,978
636,59	0,934
636,79	0,857
636,98	0,639
637,18	0,588
637,38	0,785
637,58	0,837
637,78	0,540
637,97	0,638
638,17	0,956
638,37	0,712
638,57	0,796
638,77	0,638
638,96	0,718
639,16	0,761
639,36	0,581
639,56	0,553
639,76	0,978
639,95	0,660
640,15	0,535
640,35	0,673
640,55	0,779
640,75	0,644
640,94	0,743
641,14	0,834
641,34	0,785
641,54	0,722
641,73	0,718
641,93	0,749
642,13	0,487
642,33	0,863
642,53	0,481
642,72	0,982
642,92	1,003
643,12	0,620
643,32	0,976
643,51	0,942
643,71	0,884
643,91	0,692
644,11	0,996
644,30	0,858
644,50	0,969
644,70	0,682
644,90	0,530
645,09	0,938
645,29	0,416
645,49	0,789
645,69	1,121
645,88	0,748
646,08	0,767
646,28	1,264
646,48	0,936
646,67	0,748
646,87	0,981
647,07	0,918
647,26	0,890
647,46	0,840
647,66	1,041
647,86	0,903
648,05	0,815
648,25	1,057
648,45	0,901
648,65	1,001
648,84	0,636
649,04	0,848
649,24	1,067
649,43	0,640
649,63	1,260
649,83	1,235
650,03	0,902
650,22	0,746
650,42	0,916
650,62	0,600
650,81	0,953
651,01	0,785
651,21	0,822
651,40	0,671
651,60	0,839
651,80	0,550
652,00	0,857
652,19	0,927
652,39	0,982
652,59	0,957
652,78	1,188
652,98	0,864
653,18	0,688
653,37	0,896
653,57	0,856
653,77	0,978
653,96	1,017
654,16	1,436
654,36	0,862
654,55	1,404
654,75	1,079
654,95	0,876
655,14	0,585
655,34	1,227
655,54	0,927
655,73	0,796
655,93	1,451
656,13	0,873
656,32	0,629
656,52	0,821
656,72	1,054
656,91	1,227
657,11	0,961
657,31	0,833
657,50	0,776
657,70	1,115
657,90	0,560
658,09	0,739
658,29	1,377
658,49	0,741
658,68	1,104
658,88	1,061
659,07	0,802
659,27	0,831
659,47	1,312
659,66	0,479
659,86	0,985
660,06	0,907
660,25	0,679
660,45	1,059
660,64	0,883
660,84	0,603
661,04	0,901
661,23	1,016
661,43	1,191
661,63	1,254
661,82	0,597
662,02	1,033
662,21	1,083
662,41	0,553
662,61	0,962
662,80	0,749
663,00	0,996
663,19	0,606
663,39	0,624
663,59	1,489
663,78	0,674
663,98	1,046
664,17	0,622
664,37	1,024
664,57	0,817
664,76	1,147
664,96	1,005
665,15	0,713
665,35	1,008
665,55	0,547
665,74	0,923
665,94	0,638
666,13	1,005
666,33	0,413
666,53	1,310
666,72	0,928
666,92	1,430
667,11	1,070
667,31	0,724
667,50	0,966
667,70	1,004
667,90	0,993
668,09	0,845
668,29	1,003
668,48	0,701
668,68	0,538
668,87	1,060
669,07	1,000
669,26	1,240
669,46	0,836
669,66	0,991
669,85	0,720
670,05	0,879
670,24	0,918
670,44	0,708
670,63	0,943
670,83	0,852
671,02	1,137
671,22	1,030
671,42	0,687
671,61	0,551
671,81	0,671
672,00	1,074
672,20	0,729
672,39	0,372
672,59	0,404
672,78	0,961
672,98	0,741
673,17	0,764
673,37	0,823
673,56	0,876
673,76	0,847
673,95	0,736
674,15	0,657
674,34	0,772
674,54	0,755
674,73	0,746
674,93	0,786
675,13	0,608
675,32	0,959
675,52	0,734
675,71	0,585
675,91	0,636
676,10	0,751
676,30	0,472
676,49	0,625
676,69	0,607
676,88	0,946
677,08	0,700
677,27	0,378
677,47	0,609
677,66	0,864
677,86	0,699
678,05	0,757
678,24	0,687
678,44	0,962
678,63	0,644
678,83	0,819
679,02	0,551
679,22	0,293
679,41	0,423
679,61	0,535
679,80	0,439
680,00	0,433
680,19	0,495
680,39	0,502
680,58	0,598
680,78	0,633
680,97	0,429
681,17	0,558
681,36	0,567
681,56	0,830
681,75	0,624
681,94	0,453
682,14	0,831
682,33	0,507
682,53	0,858
682,72	0,688
682,92	0,816
683,11	0,843
683,31	0,443
683,50	0,678
683,69	0,282
683,89	0,527
684,08	0,596
684,28	0,313
684,47	0,656
684,67	0,375
684,86	0,221
685,06	0,425
685,25	0,289
685,44	0,580
685,64	0,326
685,83	0,652
686,03	0,218
686,22	0,379
686,42	0,224
686,61	0,386
686,80	0,418
687,00	0,467
687,19	0,622
687,39	0,351
687,58	0,405
687,77	0,237
687,97	0,395
688,16	0,310
688,36	0,357
688,55	0,265
688,74	0,427
688,94	0,206
689,13	0,463
689,33	0,473
689,52	0,409
689,71	0,409
689,91	0,315
690,10	0,432
690,30	0,489
690,49	0,304
690,68	0,445
690,88	0,446
691,07	0,173
691,27	0,491
691,46	0,336
691,65	0,480
691,85	0,342
692,04	0,339
692,23	0,292
692,43	0,281
692,62	0,404
692,82	0,380
693,01	0,340
693,20	0,394
693,40	0,311
693,59	0,472
693,78	0,384
693,98	0,194
694,17	0,372
694,36	0,466
694,56	0,526
694,75	0,384
694,94	0,483
695,14	0,431
695,33	0,357
695,53	0,320
695,72	0,585
695,91	0,591
696,11	0,401
696,30	0,287
696,49	0,244
696,69	0,522
696,88	0,440
697,07	0,515
697,27	0,265
697,46	0,427
697,65	0,515
697,85	0,428
698,04	0,829
698,23	0,680
698,43	0,699
698,62	0,722
698,81	0,503
699,01	0,937
699,20	0,869
699,39	0,747
699,58	1,069
699,78	0,595
699,97	0,520
700,16	0,745
700,36	0,649
700,55	1,096
700,74	0,377
700,94	0,795
701,13	0,981
701,32	1,117
701,52	1,346
701,71	1,146
701,90	1,059
702,09	1,128
702,29	1,452
702,48	1,189
702,67	1,262
702,87	1,090
703,06	1,589
703,25	1,186
703,44	1,043
703,64	2,237
703,83	1,706
704,02	1,542
704,22	0,971
704,41	1,435
704,60	2,541
704,79	0,825
704,99	1,997
705,18	2,905
705,37	2,241
705,56	2,576
705,76	2,370
705,95	2,358
706,14	1,832
706,33	2,476
706,53	2,119
706,72	1,950
706,91	2,953
707,11	2,420
707,30	3,124
707,49	2,911
707,68	1,661
707,88	2,865
708,07	1,624
708,26	2,554
708,45	2,881
708,64	2,668
708,84	3,258
709,03	2,276
709,22	2,768
709,41	2,929
709,61	3,302
709,80	2,894
709,99	3,540
710,18	4,269
710,38	3,053
710,57	2,128
710,76	2,891
710,95	4,172
711,14	5,130
711,34	3,297
711,53	3,843
711,72	4,159
711,91	3,147
712,11	5,800
712,30	6,376
712,49	5,079
712,68	5,386
712,87	6,141
713,07	6,612
713,26	3,991
713,45	5,837
713,64	3,296
713,83	3,934
714,03	6,602
714,22	3,098
714,41	4,644
714,60	5,015
714,79	4,916
714,99	5,512
715,18	3,079
715,37	5,722
715,56	6,674
715,75	4,864
715,94	5,793
716,14	5,997
716,33	6,735
716,52	3,716
716,71	7,598
716,90	7,819
717,10	6,765
717,29	3,371
717,48	7,026
717,67	7,505
717,86	7,726
718,05	3,777
718,24	7,310
718,44	4,404
718,63	4,750
718,82	9,005
719,01	6,800
719,20	3,874
719,39	6,590
719,59	2,971
719,78	5,007
719,97	7,392
720,16	6,032
720,35	8,427
720,54	5,148
720,73	3,288
720,93	6,452
721,12	3,542
721,31	8,333
721,50	6,231
721,69	5,069
721,88	9,578
722,07	7,492
722,27	8,862
722,46	5,569
722,65	6,296
722,84	9,498
723,03	7,449
723,22	9,252
723,41	7,414
723,60	8,939
723,79	9,708
723,99	9,966
724,18	8,594
724,37	8,388
724,56	10,705
724,75	8,734
724,94	11,683
725,13	13,235
725,32	9,886
725,51	12,214
725,71	9,659
725,90	9,765
726,09	9,704
726,28	9,786
726,47	10,352
726,66	9,395
726,85	9,529
727,04	10,696
727,23	8,946
727,42	16,488
727,61	7,725
727,81	12,409
728,00	12,386
728,19	10,870
728,38	10,367
728,57	9,434
728,76	12,630
728,95	7,366
729,14	9,740
729,33	14,819
729,52	10,461
729,71	12,974
729,90	12,285
730,09	7,710
730,28	15,820
730,48	8,005
730,67	17,291
730,86	7,836
731,05	10,164
731,24	14,933
731,43	13,208
731,62	12,155
731,81	8,640
732,00	12,961
732,19	12,005
732,38	11,387
732,57	10,490
732,76	18,214
732,95	9,867
733,14	7,672
733,33	14,835
733,52	15,981
733,71	12,516
733,90	19,794
734,09	11,486
734,28	17,103
734,47	11,711
734,66	12,890
734,85	10,780
735,04	18,937
735,23	17,063
735,42	18,876
735,61	16,400
735,81	12,276
736,00	19,729
736,19	16,420
736,38	14,519
736,57	16,435
736,76	9,612
736,95	21,515
737,14	15,502
737,33	17,175
737,52	18,100
737,71	10,256
737,90	22,390
738,09	19,939
738,28	18,820
738,47	11,438
738,66	16,562
738,85	12,199
739,04	16,808
739,22	15,203
739,41	16,774
739,60	16,054
739,79	15,240
739,98	11,797
740,17	20,748
740,36	23,393
740,55	23,986
740,74	10,957
740,93	18,902
741,12	21,875
741,31	20,221
741,50	12,241
741,69	9,444
741,88	8,200
742,07	18,953
742,26	9,363
742,45	18,972
742,64	26,079
742,83	13,617
743,02	18,198
743,21	25,553
743,40	18,618
743,59	23,156
743,78	14,629
743,97	20,865
744,16	22,838
744,34	21,457
744,53	21,516
744,72	28,274
744,91	22,316
745,10	24,101
745,29	15,839
745,48	17,221
745,67	26,069
745,86	12,441
746,05	15,753
746,24	32,898
746,43	23,404
746,62	19,816
746,81	23,516
747,00	26,931
747,18	25,055
747,37	22,601
747,56	18,876
747,75	28,884
747,94	27,352
748,13	34,475
748,32	19,872
748,51	22,122
748,70	31,415
748,89	27,053
749,08	23,429
749,26	24,344
749,45	21,412
749,64	19,603
749,83	26,972
750,02	32,873
750,21	29,912
750,40	24,219
750,59	38,915
750,78	36,391
750,96	20,112
751,15	23,770
751,34	30,105
751,53	35,222
751,72	23,989
751,91	26,027
752,10	20,679
752,29	27,401
752,47	32,584
752,66	24,789
752,85	28,173
753,04	33,123
753,23	17,219
753,42	34,347
753,61	24,183
753,80	34,417
753,98	23,158
754,17	29,141
754,36	38,418
754,55	15,674
754,74	29,480
754,93	31,700
755,12	31,733
755,30	25,762
755,49	33,945
755,68	48,127
755,87	33,934
756,06	27,374
756,25	33,968
756,43	34,138
756,62	32,047
756,81	24,752
757,00	33,043
757,19	40,068
757,38	41,640
757,56	43,548
757,75	36,275
757,94	47,319
758,13	39,610
758,32	49,621
758,51	35,294
758,69	21,200
758,88	47,447
759,07	37,276
759,26	48,372
759,45	36,681
759,63	50,929
759,82	37,037
760,01	27,425
760,20	31,907
760,39	44,776
760,57	50,000
760,76	27,027
760,95	29,167
761,14	41,224
761,33	42,500
761,51	43,011
761,70	62,414
761,89	34,836
762,08	44,186
762,27	45,421
762,45	44,358
762,64	39,194
762,83	41,593
763,02	42,326
763,21	43,103
763,39	55,102
763,58	36,226
763,77	44,402
763,96	56,627
764,14	45,000
764,33	49,817
764,52	63,519
764,71	51,121
764,89	41,176
765,08	56,466
765,27	33,829
765,46	47,826
765,65	37,991
765,83	45,022
766,02	31,489
766,21	48,066
766,40	61,905
766,58	40,650
766,77	47,264
766,96	58,182
767,15	72,947
767,33	39,181
767,52	60,976
767,71	51,739
767,90	51,685
768,08	42,412
768,27	65,500
768,46	47,656
768,64	66,321
768,83	48,438
769,02	60,000
769,21	52,838
769,39	48,837
769,58	55,491
769,77	69,732
769,96	49,738
770,14	48,299
770,33	41,589
770,52	75,661
770,70	57,333
770,89	53,020
771,08	62,288
771,27	63,918
771,45	50,439
771,64	70,833
771,83	57,944
772,01	43,976
772,20	68,844
772,39	52,667
772,57	58,140
772,76	45,185
772,95	64,539
773,14	74,194
773,32	62,581
773,51	71,642
773,70	88,750
773,88	92,896
774,07	53,927
774,26	48,936
774,44	71,951
774,63	70,051
774,82	60,976
775,00	68,000
775,19	44,800
775,38	82,081
775,56	81,250
775,75	65,060
775,94	69,620
776,12	58,011
776,31	67,059
776,50	49,432
776,68	48,947
776,87	19,886
777,06	66,897
777,24	53,889
777,43	48,718
777,62	75,000
777,80	105,405
777,99	69,714
778,18	73,267
778,36	105,600
778,55	109,917
778,74	78,472
778,92	86,391
779,11	88,333
779,29	78,616
779,48	40,816
779,67	69,767
779,85	86,179
780,04	57,297
780,23	67,626
780,41	94,531
780,60	56,316
780,79	100,565
780,97	75,000
781,16	75,152
781,34	104,124
781,53	93,162
781,72	91,241
781,90	58,594
782,09	65,806
782,28	105,839
782,46	62,222
782,65	74,286
782,83	116,854
783,02	70,000
783,21	90,000
783,39	86,087
783,58	73,373
783,76	75,419
783,95	63,636
784,14	90,728
784,32	75,839
784,51	75,000
784,69	81,356
784,88	104,505
785,06	88,235
785,25	78,981
785,44	100,000
785,62	74,286
785,81	156,338
785,99	96,403
786,18	81,757
786,37	100,000
786,55	76,147
786,74	71,711
786,92	74,219
787,11	100,000
787,29	88,060
787,48	74,000
787,67	90,361
787,85	115,517
788,04	53,960
788,22	113,115
788,41	109,412
788,59	111,927
788,78	92,121
788,96	101,887
789,15	123,158
789,34	103,636
789,52	84,956
789,71	79,845
789,89	234,043
790,08	78,767
790,26	102,857
790,45	56,818
790,63	95,370
790,82	89,091
791,00	76,389
791,19	90,323
791,38	107,639
791,56	92,105
791,75	106,422
791,93	87,356
792,12	86,982
792,30	95,200
792,49	91,597
792,67	101,493
792,86	101,550
793,04	94,393
793,23	85,833
793,41	165,823
793,60	87,879
793,78	122,807
793,97	180,769
794,15	91,818
794,34	160,440
794,52	109,091
794,71	106,173
794,89	124,444
795,08	135,922
795,26	97,778
795,45	167,164
795,63	116,667
795,82	118,692
796,00	98,165
796,19	95,000
796,37	80,292
796,56	108,602
796,74	108,850
796,93	125,843
797,11	96,203
797,30	86,667
797,48	117,931
797,67	100,000
797,85	86,735
798,04	121,875
798,22	107,143
798,41	88,235
798,59	104,211
798,77	124,615
798,96	92,473
799,14	87,931
799,33	99,237
799,51	69,231
799,70	83,893
799,88	87,879
800,07	77,632
800,25	62,759
800,44	102,020
800,62	68,235
800,80	97,101
800,99	158,730
801,17	97,414
801,36	62,759
801,54	150,000
801,73	48,485
801,91	103,279
802,10	110,714
802,28	130,841
802,46	114,815
802,65	147,126
802,83	176,404
803,02	145,263
803,20	104,687
803,39	86,207
803,57	133,735
803,75	116,216
803,94	133,613
804,12	65,000
804,31	139,823
804,49	87,500
804,67	130,400
804,86	99,107
805,04	81,757
805,23	78,621
805,41	80,328
805,59	77,049
805,78	84,848
805,96	101,923
806,15	102,344
806,33	104,202
806,51	90,265
806,70	180,000
806,88	87,805
807,07	100,794
807,25	64,151
807,43	105,298
807,62	127,642
807,80	108,602
807,99	86,508
808,17	101,418
808,35	117,544
808,54	122,581
808,72	84,800
808,90	127,632
809,09	102,500
809,27	109,910
809,46	128,571
809,64	104,902
809,82	108,046
810,01	87,121
810,19	104,000
810,37	76,154
810,56	178,049
810,74	43,709
810,92	109,848
811,11	152,941
811,29	84,397
811,48	110,101
811,66	93,023
811,84	123,853
812,03	76,364
812,21	139,744
812,39	109,322
812,58	105,882
812,76	113,084
812,94	95,333
813,13	82,540
813,31	96,667
813,49	179,348
813,68	102,609
813,86	118,367
814,04	132,039
814,23	157,576
814,41	75,000
814,59	76,836
814,78	93,382
814,96	72,072
815,14	156,667
815,33	94,928
815,51	93,333
815,69	130,864
815,87	107,826
816,06	100,000
816,24	101,325
816,42	33,974
816,61	91,525
816,79	163,855
816,97	65,766
817,16	76,129
817,34	91,724
817,52	76,552
817,70	121,429
817,89	95,041
818,07	105,172
818,25	104,505
818,44	80,233
818,62	75,862
818,80	105,594
818,98	92,381
819,17	89,231
819,35	87,647
819,53	105,941
819,72	73,837
819,90	100,000
820,08	59,740
820,26	98,246
820,45	83,133
820,63	67,187
820,81	69,799
820,99	88,722
821,18	60,000
821,36	82,381
821,54	72,093
821,73	71,351
821,91	68,617
822,09	94,706
822,27	67,513
822,46	80,625
822,64	90,066
822,82	74,146
823,00	63,063
823,19	58,333
823,37	75,714
823,55	75,294
823,73	88,000
823,91	58,564
824,10	70,950
824,28	69,630
824,46	52,907
824,64	71,078
824,83	79,675
825,01	80,435
825,19	67,429
825,37	68,229
825,56	80,000
825,74	54,286
825,92	79,213
826,10	74,534
826,28	87,248
826,47	86,179
826,65	75,676
826,83	61,290
827,01	50,758
827,19	88,608
827,38	79,275
827,56	80,288
827,74	69,512
827,92	68,780
828,10	67,935
828,29	80,000
828,47	63,158
828,65	58,378
828,83	66,162
829,01	49,333
829,20	56,962
829,38	68,465
829,56	72,470
829,74	86,364
829,92	53,093
830,10	79,279
830,29	46,486
830,47	82,292
830,65	63,839
830,83	71,429
831,01	46,667
831,20	65,347
831,38	50,732
831,56	68,016
831,74	77,143
831,92	46,023
832,10	56,818
832,29	40,284
832,47	50,885
832,65	57,021
832,83	47,907
833,01	40,711
833,19	42,986
833,37	71,111
833,56	62,911
833,74	48,178
833,92	59,292
834,10	70,051
834,28	42,692
834,46	61,246
834,64	48,438
834,83	57,679
835,01	63,035
835,19	40,284
835,37	45,418
835,55	58,845
835,73	56,618
835,91	26,255
836,09	47,718
836,28	59,160
836,46	55,088
836,64	64,344
836,82	36,194
837,00	47,619
837,18	56,126
837,36	36,364
837,54	27,273
837,72	39,442
837,91	44,578
838,09	52,400
838,27	66,300
838,45	50,809
838,63	29,153
838,81	51,316
838,99	48,780
839,17	61,165
839,35	46,296
839,53	53,691
839,72	22,458
839,90	38,602
840,08	40,064
840,26	39,748
840,44	27,778
840,62	42,424
840,80	40,432
840,98	43,505
841,16	28,826
841,34	41,449
841,52	35,783
841,70	51,178
841,89	42,581
842,07	32,703
842,25	30,195
842,43	41,613
842,61	38,606
842,79	43,598
842,97	31,098
843,15	40,401
843,33	38,242
843,51	40,334
843,69	25,000
843,87	26,415
844,05	32,615
844,23	37,027
844,41	32,663
844,59	31,534
844,77	27,089
844,95	37,864
845,13	39,891
845,31	33,799
845,50	23,454
845,68	30,052
845,86	39,151
846,04	34,568
846,22	32,697
846,40	20,472
846,58	21,716
846,76	33,915
846,94	31,971
847,12	30,332
847,30	34,793
847,48	38,609
847,66	24,146
847,84	28,680
848,02	30,146
848,20	35,982
848,38	27,101
848,56	36,774
848,74	29,959
848,92	18,789
849,10	30,357
849,28	29,412
849,46	17,523
849,64	20,952
849,82	24,760
850,00	22,998
850,18	24,480
850,36	28,728
850,54	28,475
850,72	35,343
850,90	30,900
851,08	31,070
851,26	32,186
851,44	27,711
851,62	18,764
851,80	26,839
851,98	34,774
852,16	29,424
852,34	34,725
852,52	22,863
852,70	17,871
852,87	21,333
853,05	23,848
853,23	21,176
853,41	14,724
853,59	19,434
853,77	32,540
853,95	14,619
854,13	20,000
854,31	24,607
854,49	11,824
854,67	28,383
854,85	21,043
855,03	22,989
855,21	19,966
855,39	14,765
855,57	30,072
855,75	22,597
855,93	26,502
856,11	32,057
856,28	15,451
856,46	18,137
856,64	22,654
856,82	16,754
857,00	24,048
857,18	18,466
857,36	17,983
857,54	25,507
857,72	20,534
857,90	18,287
858,08	15,586
858,26	18,196
858,44	15,994
858,61	12,478
858,79	19,380
858,97	18,195
859,15	12,177
859,33	17,791
859,51	19,808
859,69	18,452
859,87	22,255
860,05	27,755
860,23	18,182
860,40	21,198
860,58	15,517
860,76	20,198
860,94	11,756
861,12	15,864
861,30	19,152
861,48	20,680
861,66	17,236
861,84	20,670
862,01	22,460
862,19	15,718
862,37	16,618
862,55	13,092
862,73	12,772
862,91	15,300
863,09	16,255
863,27	7,939
863,44	16,954
863,62	12,062
863,80	10,260
863,98	15,198
864,16	11,344
864,34	12,597
864,52	12,870
864,69	19,639
864,87	17,044
865,05	11,840
865,23	14,130
865,41	15,137
865,59	16,193
865,76	17,571
865,94	17,090
866,12	13,250
866,30	15,828
866,48	11,097
866,66	19,848
866,83	14,880
867,01	16,407
867,19	12,430
867,37	15,126
867,55	14,709
867,73	11,503
867,90	13,889
868,08	12,418
868,26	11,631
868,44	9,335
868,62	12,017
868,79	5,303
868,97	13,113
869,15	12,314
869,33	6,615
869,51	14,756
869,69	10,428
869,86	11,282
870,04	11,534
870,22	9,469
870,40	9,192
870,57	16,300
870,75	15,230
870,93	12,175
871,11	8,850
871,29	7,520
871,46	10,272
871,64	12,859
871,82	10,927
872,00	13,353
872,18	15,188
872,35	13,815
872,53	15,501
872,71	7,507
872,89	9,824
873,06	10,701
873,24	12,592
873,42	9,857
873,60	7,989
873,77	14,057
873,95	9,909
874,13	11,181
874,31	6,239
874,49	12,642
874,66	9,966
874,84	8,703
875,02	8,950
875,20	9,504
875,37	7,240
875,55	4,911
875,73	6,903
875,91	11,406
876,08	7,006
876,26	7,827
876,44	6,629
876,61	10,840
876,79	11,449
876,97	7,934
877,15	11,450
877,32	10,551
877,50	9,702
877,68	10,238
877,86	10,300
878,03	9,747
878,21	8,038
878,39	6,815
878,56	7,743
878,74	7,954
878,92	6,602
879,10	7,470
879,27	8,252
879,45	10,918
879,63	5,957
879,80	7,138
879,98	4,413
880,16	6,798
880,34	3,849
880,51	8,837
880,69	8,323
880,87	5,292
881,04	6,383
881,22	7,444
881,40	2,859
881,57	6,590
881,75	5,676
881,93	6,261
882,10	7,495
882,28	6,036
882,46	7,466
882,63	9,422
882,81	5,632
882,99	6,231
883,16	7,067
883,34	4,899
883,52	7,504
883,69	7,092
883,87	5,963
884,05	6,619
884,22	5,508
884,40	7,277
884,58	6,872
884,75	5,915
884,93	9,581
885,11	6,855
885,28	6,732
885,46	6,023
885,64	5,602
885,81	7,486
885,99	6,610
886,17	6,216
886,34	5,978
886,52	4,454
886,70	4,299
886,87	7,250
887,05	6,707
887,22	7,227
887,40	8,515
887,58	5,473
887,75	6,879
887,93	5,825
888,11	3,065
888,28	4,315
888,46	3,213
888,63	6,235
888,81	6,946
888,99	3,602
889,16	4,184
889,34	4,861
889,51	5,955
889,69	6,206
889,87	4,182
890,04	4,529
890,22	3,731
890,39	3,450
890,57	5,288
890,75	7,140
890,92	5,617
891,10	5,252
891,27	5,936
891,45	4,958
891,63	4,423
891,80	4,789
891,98	6,393
892,15	5,203
892,33	3,438
892,51	7,030
892,68	3,421
892,86	4,130
893,03	5,313
893,21	5,410
893,38	5,051
893,56	4,625
893,74	6,213
893,91	5,282
894,09	4,972
894,26	5,368
894,44	3,512
894,61	5,593
894,79	4,389
894,96	4,800
895,14	4,587
895,32	4,112
895,49	3,798
895,67	3,581
895,84	5,574
896,02	4,326
896,19	3,667
896,37	5,462
896,54	3,866
896,72	4,090
896,89	3,726
897,07	3,967
897,25	3,866
897,42	4,276
897,60	5,224
897,77	4,759
897,95	4,267
898,12	3,397
898,30	4,359
898,47	3,342
898,65	3,543
898,82	3,569
899,00	4,117
899,17	4,157
899,35	4,238
899,52	3,846
899,70	2,870
899,87	4,674
900,05	4,733
900,22	3,162
900,40	3,303
900,57	4,527
900,75	3,982
900,92	3,186
901,10	4,851
901,27	3,579
901,45	5,517
901,62	3,697
901,80	3,809
901,97	2,686
902,15	4,514
902,32	4,675
902,50	3,033
902,67	3,183
902,85	3,509
903,02	4,240
903,20	4,316
903,37	3,639
903,54	4,264
903,72	3,356
903,89	3,329
904,07	4,402
904,24	4,126
904,42	3,074
904,59	2,751
904,77	3,181
904,94	4,414
905,12	2,638
905,29	3,991
905,47	4,909
905,64	3,677
905,81	4,414
905,99	3,485
906,16	4,008
906,34	4,032
906,51	3,007
906,69	3,322
906,86	3,368
907,03	4,766
907,21	2,505
907,38	2,426
907,56	3,555
907,73	4,250
907,91	5,078
908,08	3,967
908,25	1,707
908,43	3,561
908,60	2,793
908,78	3,457
908,95	2,937
909,13	3,580
909,30	2,097
909,47	3,613
909,65	3,502
909,82	4,058
910,00	3,529
910,17	2,374
910,34	2,828
910,52	2,750
910,69	3,370
910,87	3,862
911,04	2,542
911,21	3,743
911,39	2,899
911,56	3,053
911,73	1,623
911,91	3,331
912,08	3,705
912,26	2,540
912,43	2,982
912,60	3,912
912,78	3,034
912,95	4,836
913,13	3,346
913,30	3,033
913,47	5,391
913,65	2,452
913,82	2,655
913,99	2,233
914,17	1,838
914,34	4,019
914,51	3,753
914,69	3,084
914,86	4,496
915,03	3,502
915,21	3,139
915,38	1,527
915,56	2,825
915,73	2,697
915,90	3,301
916,08	2,307
916,25	3,477
916,42	2,122
916,60	2,188
916,77	2,779
916,94	2,172
917,12	3,969
917,29	3,279
917,46	2,031
917,64	3,073
917,81	2,617
917,98	1,927
918,16	2,306
918,33	3,344
918,50	3,203
918,67	3,001
918,85	2,557
919,02	2,730
919,19	3,699
919,37	2,573
919,54	3,178
919,71	3,013
919,89	3,320
920,06	1,137
920,23	3,040
920,41	3,427
920,58	2,897
920,75	3,284
920,92	2,431
921,10	2,442
921,27	1,622
921,44	3,507
921,62	1,980
921,79	3,543
921,96	3,009
922,13	1,685
922,31	1,935
922,48	3,059
922,65	1,922
922,82	2,401
923,00	3,069
923,17	1,475
923,34	2,908
923,52	1,460
923,69	1,800
923,86	1,832
924,03	2,079
924,21	1,946
924,38	2,851
924,55	3,254
924,72	3,213
924,90	2,716
925,07	2,628
925,24	2,735
925,41	2,098
925,59	1,188
925,76	2,320
925,93	3,032
926,10	3,026
926,28	2,551
926,45	3,144
926,62	3,317
926,79	2,027
926,96	2,927
927,14	2,370
927,31	1,464
927,48	2,689
927,65	2,208
927,83	1,751
928,00	2,229
928,17	2,211
928,34	2,402
928,51	2,865
928,69	1,580
928,86	1,653
929,03	3,383
929,20	1,883
929,37	2,413
929,55	2,208
929,72	2,554
929,89	1,974
930,06	2,693
930,23	2,598
930,41	2,335
930,58	2,406
930,75	2,390
930,92	1,546
931,09	1,739
931,27	1,341
931,44	1,830
931,61	2,151
931,78	2,823
931,95	1,896
932,12	2,408
932,30	2,389
932,47	2,356
932,64	2,611
932,81	2,488
932,98	1,831
933,16	1,531
933,33	2,347
933,50	2,170
933,67	2,686
933,84	1,568
934,01	1,229
934,18	1,806
934,36	1,689
934,53	2,050
934,70	2,542
934,87	2,521
935,04	2,575
935,21	2,289
935,38	1,838
935,56	1,716
935,73	2,435
935,90	0,921
936,07	2,897
936,24	2,656
936,41	2,084
936,58	0,735
936,76	2,709
936,93	1,344
937,10	1,400
937,27	1,978
937,44	2,062
937,61	2,551
937,78	2,126
937,95	1,491
938,13	1,852
938,30	2,365
938,47	1,863
938,64	2,151
938,81	1,927
938,98	1,474
939,15	1,716
939,32	2,261
939,49	2,238
939,66	2,748
939,84	2,045
940,01	3,108
940,18	1,663
940,35	2,165
940,52	1,328
940,69	2,959
940,86	1,258
941,03	1,551
941,20	3,207
941,37	2,556
941,54	1,383
941,71	0,831
941,89	1,668
942,06	2,204
942,23	2,200
942,40	2,628
942,57	3,168
942,74	2,515
942,91	1,509
943,08	2,334
943,25	3,030
943,42	2,754
943,59	1,882
943,76	3,271
943,93	1,512
944,10	1,673
944,27	2,340
944,44	1,809
944,61	1,941
944,79	1,880
944,96	2,692
945,13	1,929
945,30	1,256
945,47	3,163
945,64	2,653
945,81	3,548
945,98	2,954
946,15	3,782
946,32	1,164
946,49	2,929
946,66	2,537
946,83	1,885
947,00	3,256
947,17	2,263
947,34	2,855
947,51	2,751
947,68	3,268
947,85	1,101
948,02	3,321
948,19	4,508
948,36	3,024
948,53	3,144
948,70	4,571
948,87	3,967
949,04	2,298
949,21	1,464
949,38	3,385
949,55	1,242
949,72	3,290
949,89	4,260
950,06	2,620
950,23	3,368
950,40	4,770
950,57	1,999
950,74	5,458
950,91	4,228
951,08	2,949
951,25	4,080
951,42	5,576
951,59	2,304
951,76	3,352
951,93	6,078
952,10	4,130
952,27	2,870
952,44	4,555
952,61	3,204
952,77	5,326
952,94	4,658
953,11	7,294
953,28	3,118
953,45	6,585
953,62	5,880
953,79	5,787
953,96	4,813
954,13	3,725
954,30	5,651
954,47	4,499
954,64	5,695
954,81	4,944
954,98	5,301
955,15	7,658
955,32	7,266
955,49	6,910
955,65	8,514
955,82	6,289
955,99	8,489
956,16	6,702
956,33	6,485
956,50	6,598
956,67	8,894
956,84	8,148
957,01	7,020
957,18	7,727
957,35	7,065
957,52	6,628
957,68	8,000
957,85	8,851
958,02	8,786
958,19	7,746
958,36	14,894
958,53	10,230
958,70	12,579
958,87	13,405
959,04	10,584
959,21	11,818
959,37	12,338
959,54	10,254
959,71	5,668
959,88	14,819
960,05	15,894
960,22	11,006
960,39	18,667
960,56	14,304
960,72	11,418
960,89	17,744
961,06	15,159
961,23	13,100
961,40	15,729
961,57	14,979
961,74	12,816
961,90	20,469
962,07	19,787
962,24	24,065
962,41	12,395
962,58	16,523
962,75	17,699
962,92	19,439
963,08	25,818
963,25	16,937
963,42	15,459
963,59	17,149
963,76	26,517
963,93	24,714
964,10	22,912
964,26	27,851
964,43	27,649
964,60	30,311
964,77	39,277
964,94	19,602
965,10	32,738
965,27	23,499
965,44	31,169
965,61	35,262
965,78	42,492
965,95	34,731
966,11	29,102
966,28	40,149
966,45	39,564
966,62	45,231
966,79	53,469
966,95	41,194
967,12	34,700
967,29	41,319
967,46	46,970
967,63	33,585
967,79	53,153
967,96	51,082
968,13	54,000
968,30	51,613
968,47	56,701
968,63	64,865
968,80	46,789
968,97	41,346
969,14	73,256
969,31	51,111
969,47	57,059
969,64	69,192
969,81	50,259
969,98	89,560
970,14	77,301
970,31	91,824
970,48	53,333
970,65	86,391
970,81	65,068
970,98	112,409
971,15	62,245
971,32	60,156
971,48	110,204
971,65	33,077
971,82	71,569
971,99	129,885
972,15	90,141
972,32	130,631
972,49	129,371
972,66	111,818
972,82	113,953
972,99	73,171
973,16	122,989
973,33	96,429
973,49	131,579
973,66	126,882
973,83	96,117
974,00	100,000
974,16	111,765
974,33	150,877
974,50	114,737
974,67	176,842
974,83	109,524
975,00	137,895
975,17	92,308
975,33	158,427
975,50	94,030
975,67	289,796
975,84	189,552
976,00	140,449
976,17	159,016
976,34	94,000
976,50	131,461
976,67	119,417
976,84	1600,000
977,00	234,694
977,17	182,222
977,34	207,692
977,50	167,164
977,67	223,214
977,84	208,065
978,01	270,213
978,17	455,556
978,34	275,000
978,51	235,294
978,67	161,842
978,84	117,187
979,01	267,568
979,17	212,821
979,34	80,137
979,51	187,755
979,67	183,951
979,84	338,776
980,01	257,778
980,17	254,930
980,34	359,259
980,51	192,754
980,67	174,118
980,84	390,000
981,01	630,000
981,17	520,000
981,34	988,889
981,50	223,529
981,67	227,119
981,84	5250,000
982,00	440,000
982,17	228,571
982,34	153,333
982,50	666,667
982,67	185,417
982,84	2340,000
983,00	1266,667
983,17	223,881
983,33	237,931
983,50	1560,000
983,67	-444,828
983,83	284,848
984,00	-1042,857
984,17	811,111
984,33	-5100,000
984,50	394,286
984,66	306,522
984,83	206,494
985,00	-566,667
985,16	451,724
985,33	741,176
985,49	594,444
985,66	391,176
985,83	395,652
985,99	387,179
986,16	-3950,000
986,32	871,429
986,49	10600,000
986,66	378,788
986,82	1033,333
986,99	275,472
987,15	-478,947
987,32	-300,000
987,49	282,000
987,65	5350,000
987,82	520,833
987,98	293,878
988,15	480,000
988,31	1100,000
988,48	-1466,667
988,65	326,190
988,81	294,444
988,98	300,000
989,14	400,000
989,31	819,048
989,47	379,412
989,64	-1130,769
989,80	831,250
989,97	278,378
990,14	-297,826
990,30	-450,000
990,47	246,939
990,63	402,778
990,80	270,000
990,96	-680,000
991,13	390,625
991,29	489,655
991,46	0,000
991,62	-853,846
991,79	1025,000
991,95	14200,000
992,12	-1460,000
992,29	-618,750
992,45	197,647
992,62	334,884
992,78	338,636
992,95	-626,667
993,11	450,000
993,28	1290,000
993,44	-980,000
993,61	-675,000
993,77	-3825,000
993,94	-5266,667
994,10	-126,667
994,27	852,632
994,43	360,465
994,60	0,000
994,76	2825,000
994,93	615,000
995,09	-805,882
995,26	1244,444
995,42	260,784
995,59	814,286
995,75	815,385
995,92	2328,571
996,08	452,778
996,25	-1362,500
996,41	-5350,000
996,58	880,000
996,74	415,909
996,91	586,207
997,07	0,000
997,23	16000,000
997,40	-14900,000
997,56	-861,538
997,73	-1800,000
997,89	394,737
998,06	1069,231
998,22	-694,444
998,39	496,000
998,55	1744,444
998,72	-1637,500
998,88	-356,667
999,05	-143,590
999,21	357,143
999,37	-726,667
999,54	-1150,000
999,70	-430,000
999,87	881,250
1000,03	346,154
1000,20	297,917
1000,36	0,000
1000,52	550,000
1000,69	-633,333
1000,85	-1080,000
1001,02	-637,500
1001,18	2175,000
1001,35	976,923
1001,51	864,706
1001,67	-1146,154
1001,84	-2260,000
1002,00	245,946
1002,17	1227,273
1002,33	-2750,000
1002,50	466,667
1002,66	-938,462
1002,82	382,500
1002,99	1028,571
1003,15	-1942,857
1003,32	-1090,909
1003,48	350,000
1003,64	900,000
1003,81	440,741
1003,97	-5050,000
1004,14	1109,091
1004,30	420,000
1004,46	-813,333
1004,63	885,714
1004,79	377,778
1004,95	760,000
1005,12	7000,000
1005,28	606,897
1005,45	451,351
1005,61	417,241
1005,77	-231,250
1005,94	-438,095
1006,10	-5600,000
1006,26	1261,538
1006,43	-457,692
1006,59	-1018,182
1006,76	1050,000
1006,92	1833,333
1007,08	13000,000
1007,25	-396,296
1007,41	537,931
1007,57	5600,000
1007,74	1060,000
1007,90	-510,345
1008,06	226,087
1008,23	817,647
1008,39	-600,000
1008,55	-326,923
1008,72	-1285,714
1008,88	0,000
1009,04	336,585
1009,21	-286,842
1009,37	-750,000
1009,53	366,667
1009,70	2766,667
1009,86	-685,714
1010,02	3766,667
1010,19	1154,545
1010,35	275,000
1010,51	-6200,000
1010,68	-1475,000
1010,84	-265,909
1011,00	743,750
1011,17	-336,364
1011,33	0,000
1011,49	-820,000
1011,66	592,857
1011,82	570,968
1011,98	900,000
1012,14	-609,091
1012,31	343,590
1012,47	0,000
1012,63	2400,000
1012,80	942,857
1012,96	-631,250
1013,12	-2216,667
1013,29	738,889
1013,45	363,415
1013,61	5300,000
1013,77	-117,857
1013,94	2540,000
1014,10	215,254
1014,26	-2725,000
1014,43	-464,000
1014,59	555,000
1014,75	-650,000
1014,91	-800,000
1015,08	416,667
1015,24	14000,000
1015,40	629,412
1015,56	-15600,000
1015,73	307,143
1015,89	1045,455
1016,05	3925,000
1016,21	-1125,000
1016,38	700,000
1016,54	1269,231
1016,70	-4366,667
1016,86	406,250
1017,03	887,500
1017,19	-723,077
1017,35	-600,000
1017,51	-1360,000
1017,68	-1050,000
1017,84	-1471,429
1018,00	276,190
1018,16	676,923
1018,33	-1357,143
1018,49	-991,667
1018,65	-308,108
1018,81	376,923
1018,97	-1885,714
1019,14	-3900,000
1019,30	-310,256
1019,46	0,000
1019,62	-617,647
1019,79	-4966,667
1019,95	1358,333
1020,11	7250,000
1020,27	-418,519
1020,43	-446,154
1020,60	2416,667
1020,76	716,667
1020,92	673,333
1021,08	870,000
1021,24	1170,000
1021,41	1433,333
1021,57	1675,000
1021,73	992,308
1021,89	2960,000
1022,05	-478,571
1022,21	695,000
1022,38	-725,000
1022,54	-2350,000
1022,70	300,000
1022,86	-1337,500
1023,02	608,333
1023,19	2780,000
1023,35	3766,667
1023,51	508,333
1023,67	425,926
1023,83	-700,000
1023,99	239,474
1024,16	-430,769
1024,32	-1488,889
1024,48	-970,000
1024,64	316,667
1024,80	521,739
1024,96	448,718
1025,12	514,286
1025,29	533,333
1025,45	289,474
1025,61	805,556
1025,77	-1700,000
1025,93	-7000,000
1026,09	-1942,857
1026,26	1008,333
1026,42	525,000
1026,58	560,606
1026,74	1533,333
1026,90	320,000
1027,06	353,571
1027,22	1157,143
1027,38	328,846
1027,55	3300,000
1027,71	1883,333
1027,87	-440,000
1028,03	1070,000
1028,19	440,625
1028,35	780,000
1028,51	1800,000
1028,67	950,000
1028,83	-2575,000
1029,00	-288,095
1029,16	1030,000
1029,32	-457,143
1029,48	295,556
1029,64	405,556
1029,80	4850,000
1029,96	986,667
1030,12	582,609
1030,28	-3333,333
1030,44	-784,615
1030,61	-383,333
1030,77	-228,571
1030,93	-1073,333
1031,09	2083,333
1031,25	-12000,000
1031,41	-290,000
1031,57	484,615
1031,73	737,500
1031,89	-1036,364
1032,05	-392,593
1032,21	963,636
1032,37	-177,778
1032,53	-971,429
1032,69	-354,167
1032,86	477,778
1033,02	-250,000
1033,18	-568,750
1033,34	578,947
1033,50	-7400,000
1033,66	-187,805
1033,82	608,696
1033,98	-477,778
1034,14	229,487
1034,30	445,161
1034,46	-3700,000
1034,62	660,000
1034,78	-642,857
1034,94	389,474
1035,10	-692,308
1035,26	-220,930
1035,42	-368,966
1035,58	-733,333
1035,74	833,333
1035,90	-838,462
1036,06	-1600,000
1036,22	1716,667
1036,38	-770,588
1036,54	-491,667
1036,70	-230,303
1036,86	10800,000
1037,02	594,444
1037,18	805,263
1037,34	196,190
1037,50	-200,000
1037,66	-523,529
1037,82	3000,000
1037,98	-503,704
1038,14	-392,000
1038,30	-1025,000
1038,46	-707,143
1038,62	560,870
1038,78	-3800,000
1038,94	-473,684
1039,10	504,545
1039,26	444,444
1039,42	-566,667
1039,58	1300,000
1039,74	-589,474
1039,90	387,500
1040,06	-476,923
>>>>>End Processed Spectral Data<<<<<
