SpectraSuite Data File
++++++++++++++++++++++++++++++++++++
Date: Wed Feb 01 16:34:12 EET 2017
User: optolab
Dark Spectrum Present: Yes
Reference Spectrum Present: Yes
Number of Sampled Component Spectra: 1
Spectrometers: USB4C02475
Integration Time (usec): 100000 (USB4C02475)
Spectra Averaged: 1 (USB4C02475)
Boxcar Smoothing: 0 (USB4C02475)
Correct for Electrical Dark: No (USB4C02475)
Strobe/Lamp Enabled: No (USB4C02475)
Correct for Detector Non-linearity: No (USB4C02475)
Correct for Stray Light: No (USB4C02475)
Number of Pixels in Processed Spectrum: 3648
>>>>>Begin Processed Spectral Data<<<<<
344,91	3750,000
345,13	3750,000
345,35	3750,000
345,57	0,000
345,79	342,105
346,00	-1777,778
346,22	-1800,000
346,44	432,353
346,66	-370,833
346,87	-12900,000
347,09	457,576
347,31	-563,636
347,53	-348,718
347,74	290,769
347,96	500,000
348,18	731,579
348,40	464,516
348,61	1005,882
348,83	457,143
349,05	288,235
349,27	-7150,000
349,48	684,615
349,70	-486,207
349,92	322,581
350,14	215,094
350,35	372,000
350,57	3725,000
350,79	520,000
351,01	-1090,476
351,22	257,407
351,44	930,769
351,66	-240,000
351,87	-480,952
352,09	276,923
352,31	288,525
352,53	232,813
352,74	397,222
352,96	262,338
353,18	721,053
353,40	536,000
353,61	286,667
353,83	394,118
354,05	1300,000
354,26	1833,333
354,48	290,000
354,70	412,121
354,92	-379,310
355,13	242,424
355,35	359,091
355,57	691,667
355,78	204,819
356,00	-3300,000
356,22	415,385
356,44	7150,000
356,65	327,273
356,87	469,231
357,09	554,167
357,30	297,778
357,52	355,172
357,74	920,000
357,95	376,923
358,17	191,803
358,39	241,935
358,60	345,946
358,82	408,333
359,04	540,741
359,26	434,286
359,47	7100,000
359,69	370,000
359,91	390,909
360,12	600,000
360,34	725,000
360,56	-85,185
360,77	3225,000
360,99	866,667
361,21	350,000
361,42	7400,000
361,64	279,592
361,86	304,615
362,07	-583,871
362,29	234,667
362,51	-623,529
362,72	536,000
362,94	344,118
363,16	206,977
363,37	-857,143
363,59	553,846
363,81	277,273
364,02	705,556
364,24	566,667
364,46	2666,667
364,67	1136,364
364,89	1971,429
365,11	171,429
365,32	524,138
365,54	319,444
365,76	295,918
365,97	464,706
366,19	241,379
366,41	522,727
366,62	388,889
366,84	325,581
367,05	263,265
367,27	2166,667
367,49	-561,538
367,70	676,471
367,92	260,656
368,14	300,000
368,35	-9800,000
368,57	560,000
368,79	462,069
369,00	276,087
369,22	-1562,500
369,43	228,235
369,65	220,968
369,87	389,189
370,08	174,699
370,30	275,000
370,51	272,131
370,73	220,000
370,95	322,581
371,16	223,810
371,38	366,667
371,60	1975,000
371,81	229,688
372,03	813,333
372,24	520,000
372,46	264,151
372,68	177,143
372,89	403,030
373,11	676,923
373,32	388,636
373,54	-923,077
373,76	676,923
373,97	760,000
374,19	559,091
374,40	235,937
374,62	-4533,333
374,84	3850,000
375,05	500,000
375,27	394,000
375,48	-7800,000
375,70	185,333
375,92	242,857
376,13	400,000
376,35	278,082
376,56	968,750
376,78	231,944
376,99	396,429
377,21	264,583
377,43	187,879
377,64	165,217
377,86	503,448
378,07	312,821
378,29	-1662,500
378,51	383,871
378,72	252,083
378,94	-1300,000
379,15	266,667
379,37	752,941
379,58	287,692
379,80	820,000
380,01	693,750
380,23	284,314
380,45	2280,000
380,66	4600,000
380,88	222,727
381,09	237,143
381,31	180,000
381,52	260,784
381,74	1755,556
381,95	604,545
382,17	600,000
382,39	638,095
382,60	232,653
382,82	310,256
383,03	226,923
383,25	454,839
383,46	247,727
383,68	500,000
383,89	710,000
384,11	419,355
384,32	-4766,667
384,54	588,889
384,76	-4100,000
384,97	403,030
385,19	510,345
385,40	282,353
385,62	222,807
385,83	314,286
386,05	194,118
386,26	368,000
386,48	211,494
386,69	277,083
386,91	430,000
387,12	311,864
387,34	210,345
387,55	272,581
387,77	556,250
387,98	503,846
388,20	197,826
388,41	367,647
388,63	9100,000
388,84	200,000
389,06	304,762
389,27	663,158
389,49	322,222
389,70	255,102
389,92	280,000
390,13	224,490
390,35	282,353
390,56	240,741
390,78	507,407
390,99	810,000
391,21	673,684
391,42	226,667
391,64	297,561
391,85	232,759
392,07	211,364
392,28	140,000
392,50	309,091
392,71	-1150,000
392,93	238,462
393,14	530,556
393,36	208,163
393,57	156,391
393,79	833,333
394,00	359,574
394,22	163,014
394,43	195,181
394,65	286,047
394,86	925,000
395,08	519,048
395,29	184,906
395,50	746,154
395,72	677,778
395,93	709,524
396,15	250,704
396,36	183,824
396,58	250,000
396,79	312,500
397,01	238,000
397,22	294,444
397,44	278,788
397,65	173,684
397,87	323,810
398,08	187,755
398,29	356,250
398,51	225,000
398,72	160,976
398,94	247,692
399,15	365,714
399,37	285,965
399,58	126,374
399,80	536,364
400,01	190,741
400,22	233,333
400,44	224,691
400,65	467,857
400,87	155,882
401,08	194,286
401,30	241,304
401,51	264,912
401,72	353,846
401,94	155,696
402,15	420,000
402,37	149,580
402,58	616,667
402,80	185,714
403,01	215,493
403,22	1254,545
403,44	239,130
403,65	148,214
403,87	160,000
404,08	361,538
404,30	132,941
404,51	-3600,000
404,72	131,429
404,94	109,804
405,15	196,000
405,37	191,139
405,58	145,882
405,79	193,902
406,01	300,000
406,22	175,862
406,44	285,106
406,65	221,053
406,86	204,167
407,08	148,101
407,29	154,369
407,51	169,512
407,72	168,519
407,93	133,696
408,15	90,598
408,36	297,674
408,58	145,361
408,79	116,667
409,00	136,458
409,22	190,476
409,43	210,127
409,64	98,758
409,86	71,698
410,07	122,308
410,29	108,209
410,50	119,149
410,71	122,321
410,93	75,159
411,14	148,062
411,35	110,119
411,57	98,026
411,78	107,031
412,00	98,726
412,21	103,226
412,42	97,354
412,64	82,833
412,85	101,546
413,06	83,537
413,28	67,568
413,49	81,517
413,70	75,362
413,92	81,423
414,13	56,432
414,34	77,011
414,56	60,839
414,77	85,654
414,98	69,128
415,20	68,858
415,41	67,422
415,63	61,692
415,84	64,722
416,05	57,143
416,27	52,972
416,48	67,416
416,69	66,814
416,91	63,514
417,12	64,973
417,33	67,789
417,55	56,137
417,76	59,754
417,97	54,979
418,19	47,913
418,40	51,277
418,61	50,741
418,83	41,636
419,04	39,432
419,25	41,121
419,46	39,850
419,68	36,349
419,89	35,469
420,10	33,469
420,32	31,382
420,53	33,333
420,74	34,307
420,96	30,500
421,17	35,219
421,38	34,168
421,60	34,879
421,81	34,396
422,02	35,528
422,23	39,906
422,45	36,155
422,66	38,945
422,87	38,012
423,09	35,346
423,30	38,500
423,51	40,315
423,73	35,859
423,94	36,765
424,15	33,197
424,36	37,060
424,58	35,312
424,79	35,103
425,00	36,285
425,22	36,386
425,43	35,635
425,64	35,484
425,85	34,113
426,07	34,163
426,28	34,740
426,49	33,350
426,71	32,020
426,92	31,903
427,13	31,165
427,34	28,765
427,56	31,512
427,77	29,168
427,98	32,857
428,19	28,453
428,41	31,300
428,62	28,862
428,83	28,441
429,04	27,184
429,26	27,389
429,47	26,901
429,68	26,972
429,89	25,694
430,11	23,961
430,32	24,457
430,53	23,438
430,74	22,791
430,96	20,920
431,17	20,897
431,38	19,115
431,59	18,660
431,81	19,009
432,02	16,729
432,23	17,142
432,44	16,829
432,66	15,986
432,87	16,135
433,08	16,222
433,29	14,961
433,51	14,203
433,72	14,899
433,93	13,684
434,14	14,689
434,35	13,548
434,57	12,762
434,78	12,283
434,99	12,332
435,20	12,465
435,42	11,395
435,63	10,260
435,84	9,832
436,05	9,004
436,26	7,640
436,48	7,907
436,69	6,342
436,90	6,301
437,11	5,343
437,32	4,681
437,54	5,038
437,75	4,899
437,96	4,803
438,17	3,291
438,38	4,040
438,60	3,127
438,81	3,167
439,02	3,163
439,23	2,466
439,44	2,617
439,66	2,690
439,87	2,540
440,08	2,327
440,29	2,170
440,50	1,983
440,72	1,817
440,93	1,911
441,14	1,814
441,35	1,730
441,56	1,369
441,77	1,433
441,99	1,541
442,20	1,121
442,41	1,050
442,62	1,160
442,83	1,134
443,04	0,800
443,26	0,970
443,47	1,231
443,68	1,003
443,89	1,021
444,10	0,675
444,31	0,856
444,53	0,818
444,74	0,850
444,95	0,989
445,16	0,743
445,37	0,943
445,58	0,807
445,80	1,033
446,01	0,889
446,22	0,875
446,43	0,684
446,64	1,060
446,85	0,743
447,06	0,772
447,28	0,707
447,49	0,560
447,70	0,823
447,91	0,871
448,12	0,638
448,33	0,936
448,54	0,863
448,76	0,843
448,97	0,870
449,18	0,581
449,39	0,896
449,60	0,847
449,81	1,098
450,02	0,607
450,23	0,670
450,45	0,861
450,66	0,868
450,87	0,840
451,08	0,936
451,29	1,199
451,50	0,944
451,71	1,003
451,92	0,828
452,13	0,580
452,35	1,090
452,56	0,967
452,77	1,264
452,98	0,697
453,19	0,903
453,40	0,704
453,61	0,899
453,82	0,619
454,03	0,854
454,25	1,146
454,46	1,007
454,67	0,901
454,88	1,042
455,09	0,885
455,30	0,677
455,51	0,731
455,72	0,998
455,93	0,786
456,14	0,771
456,35	0,957
456,56	1,099
456,78	0,895
456,99	1,061
457,20	0,870
457,41	0,901
457,62	0,782
457,83	0,978
458,04	0,656
458,25	0,859
458,46	0,819
458,67	0,927
458,88	0,841
459,09	0,678
459,30	0,694
459,51	0,826
459,73	0,509
459,94	1,012
460,15	0,859
460,36	0,669
460,57	0,751
460,78	0,466
460,99	0,649
461,20	0,653
461,41	0,738
461,62	0,442
461,83	0,655
462,04	0,527
462,25	0,699
462,46	0,641
462,67	0,404
462,88	0,606
463,09	0,841
463,30	0,482
463,51	0,607
463,72	0,657
463,93	0,489
464,15	0,654
464,36	0,649
464,57	0,447
464,78	0,604
464,99	0,595
465,20	0,480
465,41	0,537
465,62	0,711
465,83	0,718
466,04	0,781
466,25	0,858
466,46	0,722
466,67	0,713
466,88	0,919
467,09	0,890
467,30	0,847
467,51	1,241
467,72	1,305
467,93	1,633
468,14	1,872
468,35	2,131
468,56	2,443
468,77	2,832
468,98	3,259
469,19	3,759
469,40	4,043
469,61	4,571
469,82	5,036
470,03	6,176
470,24	7,023
470,45	7,577
470,66	8,497
470,87	9,976
471,08	10,732
471,29	11,930
471,50	13,236
471,71	14,412
471,92	16,019
472,13	16,972
472,34	18,411
472,55	20,068
472,76	21,376
472,97	22,777
473,18	24,304
473,39	25,897
473,60	26,859
473,81	28,881
474,01	30,298
474,22	31,403
474,43	32,865
474,64	34,593
474,85	35,389
475,06	36,505
475,27	38,318
475,48	39,513
475,69	40,078
475,90	41,248
476,11	42,465
476,32	42,556
476,53	43,800
476,74	44,158
476,95	45,182
477,16	43,928
477,37	44,336
477,58	44,638
477,79	44,771
478,00	45,010
478,21	45,479
478,41	43,876
478,62	44,040
478,83	43,640
479,04	43,573
479,25	42,332
479,46	41,436
479,67	41,133
479,88	41,087
480,09	39,488
480,30	38,832
480,51	38,158
480,72	36,662
480,93	35,170
481,14	34,066
481,34	33,043
481,55	32,011
481,76	30,667
481,97	29,597
482,18	28,592
482,39	27,894
482,60	26,943
482,81	26,819
483,02	25,802
483,23	25,208
483,44	24,688
483,65	24,375
483,85	24,221
484,06	23,513
484,27	22,628
484,48	22,492
484,69	22,151
484,90	21,630
485,11	21,385
485,32	20,782
485,53	21,256
485,73	20,793
485,94	20,678
486,15	20,230
486,36	20,260
486,57	19,843
486,78	20,172
486,99	20,126
487,20	20,646
487,41	20,641
487,61	20,682
487,82	20,613
488,03	20,657
488,24	20,717
488,45	20,615
488,66	20,535
488,87	20,419
489,08	20,521
489,28	21,094
489,49	21,431
489,70	20,671
489,91	20,709
490,12	20,594
490,33	20,369
490,54	20,464
490,74	20,709
490,95	20,316
491,16	20,209
491,37	20,257
491,58	19,722
491,79	19,738
492,00	19,830
492,20	19,735
492,41	19,943
492,62	20,105
492,83	20,298
493,04	20,320
493,25	20,689
493,45	21,388
493,66	21,662
493,87	22,114
494,08	22,395
494,29	23,025
494,50	23,462
494,70	24,063
494,91	25,206
495,12	25,573
495,33	25,959
495,54	26,627
495,75	27,142
495,95	27,943
496,16	28,112
496,37	29,116
496,58	29,235
496,79	29,346
496,99	29,709
497,20	30,445
497,41	31,138
497,62	30,962
497,83	31,576
498,04	30,918
498,24	30,844
498,45	31,108
498,66	30,911
498,87	30,672
499,08	30,207
499,28	29,995
499,49	29,351
499,70	28,954
499,91	28,049
500,12	26,987
500,32	26,073
500,53	25,643
500,74	24,355
500,95	23,709
501,15	22,546
501,36	21,243
501,57	20,645
501,78	19,443
501,99	17,988
502,19	16,519
502,40	15,459
502,61	14,756
502,82	13,684
503,02	12,067
503,23	11,705
503,44	10,340
503,65	9,422
503,86	8,709
504,06	7,796
504,27	7,124
504,48	6,232
504,69	5,929
504,89	5,494
505,10	4,928
505,31	4,735
505,52	4,381
505,72	4,094
505,93	3,886
506,14	3,700
506,35	3,360
506,55	3,218
506,76	2,942
506,97	2,953
507,18	2,951
507,38	2,952
507,59	2,730
507,80	2,682
508,01	2,366
508,21	2,339
508,42	2,277
508,63	2,340
508,84	2,062
509,04	1,797
509,25	1,731
509,46	1,742
509,67	1,442
509,87	1,306
510,08	1,352
510,29	1,140
510,49	1,016
510,70	0,751
510,91	0,844
511,12	0,660
511,32	0,530
511,53	0,810
511,74	0,531
511,94	0,715
512,15	0,612
512,36	0,561
512,57	0,486
512,77	0,677
512,98	0,330
513,19	0,399
513,39	0,560
513,60	0,637
513,81	0,575
514,01	0,725
514,22	0,682
514,43	0,744
514,64	0,516
514,84	0,590
515,05	0,520
515,26	0,511
515,46	0,674
515,67	0,422
515,88	0,557
516,08	0,633
516,29	0,526
516,50	0,536
516,70	0,387
516,91	0,616
517,12	0,634
517,32	0,685
517,53	0,436
517,74	0,798
517,95	0,430
518,15	0,648
518,36	0,577
518,57	0,563
518,77	0,449
518,98	0,516
519,19	0,553
519,39	0,469
519,60	0,491
519,80	0,720
520,01	0,445
520,22	0,561
520,42	0,621
520,63	0,568
520,84	0,436
521,04	0,465
521,25	0,724
521,46	0,713
521,66	0,477
521,87	0,383
522,08	0,681
522,28	0,671
522,49	0,416
522,70	0,639
522,90	0,749
523,11	0,334
523,31	0,833
523,52	0,641
523,73	0,630
523,93	0,597
524,14	0,505
524,35	0,411
524,55	0,672
524,76	0,450
524,97	0,563
525,17	0,608
525,38	0,607
525,58	0,626
525,79	0,364
526,00	0,503
526,20	0,533
526,41	0,483
526,61	0,450
526,82	0,650
527,03	0,545
527,23	0,561
527,44	0,692
527,64	0,496
527,85	0,616
528,06	0,779
528,26	0,799
528,47	0,708
528,68	0,468
528,88	0,769
529,09	0,591
529,29	0,786
529,50	0,570
529,70	0,690
529,91	0,658
530,12	0,647
530,32	0,583
530,53	0,705
530,73	0,764
530,94	0,512
531,15	0,717
531,35	0,424
531,56	0,488
531,76	0,550
531,97	0,565
532,17	0,617
532,38	0,537
532,59	0,592
532,79	0,725
533,00	0,717
533,20	0,634
533,41	0,559
533,61	0,570
533,82	0,585
534,03	0,572
534,23	0,706
534,44	0,702
534,64	0,620
534,85	0,675
535,05	0,672
535,26	0,628
535,46	0,507
535,67	0,556
535,88	0,603
536,08	0,516
536,29	0,602
536,49	0,694
536,70	0,575
536,90	0,644
537,11	0,596
537,31	0,670
537,52	0,497
537,72	0,710
537,93	0,706
538,13	0,781
538,34	0,705
538,55	0,780
538,75	0,447
538,96	0,611
539,16	0,641
539,37	0,826
539,57	0,669
539,78	0,716
539,98	0,845
540,19	0,743
540,39	0,605
540,60	0,903
540,80	0,782
541,01	0,779
541,21	0,945
541,42	0,959
541,62	0,881
541,83	0,843
542,03	1,133
542,24	0,857
542,44	1,063
542,65	0,951
542,85	1,175
543,06	1,333
543,26	1,487
543,47	1,405
543,67	1,673
543,88	1,938
544,08	1,807
544,29	2,451
544,49	2,495
544,70	2,576
544,90	2,940
545,11	3,158
545,31	3,601
545,52	4,008
545,72	4,657
545,93	4,860
546,13	5,863
546,34	6,062
546,54	7,310
546,75	8,286
546,95	9,217
547,15	10,114
547,36	11,350
547,56	12,816
547,77	13,843
547,97	15,152
548,18	16,972
548,38	18,231
548,59	20,221
548,79	21,684
549,00	23,220
549,20	25,310
549,41	26,712
549,61	28,757
549,81	30,164
550,02	31,839
550,22	33,037
550,43	34,576
550,63	35,663
550,84	36,382
551,04	37,766
551,25	38,368
551,45	38,666
551,65	38,987
551,86	40,140
552,06	40,327
552,27	40,813
552,47	41,284
552,68	41,660
552,88	41,142
553,08	41,408
553,29	41,613
553,49	41,911
553,70	42,126
553,90	41,497
554,11	42,705
554,31	41,984
554,51	42,302
554,72	42,480
554,92	42,705
555,13	43,275
555,33	42,843
555,53	43,459
555,74	42,970
555,94	42,945
556,15	43,627
556,35	43,709
556,56	43,730
556,76	44,053
556,96	43,908
557,17	44,293
557,37	44,118
557,58	44,714
557,78	44,970
557,98	45,664
558,19	45,177
558,39	45,494
558,59	45,590
558,80	46,328
559,00	46,246
559,21	46,517
559,41	46,782
559,61	46,537
559,82	47,322
560,02	46,979
560,23	47,270
560,43	47,625
560,63	47,581
560,84	47,997
561,04	48,010
561,24	48,283
561,45	48,230
561,65	49,104
561,85	49,559
562,06	49,169
562,26	49,996
562,47	50,964
562,67	51,290
562,87	52,894
563,08	53,566
563,28	54,238
563,48	55,343
563,69	57,317
563,89	58,843
564,09	60,218
564,30	61,031
564,50	63,753
564,70	65,280
564,91	66,487
565,11	66,103
565,31	67,441
565,52	67,902
565,72	67,727
565,92	67,986
566,13	68,005
566,33	68,186
566,53	68,382
566,74	68,468
566,94	68,016
567,14	67,662
567,35	66,745
567,55	67,076
567,75	67,697
567,96	67,279
568,16	67,977
568,36	67,224
568,57	67,582
568,77	67,679
568,97	67,768
569,18	68,059
569,38	68,712
569,58	66,442
569,79	67,821
569,99	67,416
570,19	66,636
570,39	66,191
570,60	64,764
570,80	63,675
571,00	63,666
571,21	61,778
571,41	60,963
571,61	59,800
571,82	58,650
572,02	57,306
572,22	56,603
572,42	55,826
572,63	54,408
572,83	53,800
573,03	52,999
573,24	52,122
573,44	51,630
573,64	50,175
573,84	49,816
574,05	49,482
574,25	49,720
574,45	47,810
574,66	47,313
574,86	47,445
575,06	46,255
575,26	45,448
575,47	45,426
575,67	44,457
575,87	44,509
576,07	43,485
576,28	42,806
576,48	42,116
576,68	40,712
576,88	40,370
577,09	40,366
577,29	40,179
577,49	38,968
577,69	38,834
577,90	38,462
578,10	37,921
578,30	37,621
578,50	37,541
578,71	37,775
578,91	37,208
579,11	37,459
579,31	37,402
579,52	37,967
579,72	37,288
579,92	37,289
580,12	38,064
580,33	38,779
580,53	38,762
580,73	38,594
580,93	39,451
581,13	39,926
581,34	40,152
581,54	40,148
581,74	41,292
581,94	41,120
582,15	41,263
582,35	40,805
582,55	40,666
582,75	40,900
582,95	39,993
583,16	40,075
583,36	40,032
583,56	38,753
583,76	38,522
583,96	37,745
584,17	36,892
584,37	36,288
584,57	35,319
584,77	34,118
584,97	33,685
585,18	32,934
585,38	32,288
585,58	31,673
585,78	30,504
585,98	29,605
586,19	29,368
586,39	28,741
586,59	28,661
586,79	28,228
586,99	28,076
587,20	28,068
587,40	28,733
587,60	28,296
587,80	28,787
588,00	29,110
588,20	28,972
588,41	30,379
588,61	30,244
588,81	31,166
589,01	31,677
589,21	31,639
589,41	32,361
589,62	32,913
589,82	33,755
590,02	33,818
590,22	34,517
590,42	34,593
590,62	34,670
590,83	35,005
591,03	34,604
591,23	34,254
591,43	34,702
591,63	33,948
591,83	34,052
592,03	34,026
592,24	33,924
592,44	33,752
592,64	33,422
592,84	32,872
593,04	33,295
593,24	32,795
593,44	32,036
593,65	31,973
593,85	31,706
594,05	31,194
594,25	30,882
594,45	30,945
594,65	30,267
594,85	30,053
595,06	30,050
595,26	29,356
595,46	29,133
595,66	28,567
595,86	28,238
596,06	27,734
596,26	27,537
596,46	27,386
596,66	27,170
596,87	27,024
597,07	26,232
597,27	25,994
597,47	25,679
597,67	25,641
597,87	25,130
598,07	24,322
598,27	23,574
598,47	23,187
598,67	23,162
598,88	22,647
599,08	20,976
599,28	20,824
599,48	19,271
599,68	18,612
599,88	17,939
600,08	16,604
600,28	15,818
600,48	14,777
600,68	13,616
600,88	13,200
601,09	11,920
601,29	11,203
601,49	10,180
601,69	9,442
601,89	8,418
602,09	8,184
602,29	7,968
602,49	7,073
602,69	6,496
602,89	6,040
603,09	5,631
603,29	5,194
603,49	4,936
603,69	4,673
603,90	4,349
604,10	3,975
604,30	3,623
604,50	3,248
604,70	2,961
604,90	2,769
605,10	2,514
605,30	2,189
605,50	1,938
605,70	1,904
605,90	1,691
606,10	1,510
606,30	1,321
606,50	1,280
606,70	1,050
606,90	1,002
607,10	0,934
607,30	0,684
607,50	0,690
607,70	0,746
607,90	0,632
608,10	0,420
608,30	0,492
608,50	0,820
608,70	0,549
608,90	0,632
609,11	0,672
609,31	0,618
609,51	0,717
609,71	0,719
609,91	0,459
610,11	0,685
610,31	0,428
610,51	0,523
610,71	0,511
610,91	0,354
611,11	0,509
611,31	0,531
611,51	0,310
611,71	0,347
611,91	0,533
612,11	0,472
612,31	0,544
612,51	0,574
612,71	0,400
612,91	0,497
613,11	0,600
613,31	0,582
613,51	0,423
613,71	0,437
613,91	0,502
614,11	0,470
614,31	0,564
614,50	0,541
614,70	0,512
614,90	0,455
615,10	0,462
615,30	0,326
615,50	0,266
615,70	0,418
615,90	0,601
616,10	0,395
616,30	0,500
616,50	0,467
616,70	0,632
616,90	0,578
617,10	0,484
617,30	0,563
617,50	0,525
617,70	0,445
617,90	0,711
618,10	0,443
618,30	0,422
618,50	0,489
618,70	0,378
618,90	0,312
619,10	0,418
619,30	0,395
619,49	0,467
619,69	0,489
619,89	0,449
620,09	0,492
620,29	0,489
620,49	0,608
620,69	0,456
620,89	0,389
621,09	0,464
621,29	0,566
621,49	0,300
621,69	0,397
621,89	0,419
622,09	0,391
622,29	0,531
622,48	0,473
622,68	0,215
622,88	0,402
623,08	0,513
623,28	0,416
623,48	0,268
623,68	0,516
623,88	0,396
624,08	0,512
624,28	0,251
624,48	0,536
624,67	0,397
624,87	0,434
625,07	0,334
625,27	0,325
625,47	0,513
625,67	0,661
625,87	0,314
626,07	0,430
626,27	0,475
626,47	0,543
626,66	0,513
626,86	0,401
627,06	0,370
627,26	0,368
627,46	0,346
627,66	0,478
627,86	0,409
628,06	0,486
628,25	0,445
628,45	0,393
628,65	0,383
628,85	0,413
629,05	0,576
629,25	0,371
629,45	0,227
629,65	0,343
629,84	0,455
630,04	0,310
630,24	0,529
630,44	0,304
630,64	0,508
630,84	0,504
631,04	0,469
631,23	0,486
631,43	0,451
631,63	0,429
631,83	0,415
632,03	0,497
632,23	0,446
632,42	0,450
632,62	0,545
632,82	0,291
633,02	0,565
633,22	0,483
633,42	0,435
633,62	0,503
633,81	0,614
634,01	0,439
634,21	0,325
634,41	0,488
634,61	0,554
634,80	0,388
635,00	0,393
635,20	0,382
635,40	0,745
635,60	0,377
635,80	0,332
635,99	0,333
636,19	0,420
636,39	0,682
636,59	0,513
636,79	0,754
636,98	0,692
637,18	0,498
637,38	0,614
637,58	0,522
637,78	0,578
637,97	0,621
638,17	0,767
638,37	0,589
638,57	0,611
638,77	0,610
638,96	0,339
639,16	0,674
639,36	0,715
639,56	0,742
639,76	0,593
639,95	0,618
640,15	0,595
640,35	0,722
640,55	0,460
640,75	0,662
640,94	0,508
641,14	0,433
641,34	0,785
641,54	0,513
641,73	0,527
641,93	0,755
642,13	0,474
642,33	0,765
642,53	0,696
642,72	0,759
642,92	0,627
643,12	0,560
643,32	0,876
643,51	0,703
643,71	0,639
643,91	0,548
644,11	0,678
644,30	0,838
644,50	0,606
644,70	0,802
644,90	0,396
645,09	0,789
645,29	0,296
645,49	0,768
645,69	0,930
645,88	0,489
646,08	0,586
646,28	0,712
646,48	1,002
646,67	0,484
646,87	1,040
647,07	0,634
647,26	0,696
647,46	0,855
647,66	0,890
647,86	1,001
648,05	0,952
648,25	0,858
648,45	0,863
648,65	0,978
648,84	0,598
649,04	1,066
649,24	0,975
649,43	0,905
649,63	1,213
649,83	0,907
650,03	1,092
650,22	0,866
650,42	0,829
650,62	0,352
650,81	0,905
651,01	0,913
651,21	0,846
651,40	0,768
651,60	0,855
651,80	0,674
652,00	0,735
652,19	0,669
652,39	0,851
652,59	0,689
652,78	0,869
652,98	0,415
653,18	0,588
653,37	0,720
653,57	0,665
653,77	0,861
653,96	1,009
654,16	0,822
654,36	0,862
654,55	1,202
654,75	0,767
654,95	1,038
655,14	0,686
655,34	0,959
655,54	0,757
655,73	0,359
655,93	0,902
656,13	0,694
656,32	0,698
656,52	0,777
656,72	1,184
656,91	1,028
657,11	0,740
657,31	0,575
657,50	0,827
657,70	0,884
657,90	0,740
658,09	0,894
658,29	1,098
658,49	0,827
658,68	1,044
658,88	0,895
659,07	0,509
659,27	0,770
659,47	0,955
659,66	0,496
659,86	0,968
660,06	0,558
660,25	0,794
660,45	1,006
660,64	0,883
660,84	0,775
661,04	0,840
661,23	1,016
661,43	0,897
661,63	1,254
661,82	0,579
662,02	1,192
662,21	0,841
662,41	0,527
662,61	0,823
662,80	0,432
663,00	0,769
663,19	0,816
663,39	1,239
663,59	1,080
663,78	0,744
663,98	0,776
664,17	0,692
664,37	1,137
664,57	0,773
664,76	1,495
664,96	0,961
665,15	0,524
665,35	0,912
665,55	0,778
665,74	1,000
665,94	0,802
666,13	1,267
666,33	0,689
666,53	0,980
666,72	0,485
666,92	1,306
667,11	1,036
667,31	0,866
667,50	0,858
667,70	0,741
667,90	0,960
668,09	0,862
668,29	0,845
668,48	0,767
668,68	0,603
668,87	0,661
669,07	0,813
669,26	1,064
669,46	0,820
669,66	0,765
669,85	0,954
670,05	0,575
670,24	0,918
670,44	0,836
670,63	0,491
670,83	0,637
671,02	0,972
671,22	1,030
671,42	0,834
671,61	0,807
671,81	0,516
672,00	0,838
672,20	0,622
672,39	0,478
672,59	0,792
672,78	0,676
672,98	0,501
673,17	0,764
673,37	0,628
673,56	0,670
673,76	0,514
673,95	0,656
674,15	0,563
674,34	0,715
674,54	0,777
674,73	0,590
674,93	0,578
675,13	0,339
675,32	0,714
675,52	0,887
675,71	0,571
675,91	0,753
676,10	0,494
676,30	0,587
676,49	0,455
676,69	0,594
676,88	1,058
677,08	0,694
677,27	0,424
677,47	0,798
677,66	0,831
677,86	0,609
678,05	0,668
678,24	0,552
678,44	0,867
678,63	0,638
678,83	0,611
679,02	0,576
679,22	0,131
679,41	0,435
679,61	0,449
679,80	0,476
680,00	0,655
680,19	0,663
680,39	0,736
680,58	0,251
680,78	0,563
680,97	0,217
681,17	0,587
681,36	0,415
681,56	0,586
681,75	0,619
681,94	0,408
682,14	0,769
682,33	0,379
682,53	0,720
682,72	0,638
682,92	0,821
683,11	0,720
683,31	0,319
683,50	0,540
683,69	0,479
683,89	0,480
684,08	0,475
684,28	0,486
684,47	0,558
684,67	0,472
684,86	0,181
685,06	0,364
685,25	0,309
685,44	0,405
685,64	0,214
685,83	0,560
686,03	0,097
686,22	0,317
686,42	0,329
686,61	0,509
686,80	0,469
687,00	0,401
687,19	0,668
687,39	0,255
687,58	0,442
687,77	0,196
687,97	0,511
688,16	0,144
688,36	0,300
688,55	0,415
688,74	0,339
688,94	0,242
689,13	0,381
689,33	0,273
689,52	0,518
689,71	0,443
689,91	0,365
690,10	0,424
690,30	0,323
690,49	0,522
690,68	0,550
690,88	0,532
691,07	0,165
691,27	0,471
691,46	0,247
691,65	0,496
691,85	0,399
692,04	0,416
692,23	0,404
692,43	0,396
692,62	0,444
692,82	0,587
693,01	0,324
693,20	0,598
693,40	0,182
693,59	0,385
693,78	0,447
693,98	0,241
694,17	0,347
694,36	0,622
694,56	0,439
694,75	0,181
694,94	0,425
695,14	0,408
695,33	0,079
695,53	0,428
695,72	0,499
695,91	0,450
696,11	0,456
696,30	0,276
696,49	0,290
696,69	0,341
696,88	0,255
697,07	0,333
697,27	0,253
697,46	0,456
697,65	0,279
697,85	0,538
698,04	0,471
698,23	0,608
698,43	0,578
698,62	0,371
698,81	0,567
699,01	0,922
699,20	0,641
699,39	0,591
699,58	0,826
699,78	0,755
699,97	0,701
700,16	1,023
700,36	0,658
700,55	1,030
700,74	0,753
700,94	1,023
701,13	0,754
701,32	1,391
701,52	1,130
701,71	0,832
701,90	0,757
702,09	1,254
702,29	1,186
702,48	1,417
702,67	0,854
702,87	0,969
703,06	1,781
703,25	1,914
703,44	1,086
703,64	1,754
703,83	1,815
704,02	2,003
704,22	1,317
704,41	1,001
704,60	2,070
704,79	1,861
704,99	2,265
705,18	2,335
705,37	1,187
705,56	1,259
705,76	2,666
705,95	2,056
706,14	1,811
706,33	3,436
706,53	2,314
706,72	2,388
706,91	3,182
707,11	2,256
707,30	2,403
707,49	3,229
707,68	1,661
707,88	1,842
708,07	2,200
708,26	3,059
708,45	2,827
708,64	2,173
708,84	3,258
709,03	3,083
709,22	2,196
709,41	2,633
709,61	3,852
709,80	4,230
709,99	3,352
710,18	3,982
710,38	2,887
710,57	2,677
710,76	3,533
710,95	4,103
711,14	4,418
711,34	3,369
711,53	4,502
711,72	3,410
711,91	2,797
712,11	5,259
712,30	4,238
712,49	4,393
712,68	5,470
712,87	6,777
713,07	4,698
713,26	4,378
713,45	6,831
713,64	3,073
713,83	3,532
714,03	7,061
714,22	4,528
714,41	4,784
714,60	4,917
714,79	4,474
714,99	5,167
715,18	4,310
715,37	6,582
715,56	4,953
715,75	5,335
715,94	4,489
716,14	4,997
716,33	5,172
716,52	4,517
716,71	7,151
716,90	4,929
717,10	7,561
717,29	4,629
717,48	7,319
717,67	3,844
717,86	6,860
718,05	1,379
718,24	8,029
718,44	7,383
718,63	3,058
718,82	8,312
719,01	7,611
719,20	3,480
719,39	5,163
719,59	2,296
719,78	8,931
719,97	8,229
720,16	8,019
720,35	7,374
720,54	6,700
720,73	6,576
720,93	8,530
721,12	3,911
721,31	8,405
721,50	8,605
721,69	7,096
721,88	7,466
722,07	9,939
722,27	9,106
722,46	6,538
722,65	5,969
722,84	7,849
723,03	2,997
723,22	9,252
723,41	8,172
723,60	10,944
723,79	8,682
723,99	9,192
724,18	11,728
724,37	10,115
724,56	12,578
724,75	8,111
724,94	12,903
725,13	12,889
725,32	10,171
725,51	11,424
725,71	5,871
725,90	8,545
726,09	13,567
726,28	15,098
726,47	5,762
726,66	10,605
726,85	6,762
727,04	10,280
727,23	5,070
727,42	13,659
727,61	6,455
727,81	15,328
728,00	13,299
728,19	8,696
728,38	8,747
728,57	9,119
728,76	14,718
728,95	8,259
729,14	5,436
729,33	17,453
729,52	14,286
729,71	8,840
729,90	9,644
730,09	11,799
730,28	16,051
730,48	9,629
730,67	13,906
730,86	6,343
731,05	14,836
731,24	9,180
731,43	9,308
731,62	13,158
731,81	12,198
732,00	12,579
732,19	6,513
732,38	9,555
732,57	12,398
732,76	12,381
732,95	8,800
733,14	9,493
733,33	9,066
733,52	16,828
733,71	9,195
733,90	14,010
734,09	14,981
734,28	18,483
734,47	11,053
734,66	15,604
734,85	11,206
735,04	19,891
735,23	15,741
735,42	17,579
735,61	19,067
735,81	16,276
736,00	19,578
736,19	17,604
736,38	15,852
736,57	21,448
736,76	10,543
736,95	19,545
737,14	16,869
737,33	19,101
737,52	6,486
737,71	11,378
737,90	21,483
738,09	18,098
738,28	14,992
738,47	17,647
738,66	15,781
738,85	10,825
739,04	12,394
739,22	13,007
739,41	15,968
739,60	12,040
739,79	12,158
739,98	16,697
740,17	23,469
740,36	21,964
740,55	22,575
740,74	15,304
740,93	19,106
741,12	24,081
741,31	22,243
741,50	21,092
741,69	13,889
741,88	12,000
742,07	15,704
742,26	16,854
742,45	13,043
742,64	23,741
742,83	12,766
743,02	21,441
743,21	31,791
743,40	17,658
743,59	21,107
743,78	25,109
743,97	31,015
744,16	13,304
744,34	25,984
744,53	19,057
744,72	28,274
744,91	17,684
745,10	25,370
745,29	13,948
745,48	18,982
745,67	23,422
745,86	15,493
746,05	28,995
746,24	23,312
746,43	26,714
746,62	18,203
746,81	27,854
747,00	24,635
747,18	31,868
747,37	25,586
747,56	23,146
747,75	15,098
747,94	33,479
748,13	24,658
748,32	29,274
748,51	31,377
748,70	25,180
748,89	35,024
749,08	17,714
749,26	21,241
749,45	25,882
749,64	21,340
749,83	17,812
750,02	25,967
750,21	27,566
750,40	21,875
750,59	27,123
750,78	32,544
750,96	23,184
751,15	21,858
751,34	40,838
751,53	34,975
751,72	31,806
751,91	25,479
752,10	13,580
752,29	28,531
752,47	25,000
752,66	31,831
752,85	30,341
753,04	20,505
753,23	29,139
753,42	34,043
753,61	24,837
753,80	27,913
753,98	29,123
754,17	28,834
754,36	25,706
754,55	31,975
754,74	30,058
754,93	34,006
755,12	30,400
755,30	34,072
755,49	39,450
755,68	42,363
755,87	20,420
756,06	42,458
756,25	30,159
756,43	27,241
756,62	35,312
756,81	28,713
757,00	39,420
757,19	40,411
757,38	32,177
757,56	28,387
757,75	35,294
757,94	31,546
758,13	21,104
758,32	28,409
758,51	38,235
758,69	18,400
758,88	29,429
759,07	37,634
759,26	39,070
759,45	31,004
759,63	49,442
759,82	38,047
760,01	24,415
760,20	41,634
760,39	34,701
760,57	45,868
760,76	31,982
760,95	37,037
761,14	31,020
761,33	35,938
761,51	47,670
761,70	52,759
761,89	26,230
762,08	41,395
762,27	30,403
762,45	55,253
762,64	34,799
762,83	47,788
763,02	38,605
763,21	39,224
763,39	26,531
763,58	43,774
763,77	40,541
763,96	60,241
764,14	40,833
764,33	49,451
764,52	48,069
764,71	49,327
764,89	26,471
765,08	44,397
765,27	43,123
765,46	64,130
765,65	36,245
765,83	55,411
766,02	34,043
766,21	53,039
766,40	40,952
766,58	47,561
766,77	34,328
766,96	62,727
767,15	74,396
767,33	42,690
767,52	29,268
767,71	54,783
767,90	47,191
768,08	70,817
768,27	52,500
768,46	42,578
768,64	66,839
768,83	55,729
769,02	38,500
769,21	58,515
769,39	43,023
769,58	47,399
769,77	58,238
769,96	57,592
770,14	30,612
770,33	30,841
770,52	23,280
770,70	56,667
770,89	61,745
771,08	49,576
771,27	77,320
771,45	60,088
771,64	76,042
771,83	46,262
772,01	25,904
772,20	69,849
772,39	41,333
772,57	67,442
772,76	62,963
772,95	58,156
773,14	63,978
773,32	70,323
773,51	67,662
773,70	76,875
773,88	62,295
774,07	61,257
774,26	63,830
774,44	28,049
774,63	68,528
774,82	67,683
775,00	52,000
775,19	76,800
775,38	77,457
775,56	60,417
775,75	66,265
775,94	57,595
776,12	50,829
776,31	64,706
776,50	75,000
776,68	82,632
776,87	59,659
777,06	79,310
777,24	83,333
777,43	60,256
777,62	102,941
777,80	62,838
777,99	55,429
778,18	56,436
778,36	69,600
778,55	77,686
778,74	96,528
778,92	68,639
779,11	97,500
779,29	66,038
779,48	76,190
779,67	65,116
779,85	82,114
780,04	77,297
780,23	55,396
780,41	75,000
780,60	65,263
780,79	80,791
780,97	72,368
781,16	69,091
781,34	131,959
781,53	87,179
781,72	69,343
781,90	72,656
782,09	80,000
782,28	102,920
782,46	67,407
782,65	68,571
782,83	82,022
783,02	95,000
783,21	104,667
783,39	130,435
783,58	79,290
783,76	107,821
783,95	82,424
784,14	84,106
784,32	70,470
784,51	72,414
784,69	106,780
784,88	102,703
785,06	76,471
785,25	82,166
785,44	85,612
785,62	100,714
785,81	129,577
785,99	100,000
786,18	80,405
786,37	100,000
786,55	67,890
786,74	56,579
786,92	123,438
787,11	110,000
787,29	67,910
787,48	56,667
787,67	128,916
787,85	109,483
788,04	62,871
788,22	113,934
788,41	148,235
788,59	116,514
788,78	60,606
788,96	103,774
789,15	141,053
789,34	114,545
789,52	81,416
789,71	91,473
789,89	195,745
790,08	76,712
790,26	82,857
790,45	65,152
790,63	100,000
790,82	107,273
791,00	79,167
791,19	96,774
791,38	88,194
791,56	88,596
791,75	115,596
791,93	131,034
792,12	85,799
792,30	70,400
792,49	90,756
792,67	86,567
792,86	117,054
793,04	123,364
793,23	78,333
793,41	100,000
793,60	108,081
793,78	136,842
793,97	103,846
794,15	96,364
794,34	106,593
794,52	145,455
794,71	103,704
794,89	117,778
795,08	82,524
795,26	101,111
795,45	194,030
795,63	126,515
795,82	105,607
796,00	89,908
796,19	137,500
796,37	108,759
796,56	156,989
796,74	103,540
796,93	124,719
797,11	82,278
797,30	71,667
797,48	111,034
797,67	84,167
797,85	94,898
798,04	122,917
798,22	113,492
798,41	141,176
798,59	88,421
798,77	144,615
798,96	76,344
799,14	98,276
799,33	99,237
799,51	76,154
799,70	114,094
799,88	115,152
800,07	78,947
800,25	73,103
800,44	112,121
800,62	96,471
800,80	157,971
800,99	177,778
801,17	138,793
801,36	89,655
801,54	119,792
801,73	100,000
801,91	102,459
802,10	126,190
802,28	102,804
802,46	108,642
802,65	117,241
802,83	106,742
803,02	142,105
803,20	117,969
803,39	94,828
803,57	162,651
803,75	91,216
803,94	114,286
804,12	84,167
804,31	72,566
804,49	83,654
804,67	121,600
804,86	89,286
805,04	104,730
805,23	107,586
805,41	91,803
805,59	92,623
805,78	103,788
805,96	71,154
806,15	93,750
806,33	70,588
806,51	117,699
806,70	136,667
806,88	91,870
807,07	65,873
807,25	89,937
807,43	74,834
807,62	98,374
807,80	101,075
807,99	112,698
808,17	107,801
808,35	111,404
808,54	129,032
808,72	119,200
808,90	117,105
809,09	86,667
809,27	138,739
809,46	116,071
809,64	110,784
809,82	70,115
810,01	80,303
810,19	112,000
810,37	76,154
810,56	165,854
810,74	50,993
810,92	112,121
811,11	158,824
811,29	117,730
811,48	128,283
811,66	100,000
811,84	119,266
812,03	92,727
812,21	137,179
812,39	98,305
812,58	98,039
812,76	98,131
812,94	93,333
813,13	76,984
813,31	85,000
813,49	142,391
813,68	91,304
813,86	148,980
814,04	125,243
814,23	141,414
814,41	77,941
814,59	99,435
814,78	88,971
814,96	109,009
815,14	147,778
815,33	115,217
815,51	88,148
815,69	102,469
815,87	86,957
816,06	103,750
816,24	88,079
816,42	71,154
816,61	102,542
816,79	156,627
816,97	95,495
817,16	65,806
817,34	105,517
817,52	117,931
817,70	130,159
817,89	62,810
818,07	88,793
818,25	92,793
818,44	75,000
818,62	88,793
818,80	106,294
818,98	136,190
819,17	89,231
819,35	81,765
819,53	87,129
819,72	106,395
819,90	79,641
820,08	62,987
820,26	121,053
820,45	86,145
820,63	92,708
820,81	83,893
820,99	103,008
821,18	57,037
821,36	84,762
821,54	68,605
821,73	78,919
821,91	74,468
822,09	75,294
822,27	68,528
822,46	77,500
822,64	88,079
822,82	68,293
823,00	74,775
823,19	62,121
823,37	98,571
823,55	82,941
823,73	71,333
823,91	61,326
824,10	86,592
824,28	96,296
824,46	49,419
824,64	65,196
824,83	80,488
825,01	75,362
825,19	65,714
825,37	52,604
825,56	76,250
825,74	59,524
825,92	77,528
826,10	100,000
826,28	72,483
826,47	52,033
826,65	61,486
826,83	68,280
827,01	63,636
827,19	68,987
827,38	74,611
827,56	60,096
827,74	65,041
827,92	84,390
828,10	60,326
828,29	54,286
828,47	77,193
828,65	40,000
828,83	57,576
829,01	72,667
829,20	63,924
829,38	37,759
829,56	67,611
829,74	78,030
829,92	37,629
830,10	60,811
830,29	61,081
830,47	79,167
830,65	47,321
830,83	57,143
831,01	54,167
831,20	56,436
831,38	49,756
831,56	53,846
831,74	98,857
831,92	59,091
832,10	46,818
832,29	72,038
832,47	51,770
832,65	70,213
832,83	56,279
833,01	50,198
833,19	45,249
833,37	64,074
833,56	61,033
833,74	47,368
833,92	46,018
834,10	61,421
834,28	54,615
834,46	59,170
834,64	66,406
834,83	49,147
835,01	71,206
835,19	44,076
835,37	48,207
835,55	53,069
835,73	68,750
835,91	47,490
836,09	46,888
836,28	50,382
836,46	46,667
836,64	41,393
836,82	49,627
837,00	49,660
837,18	43,478
837,36	50,802
837,54	37,121
837,72	44,622
837,91	42,169
838,09	40,800
838,27	47,985
838,45	44,660
838,63	34,915
838,81	47,039
838,99	45,993
839,17	56,311
839,35	42,222
839,53	51,678
839,72	44,492
839,90	27,660
840,08	52,564
840,26	47,003
840,44	32,099
840,62	40,404
840,80	43,519
840,98	31,722
841,16	27,402
841,34	31,884
841,52	34,185
841,70	33,670
841,89	41,290
842,07	35,405
842,25	34,416
842,43	43,548
842,61	43,700
842,79	38,110
842,97	36,890
843,15	44,699
843,33	30,641
843,51	38,186
843,69	39,722
843,87	29,380
844,05	29,380
844,23	38,378
844,41	31,658
844,59	33,523
844,77	30,548
844,95	26,699
845,13	33,333
845,31	27,374
845,50	32,990
845,68	27,979
845,86	27,594
846,04	28,395
846,22	23,389
846,40	19,423
846,58	24,129
846,76	27,431
846,94	36,538
847,12	28,436
847,30	28,341
847,48	34,532
847,66	27,073
847,84	24,873
848,02	35,759
848,20	37,969
848,38	30,462
848,56	34,839
848,74	29,132
848,92	20,668
849,10	32,366
849,28	23,312
849,46	20,794
849,64	24,762
849,82	28,606
850,00	26,899
850,18	24,018
850,36	27,632
850,54	30,717
850,72	27,027
850,90	29,927
851,08	27,984
851,26	31,579
851,44	21,687
851,62	29,801
851,80	22,068
851,98	31,687
852,16	36,626
852,34	29,791
852,52	28,827
852,70	13,253
852,87	24,000
853,05	27,054
853,23	21,765
853,41	22,904
853,59	21,698
853,77	21,627
853,95	25,212
854,13	25,437
854,31	25,480
854,49	13,226
854,67	26,128
854,85	21,391
855,03	18,008
855,21	22,504
855,39	21,477
855,57	25,181
855,75	25,632
855,93	20,318
856,11	22,010
856,28	24,132
856,46	15,359
856,64	19,741
856,82	12,740
857,00	26,125
857,18	25,039
857,36	26,555
857,54	17,399
857,72	19,866
857,90	17,957
858,08	20,679
858,26	17,431
858,44	18,478
858,61	16,291
858,79	24,961
858,97	16,619
859,15	20,091
859,33	11,503
859,51	8,307
859,69	13,542
859,87	21,669
860,05	21,199
860,23	15,303
860,40	14,593
860,58	13,937
860,76	24,576
860,94	14,809
861,12	20,255
861,30	18,605
861,48	16,006
861,66	14,859
861,84	23,743
862,01	20,187
862,19	14,499
862,37	17,784
862,55	10,724
862,73	16,712
862,91	13,831
863,09	15,995
863,27	11,560
863,44	16,026
863,62	10,659
863,80	13,103
863,98	14,049
864,16	11,591
864,34	15,584
864,52	12,870
864,69	20,000
864,87	18,474
865,05	14,672
865,23	12,802
865,41	17,998
865,59	14,586
865,76	17,700
865,94	13,048
866,12	12,005
866,30	13,374
866,48	16,459
866,66	17,354
866,83	13,457
867,01	15,928
867,19	12,654
867,37	17,887
867,55	17,892
867,73	15,490
867,90	14,855
868,08	14,597
868,26	8,894
868,44	14,270
868,62	12,957
868,79	14,286
868,97	15,352
869,15	13,057
869,33	9,372
869,51	15,393
869,69	10,949
869,86	11,179
870,04	14,603
870,22	9,365
870,40	9,697
870,57	12,400
870,75	13,506
870,93	13,007
871,11	12,513
871,29	10,976
871,46	13,293
871,64	12,166
871,82	13,561
872,00	15,430
872,18	17,749
872,35	15,686
872,53	13,705
872,71	7,603
872,89	11,399
873,06	11,993
873,24	12,592
873,42	8,423
873,60	9,642
873,77	12,811
873,95	12,221
874,13	12,343
874,31	7,932
874,49	13,775
874,66	4,639
874,84	5,240
875,02	11,229
875,20	9,917
875,37	5,877
875,55	8,129
875,73	8,024
875,91	10,000
876,08	9,634
876,26	10,908
876,44	7,668
876,61	8,473
876,79	10,826
876,97	12,176
877,15	13,588
877,32	9,291
877,50	8,251
877,68	7,862
877,86	6,380
878,03	11,205
878,21	7,375
878,39	8,889
878,56	7,743
878,74	6,074
878,92	6,825
879,10	9,467
879,27	9,709
879,45	11,922
879,63	6,426
879,80	9,313
879,98	6,762
880,16	8,090
880,34	7,562
880,51	10,565
880,69	9,784
880,87	8,385
881,04	6,899
881,22	8,564
881,40	7,043
881,57	6,726
881,75	9,120
881,93	5,734
882,10	6,662
882,28	6,845
882,46	9,731
882,63	8,857
882,81	8,851
882,99	5,670
883,16	6,473
883,34	7,089
883,52	7,445
883,69	7,388
883,87	7,225
884,05	7,742
884,22	5,221
884,40	7,009
884,58	6,648
884,75	5,473
884,93	7,539
885,11	6,638
885,28	7,772
885,46	5,633
885,64	5,864
885,81	7,907
885,99	6,209
886,17	6,713
886,34	5,716
886,52	5,697
886,70	5,665
886,87	6,577
887,05	7,419
887,22	3,690
887,40	6,994
887,58	6,418
887,75	7,827
887,93	6,907
888,11	3,955
888,28	4,931
888,46	4,103
888,63	5,767
888,81	6,089
888,99	4,076
889,16	4,660
889,34	5,231
889,51	6,098
889,69	4,184
889,87	5,686
890,04	3,587
890,22	4,846
890,39	2,963
890,57	6,155
890,75	6,071
890,92	6,019
891,10	5,892
891,27	6,239
891,45	4,542
891,63	5,247
891,80	4,136
891,98	4,898
892,15	4,061
892,33	3,145
892,51	4,825
892,68	3,957
892,86	4,885
893,03	4,110
893,21	3,898
893,38	4,476
893,56	4,011
893,74	4,779
893,91	3,902
894,09	5,934
894,26	4,232
894,44	4,175
894,61	5,002
894,79	4,124
894,96	6,375
895,14	3,994
895,32	3,961
895,49	5,039
895,67	3,153
895,84	5,351
896,02	4,440
896,19	3,778
896,37	5,312
896,54	4,455
896,72	4,422
896,89	3,357
897,07	4,264
897,25	5,968
897,42	3,686
897,60	4,544
897,77	5,318
897,95	4,697
898,12	3,999
898,30	5,167
898,47	4,779
898,65	4,099
898,82	5,285
899,00	4,710
899,17	5,634
899,35	3,818
899,52	3,222
899,70	3,665
899,87	4,918
900,05	5,898
900,22	2,955
900,40	4,120
900,57	4,118
900,75	2,701
900,92	2,809
901,10	4,517
901,27	4,558
901,45	5,121
901,62	4,134
901,80	3,775
901,97	3,409
902,15	5,521
902,32	3,979
902,50	3,404
902,67	3,283
902,85	3,509
903,02	6,344
903,20	3,178
903,37	4,374
903,54	5,530
903,72	2,994
903,89	3,988
904,07	4,597
904,24	3,639
904,42	4,564
904,59	2,495
904,77	3,862
904,94	3,797
905,12	2,209
905,29	4,949
905,47	3,433
905,64	5,071
905,81	4,010
905,99	4,301
906,16	4,477
906,34	4,286
906,51	3,191
906,69	2,670
906,86	2,828
907,03	3,391
907,21	4,154
907,38	3,041
907,56	4,459
907,73	3,795
907,91	4,549
908,08	3,814
908,25	3,261
908,43	2,404
908,60	3,514
908,78	4,167
908,95	4,495
909,13	4,087
909,30	1,884
909,47	4,201
909,65	4,573
909,82	4,116
910,00	2,187
910,17	2,261
910,34	3,434
910,52	2,663
910,69	4,418
910,87	4,548
911,04	3,078
911,21	3,521
911,39	3,791
911,56	3,137
911,73	3,304
911,91	3,830
912,08	4,206
912,26	3,210
912,43	2,982
912,60	4,401
912,78	2,350
912,95	4,090
913,13	4,550
913,30	3,857
913,47	2,899
913,65	2,212
913,82	3,983
913,99	2,706
914,17	2,450
914,34	3,375
914,51	3,805
914,69	3,848
914,86	4,188
915,03	3,811
915,21	3,215
915,38	2,317
915,56	3,102
915,73	2,646
915,90	4,301
916,08	2,703
916,25	3,987
916,42	2,696
916,60	3,030
916,77	2,554
916,94	3,173
917,12	3,332
917,29	2,716
917,46	2,863
917,64	2,716
917,81	2,953
917,98	2,236
918,16	4,753
918,33	3,510
918,50	3,010
918,67	2,215
918,85	2,486
919,02	2,587
919,19	3,606
919,37	2,785
919,54	3,727
919,71	3,979
919,89	2,175
920,06	2,751
920,23	3,289
920,41	2,497
920,58	3,168
920,75	3,104
920,92	2,385
921,10	2,666
921,27	2,056
921,44	3,770
921,62	1,802
921,79	3,346
921,96	2,876
922,13	2,506
922,31	2,837
922,48	2,929
922,65	1,749
922,82	2,144
923,00	3,220
923,17	2,651
923,34	2,908
923,52	2,148
923,69	2,478
923,86	2,422
924,03	1,543
924,21	2,750
924,38	3,689
924,55	4,450
924,72	3,724
924,90	2,926
925,07	2,980
925,24	2,714
925,41	2,389
925,59	1,904
925,76	2,240
925,93	2,638
926,10	2,676
926,28	3,020
926,45	2,960
926,62	2,109
926,79	2,252
926,96	3,293
927,14	3,002
927,31	2,276
927,48	2,348
927,65	2,529
927,83	1,932
928,00	2,034
928,17	1,823
928,34	2,879
928,51	2,134
928,69	2,107
928,86	1,828
929,03	3,383
929,20	3,237
929,37	3,078
929,55	2,111
929,72	2,593
929,89	2,013
930,06	2,063
930,23	2,106
930,41	2,488
930,58	2,616
930,75	2,987
930,92	1,584
931,09	2,503
931,27	2,154
931,44	1,660
931,61	2,836
931,78	2,727
931,95	1,992
932,12	2,445
932,30	2,104
932,47	2,793
932,64	2,122
932,81	2,770
932,98	2,101
933,16	1,755
933,33	2,116
933,50	1,908
933,67	3,644
933,84	2,594
934,01	2,055
934,18	2,383
934,36	1,986
934,53	1,543
934,70	2,335
934,87	2,876
935,04	2,741
935,21	2,159
935,38	1,525
935,56	1,845
935,73	1,944
935,90	1,234
936,07	2,878
936,24	2,601
936,41	3,081
936,58	1,029
936,76	2,432
936,93	1,510
937,10	1,934
937,27	2,601
937,44	1,935
937,61	2,940
937,78	1,799
937,95	2,218
938,13	1,646
938,30	2,237
938,47	3,051
938,64	2,800
938,81	1,927
938,98	2,506
939,15	2,168
939,32	2,280
939,49	2,817
939,66	2,861
939,84	3,096
940,01	2,724
940,18	2,572
940,35	2,088
940,52	1,866
940,69	4,033
940,86	2,691
941,03	1,609
941,20	3,246
941,37	3,300
941,54	1,423
941,71	0,891
941,89	2,728
942,06	2,859
942,23	3,101
942,40	2,790
942,57	3,227
942,74	2,716
942,91	2,790
943,08	4,482
943,25	2,428
943,42	2,943
943,59	3,703
943,76	4,184
943,93	3,277
944,10	2,414
944,27	3,718
944,44	3,155
944,61	2,653
944,79	4,050
944,96	3,761
945,13	3,522
945,30	2,374
945,47	3,823
945,64	4,498
945,81	4,158
945,98	3,536
946,15	4,020
946,32	4,064
946,49	3,986
946,66	3,448
946,83	4,242
947,00	3,685
947,17	3,953
947,34	3,755
947,51	4,113
947,68	4,463
947,85	3,356
948,02	4,491
948,19	5,544
948,36	3,746
948,53	4,424
948,70	4,825
948,87	4,709
949,04	4,478
949,21	2,720
949,38	4,614
949,55	3,755
949,72	5,504
949,89	5,541
950,06	3,897
950,23	6,390
950,40	4,280
950,57	3,455
950,74	7,841
950,91	4,538
951,08	3,895
951,25	4,975
951,42	6,273
951,59	4,230
951,76	4,535
951,93	4,902
952,10	4,488
952,27	4,225
952,44	2,868
952,61	5,618
952,77	3,920
952,94	5,102
953,11	7,789
953,28	6,189
953,45	7,291
953,62	5,542
953,79	6,552
953,96	7,662
954,13	6,880
954,30	6,509
954,47	6,374
954,64	6,440
954,81	6,573
954,98	5,971
955,15	6,484
955,32	6,313
955,49	6,910
955,65	9,058
955,82	9,029
955,99	5,481
956,16	12,352
956,33	6,346
956,50	9,311
956,67	7,213
956,84	9,704
957,01	6,630
957,18	9,138
957,35	8,152
957,52	8,977
957,68	7,750
957,85	10,043
958,02	10,336
958,19	11,575
958,36	10,993
958,53	12,903
958,70	9,683
958,87	10,078
959,04	15,967
959,21	14,444
959,37	10,606
959,54	16,538
959,71	5,989
959,88	12,075
960,05	15,563
960,22	6,272
960,39	16,933
960,56	10,759
960,72	13,425
960,89	15,082
961,06	21,146
961,23	21,397
961,40	14,286
961,57	13,552
961,74	13,608
961,90	17,188
962,07	17,960
962,24	25,528
962,41	11,558
962,58	18,244
962,75	15,398
962,92	25,047
963,08	19,091
963,25	22,883
963,42	18,841
963,59	24,174
963,76	33,483
963,93	23,112
964,10	30,835
964,26	24,561
964,43	28,165
964,60	25,130
964,77	19,036
964,94	23,864
965,10	30,952
965,27	35,509
965,44	30,909
965,61	38,017
965,78	28,754
965,95	28,443
966,11	41,176
966,28	44,610
966,45	36,137
966,62	38,462
966,79	42,041
966,95	43,582
967,12	33,754
967,29	48,264
967,46	52,652
967,63	38,491
967,79	47,748
967,96	48,485
968,13	49,500
968,30	37,903
968,47	51,203
968,63	71,622
968,80	44,037
968,97	55,769
969,14	51,744
969,31	40,000
969,47	37,647
969,64	82,323
969,81	44,041
969,98	67,033
970,14	63,804
970,31	86,164
970,48	96,667
970,65	78,698
970,81	84,247
970,98	89,051
971,15	133,673
971,32	71,875
971,48	68,027
971,65	83,077
971,82	108,824
971,99	89,655
972,15	114,789
972,32	99,099
972,49	101,399
972,66	118,182
972,82	110,465
972,99	95,935
973,16	135,632
973,33	109,821
973,49	100,000
973,66	103,226
973,83	94,175
974,00	133,721
974,16	113,725
974,33	159,649
974,50	97,895
974,67	166,316
974,83	155,952
975,00	114,737
975,17	102,198
975,33	130,337
975,50	153,731
975,67	279,592
975,84	186,567
976,00	123,596
976,17	221,311
976,34	104,000
976,50	202,247
976,67	154,369
976,84	2900,000
977,00	204,082
977,17	157,778
977,34	175,824
977,50	138,806
977,67	191,071
977,84	209,677
978,01	138,298
978,17	900,000
978,34	252,778
978,51	347,059
978,67	157,895
978,84	118,750
979,01	340,541
979,17	207,692
979,34	104,795
979,51	175,510
979,67	185,185
979,84	261,224
980,01	302,222
980,17	269,014
980,34	451,852
980,51	243,478
980,67	229,412
980,84	430,000
981,01	590,000
981,17	672,000
981,34	1055,556
981,50	207,353
981,67	186,441
981,84	5500,000
982,00	313,333
982,17	185,714
982,34	196,667
982,50	1060,000
982,67	186,458
982,84	2760,000
983,00	1216,667
983,17	223,881
983,33	232,759
983,50	2260,000
983,67	-337,931
983,83	406,061
984,00	-1485,714
984,17	772,222
984,33	-4900,000
984,50	314,286
984,66	389,130
984,83	203,896
985,00	-520,833
985,16	410,345
985,33	929,412
985,49	516,667
985,66	438,235
985,83	256,522
985,99	379,487
986,16	-3350,000
986,32	821,429
986,49	12900,000
986,66	387,879
986,82	550,000
986,99	303,774
987,15	-642,105
987,32	-307,143
987,49	204,000
987,65	5250,000
987,82	412,500
987,98	295,918
988,15	376,667
988,31	900,000
988,48	-1866,667
988,65	271,429
988,81	377,778
988,98	317,073
989,14	352,381
989,31	528,571
989,47	379,412
989,64	-684,615
989,80	650,000
989,97	348,649
990,14	-295,652
990,30	-622,727
990,47	351,020
990,63	280,556
990,80	228,000
990,96	-630,000
991,13	446,875
991,29	565,517
991,46	0,000
991,62	-800,000
991,79	958,333
991,95	13000,000
992,12	-1190,000
992,29	-812,500
992,45	155,294
992,62	337,209
992,78	313,636
992,95	-706,667
993,11	467,857
993,28	1140,000
993,44	-1050,000
993,61	-806,250
993,77	-3925,000
993,94	-4933,333
994,10	-145,333
994,27	836,842
994,43	304,651
994,60	0,000
994,76	3050,000
994,93	670,000
995,09	-794,118
995,26	788,889
995,42	276,471
995,59	619,048
995,75	1400,000
995,92	2157,143
996,08	430,556
996,25	-1412,500
996,41	-5300,000
996,58	1153,333
996,74	268,182
996,91	451,724
997,07	0,000
997,23	16500,000
997,40	-17400,000
997,56	-1207,692
997,73	-1300,000
997,89	421,053
998,06	1138,462
998,22	-588,889
998,39	488,000
998,55	1755,556
998,72	-1562,500
998,88	-353,333
999,05	-138,462
999,21	459,524
999,37	-713,333
999,54	-1350,000
999,70	-410,000
999,87	756,250
1000,03	371,795
1000,20	337,500
1000,36	0,000
1000,52	533,333
1000,69	-604,762
1000,85	-1120,000
1001,02	-458,333
1001,18	2350,000
1001,35	1092,308
1001,51	670,588
1001,67	-1130,769
1001,84	-2720,000
1002,00	394,595
1002,17	1300,000
1002,33	-2725,000
1002,50	490,476
1002,66	-792,308
1002,82	275,000
1002,99	1078,571
1003,15	-2000,000
1003,32	-1018,182
1003,48	432,143
1003,64	866,667
1003,81	470,370
1003,97	-5850,000
1004,14	1072,727
1004,30	540,000
1004,46	-453,333
1004,63	1185,714
1004,79	300,000
1004,95	966,667
1005,12	5950,000
1005,28	417,241
1005,45	472,973
1005,61	455,172
1005,77	-235,417
1005,94	-480,952
1006,10	-6150,000
1006,26	892,308
1006,43	-353,846
1006,59	-927,273
1006,76	935,714
1006,92	1433,333
1007,08	6700,000
1007,25	-348,148
1007,41	479,310
1007,57	4700,000
1007,74	1180,000
1007,90	-496,552
1008,06	232,609
1008,23	929,412
1008,39	-793,750
1008,55	-442,308
1008,72	-1700,000
1008,88	0,000
1009,04	358,537
1009,21	-260,526
1009,37	-950,000
1009,53	238,095
1009,70	3366,667
1009,86	-842,857
1010,02	4400,000
1010,19	1036,364
1010,35	289,706
1010,51	-6650,000
1010,68	-1837,500
1010,84	-234,091
1011,00	675,000
1011,17	-481,818
1011,33	0,000
1011,49	-886,667
1011,66	621,429
1011,82	635,484
1011,98	878,571
1012,14	-563,636
1012,31	425,641
1012,47	0,000
1012,63	2116,667
1012,80	1092,857
1012,96	-850,000
1013,12	-1750,000
1013,29	627,778
1013,45	387,805
1013,61	4633,333
1013,77	-214,286
1013,94	2940,000
1014,10	210,169
1014,26	-1800,000
1014,43	-388,000
1014,59	590,000
1014,75	-605,556
1014,91	-533,333
1015,08	408,333
1015,24	14400,000
1015,40	588,235
1015,56	-15200,000
1015,73	311,905
1015,89	918,182
1016,05	3850,000
1016,21	-962,500
1016,38	747,368
1016,54	1323,077
1016,70	-3433,333
1016,86	550,000
1017,03	875,000
1017,19	-900,000
1017,35	-864,706
1017,51	-1980,000
1017,68	-800,000
1017,84	-1485,714
1018,00	335,714
1018,16	415,385
1018,33	-1442,857
1018,49	-966,667
1018,65	-289,189
1018,81	338,462
1018,97	-1657,143
1019,14	-3300,000
1019,30	-269,231
1019,46	0,000
1019,62	-500,000
1019,79	-4466,667
1019,95	1475,000
1020,11	8650,000
1020,27	-459,259
1020,43	-488,462
1020,60	1866,667
1020,76	900,000
1020,92	920,000
1021,08	825,000
1021,24	1290,000
1021,41	1688,889
1021,57	1862,500
1021,73	1207,692
1021,89	3060,000
1022,05	-428,571
1022,21	695,000
1022,38	-758,333
1022,54	-2183,333
1022,70	373,333
1022,86	-1487,500
1023,02	525,000
1023,19	2560,000
1023,35	4933,333
1023,51	595,833
1023,67	322,222
1023,83	-656,250
1023,99	355,263
1024,16	-496,154
1024,32	-1044,444
1024,48	-1360,000
1024,64	335,714
1024,80	534,783
1024,96	407,692
1025,12	633,333
1025,29	509,524
1025,45	339,474
1025,61	744,444
1025,77	-2120,000
1025,93	-9300,000
1026,09	-1728,571
1026,26	1175,000
1026,42	450,000
1026,58	554,545
1026,74	1350,000
1026,90	400,000
1027,06	500,000
1027,22	1164,286
1027,38	292,308
1027,55	3933,333
1027,71	2066,667
1027,87	-292,000
1028,03	1260,000
1028,19	371,875
1028,35	630,000
1028,51	1980,000
1028,67	866,667
1028,83	-1875,000
1029,00	-302,381
1029,16	1490,000
1029,32	-275,000
1029,48	282,222
1029,64	300,000
1029,80	6550,000
1029,96	980,000
1030,12	708,696
1030,28	-3466,667
1030,44	-700,000
1030,61	-637,500
1030,77	-328,571
1030,93	-780,000
1031,09	2083,333
1031,25	-11000,000
1031,41	-306,667
1031,57	346,154
1031,73	775,000
1031,89	-1336,364
1032,05	-388,889
1032,21	1536,364
1032,37	-181,481
1032,53	-942,857
1032,69	-308,333
1032,86	485,185
1033,02	-290,000
1033,18	-793,750
1033,34	557,895
1033,50	-6550,000
1033,66	-239,024
1033,82	500,000
1033,98	-362,963
1034,14	193,590
1034,30	435,484
1034,46	-3500,000
1034,62	575,000
1034,78	-719,048
1034,94	342,105
1035,10	-884,615
1035,26	-234,884
1035,42	-406,897
1035,58	-366,667
1035,74	1158,333
1035,90	-876,923
1036,06	-2133,333
1036,22	1833,333
1036,38	-758,824
1036,54	-387,500
1036,70	-275,758
1036,86	12800,000
1037,02	794,444
1037,18	889,474
1037,34	180,000
1037,50	-197,561
1037,66	-482,353
1037,82	2340,000
1037,98	-451,852
1038,14	-432,000
1038,30	-1375,000
1038,46	-671,429
1038,62	682,609
1038,78	-4700,000
1038,94	-673,684
1039,10	472,727
1039,26	459,259
1039,42	-900,000
1039,58	1942,857
1039,74	-889,474
1039,90	346,875
1040,06	-284,615
>>>>>End Processed Spectral Data<<<<<
