SpectraSuite Data File
++++++++++++++++++++++++++++++++++++
Date: Wed Feb 01 16:34:45 EET 2017
User: optolab
Dark Spectrum Present: Yes
Reference Spectrum Present: Yes
Number of Sampled Component Spectra: 1
Spectrometers: USB4C02475
Integration Time (usec): 100000 (USB4C02475)
Spectra Averaged: 1 (USB4C02475)
Boxcar Smoothing: 0 (USB4C02475)
Correct for Electrical Dark: No (USB4C02475)
Strobe/Lamp Enabled: No (USB4C02475)
Correct for Detector Non-linearity: No (USB4C02475)
Correct for Stray Light: No (USB4C02475)
Number of Pixels in Processed Spectrum: 3648
>>>>>Begin Processed Spectral Data<<<<<
344,91	4150,000
345,13	4150,000
345,35	4150,000
345,57	0,000
345,79	521,053
346,00	-2133,333
346,22	-2171,429
346,44	391,176
346,66	-633,333
346,87	-12800,000
347,09	469,697
347,31	-577,273
347,53	-228,205
347,74	227,692
347,96	421,212
348,18	778,947
348,40	383,871
348,61	1217,647
348,83	407,143
349,05	219,608
349,27	-5250,000
349,48	603,846
349,70	-389,655
349,92	403,226
350,14	232,075
350,35	322,000
350,57	2400,000
350,79	560,000
351,01	-990,476
351,22	329,630
351,44	892,308
351,66	-332,000
351,87	-561,905
352,09	307,692
352,31	240,984
352,53	218,750
352,74	383,333
352,96	262,338
353,18	710,526
353,40	556,000
353,61	357,778
353,83	405,882
354,05	1027,273
354,26	2833,333
354,48	266,000
354,70	442,424
354,92	-289,655
355,13	189,899
355,35	370,455
355,57	595,833
355,78	178,313
356,00	-4550,000
356,22	403,846
356,44	7050,000
356,65	370,455
356,87	626,923
357,09	512,500
357,30	306,667
357,52	258,621
357,74	825,000
357,95	279,487
358,17	265,574
358,39	290,323
358,60	359,459
358,82	529,167
359,04	555,556
359,26	474,286
359,47	5800,000
359,69	295,000
359,91	436,364
360,12	533,333
360,34	545,833
360,56	-77,778
360,77	3500,000
360,99	823,810
361,21	306,000
361,42	3550,000
361,64	251,020
361,86	261,538
362,07	-561,290
362,29	182,667
362,51	-635,294
362,72	620,000
362,94	450,000
363,16	262,791
363,37	-814,286
363,59	469,231
363,81	334,091
364,02	761,111
364,24	575,000
364,46	2400,000
364,67	900,000
364,89	2500,000
365,11	171,429
365,32	527,586
365,54	352,778
365,76	361,224
365,97	423,529
366,19	224,138
366,41	704,545
366,62	511,111
366,84	283,721
367,05	297,959
367,27	1883,333
367,49	-600,000
367,70	570,588
367,92	244,262
368,14	283,333
368,35	-12000,000
368,57	548,000
368,79	365,517
369,00	326,087
369,22	-1375,000
369,43	242,353
369,65	212,903
369,87	505,405
370,08	149,398
370,30	307,143
370,51	232,787
370,73	211,111
370,95	251,613
371,16	259,524
371,38	326,667
371,60	1050,000
371,81	189,063
372,03	953,333
372,24	373,333
372,46	235,849
372,68	212,857
372,89	439,394
373,11	492,308
373,32	363,636
373,54	-823,077
373,76	969,231
373,97	853,333
374,19	540,909
374,40	373,437
374,62	-3566,667
374,84	4325,000
375,05	457,143
375,27	392,000
375,48	-12800,000
375,70	209,333
375,92	242,857
376,13	446,875
376,35	261,644
376,56	893,750
376,78	226,389
376,99	432,143
377,21	225,000
377,43	189,394
377,64	194,203
377,86	451,724
378,07	384,615
378,29	-1662,500
378,51	480,645
378,72	333,333
378,94	-1633,333
379,15	236,364
379,37	811,765
379,58	246,154
379,80	580,000
380,01	718,750
380,23	301,961
380,45	1700,000
380,66	4166,667
380,88	156,818
381,09	208,571
381,31	171,111
381,52	247,059
381,74	1644,444
381,95	695,455
382,17	476,923
382,39	609,524
382,60	206,122
382,82	400,000
383,03	259,615
383,25	358,065
383,46	329,545
383,68	474,074
383,89	745,000
384,11	416,129
384,32	-3900,000
384,54	550,000
384,76	-3600,000
384,97	351,515
385,19	527,586
385,40	225,490
385,62	270,175
385,83	347,619
386,05	241,176
386,26	354,000
386,48	233,333
386,69	295,833
386,91	430,000
387,12	300,000
387,34	246,552
387,55	250,000
387,77	446,875
387,98	511,538
388,20	189,130
388,41	250,000
388,63	9700,000
388,84	195,082
389,06	350,000
389,27	594,737
389,49	405,556
389,70	342,857
389,92	343,333
390,13	275,510
390,35	245,098
390,56	314,815
390,78	551,852
390,99	1190,000
391,21	578,947
391,42	360,000
391,64	329,268
391,85	168,966
392,07	168,182
392,28	144,000
392,50	293,939
392,71	-862,500
392,93	234,615
393,14	458,333
393,36	210,204
393,57	129,323
393,79	766,667
394,00	206,383
394,22	146,575
394,43	171,084
394,65	223,256
394,86	1387,500
395,08	623,810
395,29	194,340
395,50	446,154
395,72	505,556
395,93	733,333
396,15	178,873
396,36	152,941
396,58	260,000
396,79	340,000
397,01	296,000
397,22	244,444
397,44	237,879
397,65	164,912
397,87	302,381
398,08	279,592
398,29	334,375
398,51	253,571
398,72	280,488
398,94	158,462
399,15	460,000
399,37	180,702
399,58	146,154
399,80	350,000
400,01	244,444
400,22	457,143
400,44	216,049
400,65	450,000
400,87	167,647
401,08	117,143
401,30	204,348
401,51	191,228
401,72	465,385
401,94	196,203
402,15	530,000
402,37	155,462
402,58	583,333
402,80	311,429
403,01	207,042
403,22	981,818
403,44	247,826
403,65	242,857
403,87	235,714
404,08	356,410
404,30	174,118
404,51	-3833,333
404,72	182,857
404,94	141,176
405,15	210,000
405,37	206,329
405,58	192,941
405,79	148,780
406,01	390,244
406,22	194,828
406,44	300,000
406,65	182,456
406,86	133,333
407,08	165,823
407,29	167,961
407,51	143,902
407,72	165,741
407,93	185,870
408,15	120,513
408,36	158,140
408,58	157,732
408,79	107,500
409,00	123,958
409,22	249,206
409,43	135,443
409,64	91,304
409,86	89,937
410,07	92,308
410,29	108,209
410,50	131,206
410,71	76,786
410,93	117,197
411,14	127,907
411,35	107,738
411,57	103,289
411,78	126,563
412,00	117,197
412,21	98,065
412,42	111,640
412,64	72,103
412,85	77,835
413,06	108,537
413,28	70,270
413,49	89,573
413,70	79,710
413,92	63,636
414,13	55,187
414,34	60,536
414,56	56,294
414,77	79,325
414,98	52,013
415,20	50,173
415,41	58,357
415,63	38,060
415,84	51,111
416,05	42,308
416,27	48,062
416,48	48,315
416,69	57,965
416,91	43,514
417,12	40,107
417,33	50,105
417,55	41,449
417,76	52,567
417,97	44,191
418,19	29,423
418,40	45,106
418,61	44,630
418,83	37,455
419,04	41,640
419,25	41,277
419,46	40,150
419,68	39,206
419,89	41,580
420,10	42,041
420,32	35,990
420,53	39,037
420,74	41,042
420,96	34,750
421,17	37,413
421,38	33,950
421,60	35,982
421,81	38,838
422,02	32,706
422,23	26,573
422,45	28,059
422,66	32,998
422,87	31,212
423,09	29,071
423,30	28,854
423,51	27,717
423,73	30,158
423,94	28,081
424,15	22,653
424,36	25,387
424,58	24,625
424,79	23,235
425,00	23,282
425,22	21,867
425,43	21,938
425,64	21,505
425,85	18,934
426,07	19,388
426,28	16,933
426,49	17,810
426,71	17,453
426,92	14,646
427,13	12,703
427,34	12,563
427,56	15,502
427,77	12,650
427,98	14,981
428,19	10,405
428,41	13,550
428,62	11,419
428,83	13,220
429,04	12,040
429,26	10,936
429,47	12,801
429,68	9,650
429,89	9,186
430,11	9,516
430,32	9,504
430,53	8,935
430,74	7,858
430,96	7,858
431,17	7,436
431,38	5,643
431,59	5,615
431,81	6,033
432,02	5,568
432,23	5,331
432,44	4,413
432,66	5,570
432,87	3,724
433,08	4,364
433,29	4,577
433,51	2,994
433,72	3,613
433,93	2,700
434,14	3,967
434,35	3,214
434,57	2,767
434,78	2,509
434,99	3,111
435,20	3,263
435,42	2,674
435,63	2,558
435,84	2,522
436,05	2,414
436,26	2,037
436,48	2,214
436,69	1,131
436,90	2,076
437,11	1,606
437,32	1,789
437,54	1,496
437,75	1,382
437,96	2,155
438,17	1,017
438,38	1,885
438,60	1,498
438,81	1,092
439,02	1,070
439,23	0,977
439,44	1,700
439,66	1,367
439,87	1,592
440,08	1,035
440,29	0,709
440,50	1,137
440,72	1,220
440,93	0,932
441,14	1,087
441,35	1,347
441,56	0,975
441,77	1,030
441,99	0,957
442,20	0,806
442,41	0,882
442,62	0,682
442,83	0,774
443,04	0,935
443,26	0,472
443,47	1,414
443,68	0,685
443,89	0,922
444,10	0,750
444,31	0,975
444,53	0,792
444,74	0,911
444,95	0,820
445,16	0,780
445,37	0,997
445,58	0,719
445,80	0,709
446,01	0,806
446,22	0,798
446,43	0,672
446,64	0,669
446,85	0,707
447,06	0,672
447,28	0,713
447,49	0,804
447,70	0,828
447,91	0,871
448,12	0,567
448,33	0,775
448,54	0,581
448,76	0,702
448,97	0,945
449,18	0,738
449,39	0,767
449,60	0,703
449,81	0,862
450,02	0,938
450,23	0,804
450,45	0,855
450,66	0,886
450,87	0,827
451,08	0,715
451,29	1,205
451,50	0,879
451,71	0,844
451,92	0,751
452,13	0,270
452,35	1,116
452,56	0,807
452,77	1,081
452,98	0,847
453,19	0,696
453,40	0,645
453,61	1,020
453,82	0,951
454,03	0,690
454,25	1,068
454,46	0,580
454,67	0,789
454,88	1,010
455,09	1,068
455,30	0,982
455,51	0,751
455,72	0,832
455,93	0,882
456,14	0,936
456,35	1,063
456,56	0,851
456,78	0,797
456,99	1,049
457,20	1,093
457,41	0,608
457,62	0,636
457,83	0,787
458,04	0,831
458,25	0,780
458,46	0,786
458,67	0,986
458,88	1,030
459,09	0,751
459,30	0,908
459,51	0,738
459,73	0,751
459,94	1,117
460,15	0,986
460,36	1,023
460,57	1,009
460,78	1,185
460,99	1,219
461,20	1,297
461,41	1,407
461,62	1,638
461,83	2,094
462,04	2,375
462,25	2,894
462,46	2,921
462,67	3,405
462,88	3,898
463,09	4,751
463,30	4,721
463,51	5,907
463,72	6,242
463,93	6,927
464,15	7,811
464,36	8,688
464,57	9,846
464,78	10,571
464,99	11,846
465,20	13,102
465,41	14,711
465,62	15,669
465,83	16,989
466,04	18,086
466,25	19,470
466,46	20,973
466,67	22,008
466,88	24,106
467,09	24,745
467,30	26,300
467,51	28,035
467,72	29,424
467,93	30,203
468,14	31,565
468,35	32,539
468,56	33,838
468,77	34,555
468,98	35,809
469,19	35,635
469,40	36,629
469,61	36,942
469,82	37,220
470,03	37,803
470,24	37,488
470,45	37,568
470,66	37,576
470,87	37,430
471,08	37,163
471,29	36,372
471,50	36,489
471,71	36,376
471,92	35,731
472,13	35,965
472,34	35,419
472,55	35,343
472,76	35,707
472,97	34,896
473,18	34,466
473,39	34,066
473,60	33,817
473,81	33,462
474,01	32,502
474,22	32,125
474,43	31,679
474,64	31,091
474,85	29,598
475,06	28,731
475,27	28,482
475,48	27,466
475,69	26,626
475,90	26,210
476,11	25,890
476,32	24,964
476,53	24,619
476,74	23,559
476,95	23,138
477,16	22,361
477,37	21,852
477,58	21,228
477,79	20,863
478,00	19,987
478,21	19,667
478,41	19,451
478,62	18,989
478,83	18,241
479,04	18,456
479,25	17,969
479,46	17,605
479,67	17,102
479,88	17,469
480,09	17,207
480,30	17,142
480,51	17,405
480,72	16,706
480,93	16,850
481,14	16,621
481,34	16,961
481,55	17,142
481,76	16,665
481,97	17,384
482,18	17,424
482,39	17,235
482,60	17,611
482,81	17,840
483,02	17,466
483,23	17,589
483,44	17,789
483,65	17,617
483,85	17,619
484,06	17,502
484,27	17,020
484,48	16,821
484,69	16,920
484,90	16,392
485,11	15,717
485,32	15,836
485,53	15,838
485,73	15,659
485,94	14,952
486,15	14,903
486,36	14,402
486,57	14,057
486,78	14,202
486,99	14,225
487,20	14,039
487,41	13,873
487,61	14,572
487,82	14,490
488,03	15,064
488,24	15,646
488,45	16,046
488,66	16,578
488,87	17,363
489,08	17,790
489,28	18,467
489,49	19,193
489,70	19,752
489,91	20,353
490,12	21,017
490,33	21,538
490,54	22,143
490,74	22,777
490,95	23,575
491,16	24,256
491,37	24,911
491,58	25,603
491,79	25,692
492,00	26,260
492,20	25,706
492,41	26,343
492,62	26,200
492,83	25,798
493,04	25,225
493,25	25,064
493,45	24,445
493,66	23,249
493,87	22,388
494,08	21,748
494,29	20,669
494,50	20,154
494,70	19,406
494,91	18,968
495,12	17,639
495,33	16,326
495,54	15,666
495,75	14,645
495,95	13,247
496,16	12,129
496,37	11,321
496,58	10,653
496,79	9,096
496,99	8,367
497,20	7,771
497,41	7,013
497,62	6,440
497,83	5,733
498,04	5,073
498,24	4,473
498,45	3,810
498,66	3,801
498,87	3,291
499,08	3,214
499,28	2,956
499,49	2,937
499,70	2,880
499,91	2,691
500,12	2,564
500,32	2,394
500,53	2,184
500,74	2,399
500,95	2,415
501,15	2,201
501,36	2,198
501,57	2,180
501,78	2,143
501,99	2,022
502,19	1,618
502,40	1,763
502,61	1,740
502,82	1,858
503,02	1,455
503,23	1,605
503,44	1,319
503,65	1,323
503,86	1,137
504,06	0,929
504,27	0,970
504,48	0,871
504,69	0,863
504,89	0,754
505,10	0,690
505,31	0,677
505,52	0,499
505,72	0,567
505,93	0,533
506,14	0,770
506,35	0,412
506,55	0,571
506,76	0,415
506,97	0,419
507,18	0,518
507,38	0,600
507,59	0,555
507,80	0,544
508,01	0,494
508,21	0,465
508,42	0,647
508,63	0,688
508,84	0,615
509,04	0,528
509,25	0,532
509,46	0,565
509,67	0,477
509,87	0,531
510,08	0,720
510,29	0,689
510,49	0,457
510,70	0,473
510,91	0,495
511,12	0,557
511,32	0,363
511,53	0,767
511,74	0,523
511,94	0,632
512,15	0,430
512,36	0,449
512,57	0,502
512,77	0,451
512,98	0,508
513,19	0,520
513,39	0,436
513,60	0,533
513,81	0,482
514,01	0,539
514,22	0,694
514,43	0,764
514,64	0,585
514,84	0,622
515,05	0,569
515,26	0,471
515,46	0,416
515,67	0,454
515,88	0,497
516,08	0,544
516,29	0,653
516,50	0,584
516,70	0,411
516,91	0,704
517,12	0,567
517,32	0,665
517,53	0,472
517,74	0,681
517,95	0,474
518,15	0,561
518,36	0,553
518,57	0,539
518,77	0,506
518,98	0,455
519,19	0,365
519,39	0,389
519,60	0,523
519,80	0,624
520,01	0,655
520,22	0,553
520,42	0,633
520,63	0,628
520,84	0,327
521,04	0,562
521,25	0,732
521,46	0,677
521,66	0,546
521,87	0,387
522,08	0,575
522,28	0,793
522,49	0,292
522,70	0,587
522,90	0,637
523,11	0,517
523,31	0,752
523,52	0,476
523,73	0,630
523,93	0,641
524,14	0,509
524,35	0,444
524,55	0,708
524,76	0,470
524,97	0,732
525,17	0,519
525,38	0,611
525,58	0,606
525,79	0,509
526,00	0,621
526,20	0,601
526,41	0,394
526,61	0,625
526,82	0,600
527,03	0,573
527,23	0,605
527,44	0,538
527,64	0,418
527,85	0,542
528,06	0,545
528,26	0,855
528,47	0,602
528,68	0,460
528,88	0,681
529,09	0,615
529,29	0,644
529,50	0,488
529,70	0,772
529,91	0,650
530,12	0,631
530,32	0,651
530,53	0,624
530,73	0,764
530,94	0,643
531,15	0,758
531,35	0,484
531,56	0,736
531,76	0,530
531,97	0,742
532,17	0,641
532,38	0,688
532,59	0,889
532,79	0,919
533,00	0,847
533,20	0,994
533,41	0,764
533,61	0,826
533,82	0,999
534,03	0,751
534,23	1,065
534,44	1,018
534,64	1,117
534,85	1,252
535,05	1,291
535,26	1,276
535,46	1,514
535,67	1,722
535,88	1,757
536,08	1,878
536,29	1,953
536,49	2,522
536,70	2,550
536,90	2,950
537,11	3,079
537,31	3,474
537,52	3,964
537,72	4,418
537,93	5,199
538,13	5,524
538,34	6,647
538,55	7,121
538,75	8,155
538,96	9,110
539,16	10,234
539,37	11,211
539,57	12,446
539,78	14,381
539,98	15,762
540,19	17,186
540,39	19,031
540,60	20,451
540,80	22,852
541,01	23,788
541,21	26,014
541,42	27,305
541,62	28,513
541,83	30,067
542,03	31,532
542,24	32,217
542,44	32,805
542,65	34,508
542,85	35,265
543,06	36,204
543,26	36,096
543,47	37,504
543,67	38,016
543,88	38,405
544,08	39,125
544,29	39,041
544,49	38,844
544,70	39,896
544,90	39,239
545,11	40,264
545,31	40,050
545,52	40,160
545,72	39,457
545,93	40,169
546,13	39,478
546,34	40,355
546,54	39,862
546,75	40,081
546,95	40,307
547,15	40,569
547,36	40,993
547,56	40,566
547,77	40,996
547,97	41,296
548,18	41,056
548,38	41,556
548,59	41,873
548,79	42,061
549,00	42,064
549,20	42,297
549,41	42,830
549,61	43,511
549,81	43,988
550,02	43,293
550,22	43,752
550,43	44,559
550,63	44,452
550,84	44,115
551,04	45,518
551,25	46,017
551,45	45,388
551,65	46,143
551,86	46,563
552,06	46,057
552,27	46,679
552,47	46,426
552,68	46,873
552,88	45,783
553,08	46,365
553,29	46,155
553,49	46,144
553,70	46,964
553,90	46,495
554,11	46,014
554,31	45,908
554,51	45,898
554,72	45,888
554,92	45,445
555,13	46,333
555,33	45,416
555,53	45,932
555,74	45,997
555,94	46,302
556,15	45,824
556,35	46,347
556,56	45,974
556,76	45,766
556,96	46,235
557,17	46,651
557,37	46,987
557,58	48,144
557,78	47,981
557,98	49,265
558,19	49,642
558,39	50,219
558,59	51,642
558,80	51,680
559,00	52,073
559,21	52,785
559,41	52,288
559,61	52,371
559,82	53,189
560,02	52,652
560,23	52,002
560,43	51,745
560,63	50,966
560,84	50,620
561,04	49,892
561,24	48,972
561,45	48,895
561,65	48,664
561,85	47,743
562,06	46,361
562,26	46,172
562,47	45,571
562,67	45,205
562,87	45,110
563,08	44,041
563,28	43,992
563,48	43,533
563,69	43,090
563,89	43,046
564,09	42,743
564,30	42,646
564,50	42,694
564,70	43,559
564,91	42,804
565,11	42,249
565,31	42,230
565,52	41,577
565,72	42,455
565,92	41,929
566,13	42,307
566,33	41,890
566,53	41,797
566,74	41,642
566,94	41,271
567,14	40,492
567,35	39,466
567,55	39,534
567,75	39,169
567,96	38,614
568,16	37,700
568,36	37,370
568,57	37,131
568,77	36,109
568,97	35,623
569,18	35,631
569,38	35,371
569,58	34,651
569,79	34,721
569,99	34,527
570,19	34,264
570,39	34,019
570,60	33,980
570,80	33,616
571,00	34,331
571,21	34,285
571,41	34,558
571,61	34,881
571,82	35,262
572,02	35,620
572,22	35,799
572,42	36,387
572,63	36,762
572,83	37,537
573,03	37,756
573,24	38,358
573,44	38,440
573,64	38,803
573,84	38,763
574,05	38,867
574,25	39,265
574,45	38,381
574,66	37,620
574,86	38,004
575,06	37,093
575,26	35,725
575,47	35,749
575,67	34,828
575,87	33,982
576,07	32,905
576,28	32,210
576,48	31,245
576,68	30,291
576,88	28,731
577,09	28,767
577,29	27,412
577,49	26,474
577,69	25,770
577,90	25,672
578,10	24,336
578,30	24,236
578,50	24,575
578,71	24,021
578,91	23,648
579,11	24,245
579,31	23,725
579,52	24,208
579,72	24,431
579,92	25,289
580,12	25,489
580,33	26,179
580,53	26,531
580,73	27,077
580,93	27,479
581,13	28,246
581,34	28,689
581,54	28,559
581,74	29,078
581,94	30,068
582,15	29,960
582,35	30,622
582,55	30,328
582,75	30,427
582,95	30,422
583,16	30,258
583,36	30,303
583,56	29,919
583,76	29,322
583,96	29,299
584,17	29,636
584,37	29,445
584,57	28,947
584,77	28,995
584,97	29,195
585,18	28,989
585,38	28,867
585,58	29,058
585,78	28,578
585,98	29,071
586,19	28,501
586,39	28,680
586,59	28,321
586,79	28,271
586,99	28,227
587,20	27,545
587,40	27,682
587,60	27,062
587,80	26,930
588,00	26,477
588,20	25,868
588,41	26,097
588,61	25,316
588,81	25,024
589,01	25,136
589,21	24,563
589,41	24,773
589,62	24,113
589,82	23,972
590,02	23,166
590,22	22,958
590,42	22,041
590,62	20,954
590,83	19,964
591,03	19,303
591,23	18,411
591,43	17,582
591,63	16,438
591,83	14,888
592,03	14,536
592,24	13,343
592,44	12,516
592,64	11,157
592,84	10,408
593,04	10,070
593,24	8,937
593,44	8,235
593,65	7,830
593,85	7,189
594,05	6,464
594,25	6,419
594,45	5,914
594,65	5,339
594,85	5,153
595,06	5,020
595,26	5,059
595,46	4,711
595,66	4,699
595,86	4,501
596,06	4,265
596,26	4,248
596,46	4,167
596,66	3,969
596,87	3,606
597,07	3,464
597,27	2,971
597,47	3,148
597,67	2,943
597,87	2,588
598,07	2,220
598,27	2,131
598,47	1,885
598,67	1,607
598,88	1,559
599,08	1,274
599,28	1,214
599,48	1,183
599,68	1,031
599,88	0,877
600,08	0,906
600,28	0,993
600,48	0,772
600,68	0,609
600,88	0,660
601,09	0,535
601,29	0,460
601,49	0,567
601,69	0,559
601,89	0,540
602,09	0,403
602,29	0,645
602,49	0,557
602,69	0,459
602,89	0,440
603,09	0,473
603,29	0,421
603,49	0,481
603,69	0,566
603,90	0,538
604,10	0,519
604,30	0,562
604,50	0,483
604,70	0,496
604,90	0,390
605,10	0,435
605,30	0,390
605,50	0,236
605,70	0,631
605,90	0,439
606,10	0,399
606,30	0,470
606,50	0,580
606,70	0,387
606,90	0,451
607,10	0,494
607,30	0,463
607,50	0,322
607,70	0,390
607,90	0,435
608,10	0,251
608,30	0,362
608,50	0,583
608,70	0,387
608,90	0,316
609,11	0,758
609,31	0,598
609,51	0,472
609,71	0,481
609,91	0,342
610,11	0,296
610,31	0,428
610,51	0,457
610,71	0,313
610,91	0,067
611,11	0,690
611,31	0,317
611,51	0,397
611,71	0,508
611,91	0,494
612,11	0,421
612,31	0,588
612,51	0,438
612,71	0,451
612,91	0,394
613,11	0,502
613,31	0,413
613,51	0,427
613,71	0,449
613,91	0,525
614,11	0,398
614,31	0,482
614,50	0,450
614,70	0,535
614,90	0,455
615,10	0,536
615,30	0,479
615,50	0,336
615,70	0,281
615,90	0,530
616,10	0,457
616,30	0,575
616,50	0,557
616,70	0,433
616,90	0,346
617,10	0,484
617,30	0,394
617,50	0,459
617,70	0,421
617,90	0,486
618,10	0,306
618,30	0,221
618,50	0,517
618,70	0,288
618,90	0,196
619,10	0,301
619,30	0,486
619,49	0,507
619,69	0,311
619,89	0,374
620,09	0,424
620,29	0,469
620,49	0,517
620,69	0,432
620,89	0,318
621,09	0,421
621,29	0,455
621,49	0,315
621,69	0,428
621,89	0,423
622,09	0,293
622,29	0,488
622,48	0,319
622,68	0,242
622,88	0,325
623,08	0,497
623,28	0,389
623,48	0,264
623,68	0,320
623,88	0,308
624,08	0,316
624,28	0,398
624,48	0,386
624,67	0,484
624,87	0,461
625,07	0,338
625,27	0,291
625,47	0,555
625,67	0,558
625,87	0,494
626,07	0,580
626,27	0,213
626,47	0,446
626,66	0,339
626,86	0,449
627,06	0,404
627,26	0,442
627,46	0,353
627,66	0,378
627,86	0,280
628,06	0,290
628,25	0,303
628,45	0,412
628,65	0,225
628,85	0,453
629,05	0,389
629,25	0,396
629,45	0,242
629,65	0,376
629,84	0,429
630,04	0,218
630,24	0,495
630,44	0,386
630,64	0,579
630,84	0,564
631,04	0,397
631,23	0,344
631,43	0,293
631,63	0,456
631,83	0,450
632,03	0,296
632,23	0,526
632,42	0,377
632,62	0,348
632,82	0,300
633,02	0,375
633,22	0,521
633,42	0,452
633,62	0,398
633,81	0,551
634,01	0,475
634,21	0,428
634,41	0,465
634,61	0,595
634,80	0,407
635,00	0,284
635,20	0,401
635,40	0,485
635,60	0,529
635,80	0,559
635,99	0,450
636,19	0,552
636,39	0,662
636,59	0,539
636,79	0,542
636,98	0,487
637,18	0,620
637,38	0,710
637,58	0,462
637,78	0,540
637,97	0,560
638,17	0,606
638,37	0,488
638,57	0,836
638,77	0,598
638,96	0,488
639,16	0,697
639,36	0,459
639,56	0,759
639,76	0,528
639,95	0,558
640,15	0,342
640,35	0,473
640,55	0,620
640,75	0,760
640,94	0,557
641,14	0,470
641,34	0,697
641,54	0,576
641,73	0,578
641,93	0,461
642,13	0,668
642,33	0,536
642,53	0,572
642,72	0,753
642,92	0,700
643,12	0,674
643,32	0,849
643,51	0,751
643,71	0,734
643,91	0,500
644,11	0,941
644,30	0,872
644,50	0,711
644,70	0,703
644,90	0,466
645,09	0,896
645,29	0,134
645,49	0,481
645,69	0,846
645,88	0,885
646,08	0,695
646,28	0,719
646,48	0,929
646,67	0,535
646,87	0,937
647,07	0,858
647,26	0,898
647,46	0,525
647,66	0,883
647,86	0,903
648,05	0,876
648,25	0,911
648,45	0,680
648,65	0,985
648,84	0,869
649,04	0,841
649,24	1,122
649,43	0,772
649,63	1,181
649,83	0,743
650,03	0,847
650,22	0,643
650,42	0,868
650,62	0,416
650,81	0,840
651,01	0,665
651,21	0,648
651,40	0,840
651,60	0,895
651,80	0,444
652,00	0,865
652,19	0,588
652,39	0,917
652,59	0,819
652,78	0,975
652,98	0,498
653,18	0,820
653,37	0,678
653,57	0,673
653,77	0,761
653,96	0,816
654,16	1,170
654,36	1,047
654,55	1,135
654,75	0,919
654,95	0,791
655,14	0,771
655,34	1,132
655,54	0,663
655,73	0,676
655,93	1,168
656,13	0,402
656,32	0,819
656,52	0,507
656,72	1,193
656,91	1,192
657,11	0,510
657,31	0,815
657,50	0,879
657,70	0,772
657,90	0,671
658,09	0,808
658,29	1,055
658,49	0,534
658,68	1,294
658,88	1,008
659,07	0,681
659,27	1,056
659,47	1,190
659,66	0,426
659,86	1,081
660,06	0,611
660,25	0,503
660,45	0,709
660,64	0,995
660,84	0,637
661,04	0,962
661,23	0,817
661,43	0,932
661,63	0,566
661,82	0,822
662,02	0,998
662,21	1,023
662,41	0,421
662,61	0,823
662,80	0,247
663,00	0,786
663,19	0,816
663,39	1,511
663,59	1,219
663,78	0,516
663,98	0,584
664,17	0,771
664,37	1,085
664,57	0,869
664,76	1,277
664,96	0,494
665,15	0,507
665,35	0,773
665,55	0,710
665,74	0,419
665,94	0,552
666,13	1,047
666,33	0,560
666,53	0,946
666,72	0,511
666,92	1,039
667,11	0,775
667,31	0,699
667,50	0,766
667,70	1,194
667,90	1,001
668,09	0,796
668,29	1,077
668,48	0,635
668,68	0,677
668,87	0,620
669,07	1,057
669,26	0,728
669,46	0,499
669,66	0,999
669,85	0,736
670,05	0,359
670,24	1,005
670,44	0,645
670,63	0,681
670,83	1,035
671,02	0,933
671,22	1,061
671,42	0,633
671,61	0,504
671,81	0,855
672,00	1,234
672,20	0,822
672,39	0,463
672,59	0,433
672,78	0,863
672,98	0,830
673,17	0,630
673,37	0,681
673,56	0,434
673,76	0,898
673,95	0,926
674,15	0,390
674,34	0,513
674,54	0,727
674,73	0,696
674,93	0,514
675,13	0,509
675,32	0,721
675,52	0,776
675,71	0,743
675,91	0,671
676,10	0,365
676,30	0,485
676,49	0,435
676,69	0,727
676,88	0,833
677,08	0,890
677,27	0,470
677,47	0,843
677,66	0,702
677,86	0,654
678,05	0,807
678,24	0,424
678,44	0,772
678,63	0,738
678,83	0,530
679,02	0,407
679,22	0,355
679,41	0,638
679,61	0,510
679,80	0,543
680,00	0,577
680,19	0,609
680,39	0,520
680,58	0,580
680,78	0,545
680,97	0,276
681,17	0,744
681,36	0,479
681,56	0,671
681,75	0,590
681,94	0,498
682,14	0,735
682,33	0,496
682,53	0,709
682,72	0,567
682,92	0,580
683,11	0,746
683,31	0,362
683,50	0,529
683,69	0,686
683,89	0,416
684,08	0,501
684,28	0,507
684,47	0,610
684,67	0,534
684,86	0,085
685,06	0,511
685,25	0,255
685,44	0,570
685,64	0,413
685,83	0,404
686,03	0,097
686,22	0,240
686,42	0,239
686,61	0,381
686,80	0,310
687,00	0,448
687,19	0,764
687,39	0,310
687,58	0,410
687,77	0,182
687,97	0,484
688,16	0,287
688,36	0,326
688,55	0,521
688,74	0,487
688,94	0,185
689,13	0,381
689,33	0,431
689,52	0,379
689,71	0,472
689,91	0,340
690,10	0,371
690,30	0,493
690,49	0,571
690,68	0,526
690,88	0,446
691,07	0,350
691,27	0,419
691,46	0,308
691,65	0,552
691,85	0,395
692,04	0,311
692,23	0,236
692,43	0,192
692,62	0,570
692,82	0,526
693,01	0,239
693,20	0,565
693,40	0,485
693,59	0,521
693,78	0,384
693,98	0,254
694,17	0,205
694,36	0,712
694,56	0,491
694,75	0,384
694,94	0,572
695,14	0,716
695,33	0,237
695,53	0,456
695,72	0,403
695,91	0,247
696,11	0,367
696,30	0,353
696,49	0,415
696,69	0,480
696,88	0,342
697,07	0,371
697,27	0,484
697,46	0,451
697,65	0,431
697,85	0,403
698,04	0,502
698,23	0,595
698,43	0,652
698,62	0,329
698,81	0,381
699,01	1,040
699,20	0,557
699,39	1,050
699,58	0,777
699,78	0,377
699,97	0,745
700,16	1,130
700,36	0,630
700,55	0,796
700,74	0,792
700,94	1,132
701,13	0,754
701,32	1,022
701,52	1,066
701,71	1,011
701,90	1,176
702,09	1,151
702,29	1,283
702,48	1,328
702,67	1,135
702,87	0,686
703,06	1,589
703,25	1,671
703,44	1,043
703,64	1,572
703,83	2,001
704,02	1,081
704,22	1,646
704,41	1,051
704,60	1,683
704,79	1,299
704,99	2,372
705,18	2,317
705,37	1,532
705,56	2,091
705,76	2,291
705,95	2,821
706,14	2,311
706,33	3,074
706,53	2,401
706,72	2,191
706,91	2,495
707,11	2,843
707,30	2,403
707,49	3,156
707,68	2,366
707,88	2,123
708,07	1,493
708,26	2,820
708,45	2,745
708,64	2,365
708,84	4,521
709,03	2,622
709,22	1,564
709,41	2,840
709,61	4,066
709,80	3,276
709,99	3,571
710,18	3,536
710,38	3,651
710,57	1,476
710,76	3,390
710,95	2,017
711,14	4,596
711,34	3,118
711,53	4,429
711,72	4,908
711,91	2,953
712,11	5,298
712,30	5,188
712,49	5,401
712,68	6,138
712,87	6,523
713,07	4,785
713,26	2,403
713,45	4,669
713,64	3,296
713,83	3,710
714,03	6,327
714,22	4,909
714,41	6,238
714,60	5,794
714,79	4,326
714,99	7,185
715,18	4,105
715,37	5,823
715,56	4,171
715,75	6,067
715,94	5,115
716,14	4,577
716,33	4,795
716,52	4,631
716,71	6,648
716,90	6,062
717,10	5,401
717,29	4,000
717,48	9,075
717,67	5,125
717,86	5,686
718,05	4,137
718,24	9,467
718,44	6,477
718,63	5,856
718,82	7,997
719,01	7,673
719,20	3,940
719,39	5,163
719,59	3,174
719,78	4,804
719,97	7,531
720,16	7,060
720,35	8,848
720,54	6,206
720,73	5,432
720,93	6,380
721,12	4,354
721,31	8,908
721,50	7,938
721,69	8,979
721,88	8,899
722,07	5,657
722,27	9,919
722,46	9,120
722,65	7,032
722,84	8,556
723,03	7,021
723,22	11,987
723,41	6,908
723,60	10,693
723,79	7,103
723,99	7,474
724,18	10,027
724,37	10,937
724,56	11,418
724,75	11,676
724,94	11,857
725,13	14,100
725,32	8,175
725,51	14,499
725,71	7,765
725,90	13,333
726,09	12,309
726,28	13,793
726,47	10,937
726,66	12,000
726,85	9,426
727,04	8,307
727,23	10,040
727,42	12,683
727,61	10,794
727,81	11,679
728,00	11,269
728,19	10,870
728,38	9,611
728,57	10,273
728,76	14,718
728,95	14,174
729,14	7,135
729,33	11,526
729,52	13,836
729,71	12,170
729,90	8,381
730,09	10,981
730,28	16,744
730,48	12,877
730,67	14,994
730,86	6,343
731,05	12,150
731,24	5,263
731,43	9,937
731,62	15,915
731,81	8,132
732,00	9,149
732,19	5,747
732,38	12,565
732,57	7,084
732,76	15,952
732,95	8,267
733,14	4,291
733,33	10,989
733,52	14,044
733,71	13,793
733,90	16,581
734,09	8,989
734,28	17,517
734,47	11,184
734,66	15,468
734,85	15,745
735,04	14,441
735,23	11,111
735,42	17,435
735,61	18,667
735,81	12,552
736,00	18,072
736,19	17,604
736,38	12,889
736,57	16,295
736,76	11,318
736,95	12,727
737,14	14,894
737,33	18,299
737,52	15,234
737,71	7,532
737,90	23,903
738,09	17,485
738,28	13,557
738,47	13,072
738,66	14,375
738,85	13,574
739,04	20,204
739,22	11,318
739,41	18,387
739,60	12,542
739,79	13,185
739,98	15,064
740,17	18,027
740,36	29,464
740,55	25,750
740,74	7,826
740,93	22,764
741,12	23,162
741,31	17,279
741,50	17,137
741,69	22,407
741,88	9,600
742,07	17,870
742,26	11,985
742,45	18,379
742,64	27,698
742,83	8,723
743,02	20,721
743,21	26,157
743,40	22,649
743,59	26,844
743,78	26,638
743,97	24,060
744,16	12,195
744,34	17,913
744,53	22,131
744,72	26,195
744,91	14,737
745,10	27,484
745,29	20,331
745,48	15,460
745,67	26,884
745,86	19,953
746,05	24,429
746,24	27,451
746,43	30,496
746,62	18,203
746,81	26,256
747,00	25,261
747,18	35,385
747,37	24,947
747,56	25,393
747,75	16,630
747,94	34,573
748,13	24,429
748,32	25,855
748,51	25,056
748,70	28,297
748,89	14,976
749,08	19,714
749,26	24,105
749,45	27,059
749,64	25,310
749,83	14,249
750,02	30,110
750,21	31,378
750,40	33,333
750,59	26,415
750,78	23,669
750,96	38,268
751,15	26,776
751,34	34,031
751,53	32,020
751,72	26,415
751,91	21,096
752,10	25,617
752,29	36,158
752,47	25,562
752,66	24,507
752,85	32,817
753,04	20,820
753,23	25,828
753,42	30,699
753,61	17,974
753,80	38,211
753,98	32,632
754,17	31,902
754,36	36,723
754,55	24,765
754,74	38,150
754,93	30,259
755,12	26,400
755,30	24,377
755,49	26,911
755,68	36,888
755,87	19,820
756,06	31,285
756,25	31,429
756,43	31,724
756,62	24,926
756,81	30,693
757,00	36,812
757,19	25,000
757,38	39,117
757,56	37,419
757,75	28,758
757,94	29,968
758,13	34,740
758,32	33,712
758,51	36,765
758,69	30,400
758,88	37,838
759,07	37,634
759,26	42,326
759,45	39,738
759,63	36,803
759,82	32,997
760,01	19,398
760,20	43,580
760,39	36,194
760,57	53,719
760,76	31,081
760,95	34,259
761,14	39,592
761,33	33,438
761,51	43,728
761,70	52,759
761,89	27,459
762,08	40,000
762,27	35,531
762,45	40,078
762,64	29,670
762,83	42,920
763,02	48,372
763,21	25,862
763,39	39,592
763,58	33,208
763,77	31,660
763,96	49,799
764,14	36,667
764,33	43,223
764,52	64,378
764,71	54,709
764,89	24,020
765,08	44,828
765,27	52,045
765,46	46,196
765,65	29,694
765,83	64,069
766,02	40,000
766,21	33,149
766,40	40,952
766,58	49,187
766,77	46,269
766,96	62,273
767,15	57,488
767,33	36,257
767,52	52,439
767,71	68,696
767,90	42,697
768,08	46,304
768,27	50,000
768,46	53,125
768,64	83,938
768,83	51,562
769,02	67,000
769,21	41,921
769,39	58,140
769,58	41,040
769,77	56,705
769,96	47,120
770,14	53,741
770,33	61,215
770,52	58,201
770,70	45,333
770,89	68,456
771,08	41,102
771,27	68,557
771,45	50,877
771,64	72,917
771,83	60,748
772,01	45,783
772,20	71,859
772,39	41,333
772,57	22,481
772,76	65,926
772,95	101,418
773,14	52,688
773,32	60,000
773,51	62,189
773,70	81,250
773,88	77,596
774,07	61,780
774,26	64,539
774,44	48,171
774,63	69,036
774,82	67,683
775,00	45,333
775,19	38,400
775,38	79,769
775,56	66,667
775,75	62,651
775,94	55,696
776,12	48,619
776,31	68,824
776,50	60,227
776,68	77,895
776,87	65,341
777,06	65,517
777,24	73,333
777,43	60,897
777,62	103,676
777,80	75,676
777,99	54,286
778,18	62,871
778,36	73,600
778,55	79,339
778,74	59,722
778,92	75,740
779,11	94,167
779,29	54,717
779,48	74,830
779,67	87,597
779,85	106,504
780,04	64,324
780,23	74,101
780,41	66,406
780,60	50,526
780,79	97,740
780,97	80,921
781,16	51,515
781,34	125,773
781,53	105,983
781,72	87,591
781,90	28,125
782,09	75,484
782,28	96,350
782,46	64,444
782,65	47,857
782,83	84,270
783,02	125,000
783,21	82,667
783,39	86,957
783,58	82,249
783,76	79,888
783,95	79,394
784,14	84,768
784,32	100,000
784,51	110,345
784,69	90,678
784,88	102,703
785,06	67,227
785,25	99,363
785,44	110,072
785,62	91,429
785,81	135,211
785,99	107,194
786,18	70,270
786,37	81,481
786,55	53,211
786,74	77,632
786,92	114,844
787,11	78,333
787,29	81,343
787,48	55,333
787,67	112,048
787,85	93,103
788,04	81,188
788,22	95,082
788,41	85,882
788,59	129,358
788,78	94,545
788,96	111,321
789,15	131,579
789,34	98,182
789,52	100,885
789,71	91,473
789,89	195,745
790,08	92,466
790,26	105,714
790,45	71,970
790,63	107,407
790,82	90,303
791,00	77,083
791,19	78,495
791,38	128,472
791,56	97,368
791,75	155,046
791,93	118,391
792,12	69,822
792,30	124,000
792,49	73,950
792,67	92,537
792,86	75,969
793,04	76,636
793,23	77,500
793,41	113,924
793,60	121,212
793,78	109,649
793,97	111,538
794,15	85,455
794,34	87,912
794,52	149,351
794,71	135,802
794,89	100,000
795,08	113,592
795,26	103,889
795,45	153,731
795,63	121,212
795,82	107,477
796,00	81,651
796,19	108,333
796,37	105,839
796,56	124,731
796,74	63,717
796,93	84,270
797,11	69,620
797,30	110,833
797,48	88,966
797,67	116,667
797,85	131,633
798,04	109,375
798,22	109,524
798,41	116,667
798,59	110,526
798,77	124,615
798,96	98,925
799,14	110,345
799,33	103,053
799,51	86,154
799,70	82,550
799,88	136,364
800,07	94,737
800,25	98,621
800,44	115,152
800,62	149,412
800,80	139,130
800,99	171,429
801,17	110,345
801,36	97,241
801,54	123,958
801,73	114,141
801,91	126,230
802,10	98,810
802,28	119,626
802,46	88,889
802,65	95,402
802,83	143,820
803,02	111,579
803,20	118,750
803,39	125,862
803,57	156,627
803,75	86,486
803,94	95,798
804,12	70,833
804,31	112,389
804,49	80,769
804,67	86,400
804,86	89,286
805,04	114,189
805,23	96,552
805,41	120,492
805,59	77,869
805,78	78,788
805,96	82,051
806,15	100,781
806,33	110,924
806,51	100,000
806,70	205,000
806,88	90,244
807,07	50,794
807,25	84,277
807,43	95,364
807,62	84,553
807,80	118,280
807,99	84,921
808,17	108,511
808,35	119,298
808,54	161,290
808,72	83,200
808,90	155,263
809,09	103,333
809,27	110,811
809,46	104,464
809,64	83,333
809,82	114,943
810,01	90,152
810,19	145,000
810,37	82,308
810,56	92,683
810,74	65,563
810,92	129,545
811,11	162,745
811,29	95,745
811,48	133,333
811,66	66,667
811,84	112,844
812,03	61,818
812,21	71,795
812,39	100,000
812,58	96,078
812,76	74,766
812,94	98,667
813,13	71,429
813,31	72,500
813,49	132,609
813,68	130,435
813,86	166,327
814,04	154,369
814,23	121,212
814,41	83,824
814,59	71,751
814,78	103,676
814,96	91,892
815,14	132,222
815,33	102,174
815,51	79,259
815,69	96,296
815,87	111,304
816,06	93,125
816,24	109,934
816,42	60,256
816,61	55,932
816,79	160,241
816,97	111,712
817,16	60,000
817,34	91,034
817,52	76,552
817,70	104,762
817,89	73,554
818,07	116,379
818,25	112,613
818,44	113,953
818,62	125,000
818,80	78,322
818,98	114,286
819,17	96,923
819,35	82,941
819,53	97,030
819,72	72,093
819,90	82,036
820,08	57,792
820,26	109,649
820,45	103,012
820,63	82,292
820,81	87,919
820,99	90,977
821,18	65,926
821,36	65,238
821,54	83,721
821,73	71,892
821,91	64,894
822,09	85,882
822,27	70,051
822,46	73,750
822,64	61,589
822,82	84,878
823,00	50,450
823,19	76,515
823,37	91,429
823,55	79,412
823,73	78,667
823,91	63,536
824,10	116,201
824,28	102,963
824,46	52,907
824,64	58,333
824,83	68,293
825,01	80,435
825,19	63,429
825,37	55,208
825,56	68,750
825,74	66,190
825,92	70,787
826,10	97,516
826,28	80,537
826,47	68,293
826,65	50,000
826,83	67,742
827,01	56,818
827,19	85,443
827,38	82,383
827,56	80,769
827,74	63,415
827,92	68,293
828,10	53,804
828,29	66,190
828,47	62,281
828,65	55,676
828,83	58,586
829,01	46,000
829,20	67,722
829,38	58,921
829,56	57,085
829,74	134,091
829,92	56,701
830,10	70,721
830,29	65,405
830,47	75,521
830,65	54,018
830,83	62,857
831,01	51,667
831,20	62,871
831,38	46,829
831,56	58,704
831,74	78,286
831,92	61,364
832,10	68,182
832,29	46,919
832,47	59,292
832,65	88,511
832,83	57,209
833,01	32,806
833,19	44,344
833,37	54,444
833,56	70,423
833,74	53,441
833,92	50,885
834,10	66,497
834,28	49,615
834,46	54,671
834,64	57,422
834,83	48,123
835,01	52,529
835,19	54,976
835,37	47,809
835,55	46,209
835,73	59,926
835,91	47,490
836,09	48,963
836,28	75,573
836,46	48,772
836,64	55,328
836,82	32,463
837,00	55,442
837,18	49,407
837,36	57,219
837,54	33,333
837,72	40,239
837,91	40,562
838,09	31,200
838,27	48,352
838,45	50,809
838,63	30,169
838,81	47,039
838,99	52,265
839,17	43,366
839,35	37,407
839,53	43,624
839,72	36,864
839,90	20,669
840,08	37,179
840,26	38,170
840,44	22,531
840,62	38,384
840,80	32,716
840,98	43,807
841,16	32,740
841,34	38,841
841,52	38,019
841,70	46,128
841,89	56,129
842,07	39,189
842,25	36,364
842,43	40,968
842,61	45,308
842,79	38,720
842,97	19,817
843,15	43,840
843,33	38,480
843,51	38,425
843,69	32,500
843,87	36,927
844,05	34,232
844,23	34,595
844,41	31,910
844,59	34,943
844,77	31,988
844,95	27,427
845,13	33,060
845,31	33,240
845,50	39,691
845,68	36,788
845,86	38,208
846,04	29,383
846,22	34,129
846,40	25,459
846,58	23,592
846,76	29,177
846,94	25,962
847,12	23,934
847,30	32,258
847,48	28,537
847,66	36,098
847,84	20,305
848,02	31,185
848,20	32,892
848,38	25,210
848,56	35,484
848,74	33,678
848,92	19,207
849,10	24,777
849,28	22,440
849,46	17,290
849,64	27,381
849,82	29,808
850,00	25,257
850,18	17,090
850,36	29,605
850,54	28,700
850,72	23,077
850,90	33,333
851,08	17,695
851,26	31,377
851,44	22,490
851,62	20,530
851,80	23,459
851,98	28,395
852,16	40,329
852,34	26,945
852,52	22,266
852,70	15,462
852,87	25,905
853,05	26,854
853,23	23,529
853,41	22,290
853,59	19,623
853,77	33,532
853,95	25,636
854,13	26,796
854,31	25,480
854,49	17,635
854,67	31,015
854,85	28,870
855,03	26,437
855,21	20,812
855,39	20,302
855,57	33,696
855,75	19,056
855,93	27,032
856,11	28,708
856,28	19,618
856,46	19,281
856,64	25,081
856,82	18,848
857,00	19,377
857,18	24,100
857,36	21,849
857,54	20,101
857,72	18,030
857,90	18,781
858,08	13,426
858,26	18,196
858,44	17,391
858,61	16,984
858,79	19,535
858,97	12,751
859,15	16,743
859,33	23,466
859,51	18,211
859,69	18,155
859,87	18,887
860,05	22,036
860,23	15,000
860,40	19,355
860,58	19,684
860,76	21,751
860,94	11,756
861,12	13,031
861,30	20,383
861,48	19,263
861,66	23,477
861,84	16,620
862,01	20,856
862,19	17,615
862,37	18,513
862,55	14,624
862,73	11,005
862,91	16,646
863,09	18,596
863,27	10,724
863,44	13,510
863,62	15,428
863,80	14,586
863,98	11,750
864,16	13,810
864,34	17,532
864,52	13,212
864,69	14,578
864,87	18,594
865,05	10,296
865,23	13,164
865,41	13,111
865,59	14,215
865,76	15,504
865,94	18,476
866,12	15,402
866,30	13,374
866,48	12,594
866,66	16,811
866,83	10,394
867,01	15,449
867,19	15,901
867,37	13,806
867,55	13,941
867,73	11,959
867,90	13,647
868,08	16,013
868,26	14,253
868,44	13,519
868,62	13,271
868,79	14,394
868,97	11,514
869,15	12,314
869,33	14,994
869,51	14,756
869,69	14,599
869,86	16,923
870,04	11,958
870,22	8,221
870,40	8,788
870,57	13,500
870,75	15,517
870,93	13,528
871,11	11,089
871,29	10,163
871,46	8,661
871,64	11,771
871,82	12,098
872,00	15,925
872,18	13,449
872,35	14,973
872,53	8,885
872,71	11,261
872,89	11,677
873,06	12,823
873,24	13,051
873,42	9,946
873,60	10,009
873,77	12,011
873,95	8,671
874,13	9,392
874,31	7,487
874,49	12,293
874,66	9,450
874,84	3,730
875,02	14,646
875,20	11,157
875,37	8,262
875,55	7,959
875,73	9,232
875,91	11,328
876,08	5,971
876,26	10,575
876,44	7,588
876,61	10,763
876,79	10,748
876,97	10,448
877,15	12,977
877,32	9,134
877,50	10,313
877,68	9,664
877,86	7,994
878,03	10,744
878,21	9,882
878,39	9,481
878,56	11,062
878,74	5,640
878,92	6,973
879,10	6,509
879,27	6,657
879,45	9,042
879,63	6,225
879,80	8,838
879,98	4,128
880,16	7,682
880,34	6,550
880,51	8,904
880,69	6,734
880,87	5,223
881,04	8,511
881,22	9,289
881,40	4,533
881,57	7,948
881,75	6,888
881,93	7,373
882,10	8,969
882,28	6,721
882,46	8,017
882,63	9,171
882,81	8,563
882,99	6,791
883,16	7,779
883,34	8,415
883,52	6,373
883,69	6,678
883,87	9,346
884,05	4,374
884,22	4,819
884,40	7,116
884,58	4,693
884,75	5,307
884,93	8,272
885,11	7,726
885,28	5,802
885,46	6,079
885,64	6,754
885,81	7,433
885,99	5,258
886,17	6,614
886,34	6,974
886,52	4,091
886,70	4,654
886,87	8,648
887,05	5,945
887,22	3,947
887,40	7,299
887,58	5,323
887,75	8,175
887,93	7,165
888,11	3,411
888,28	6,069
888,46	4,152
888,63	7,501
888,81	4,615
888,99	3,033
889,16	3,329
889,34	6,713
889,51	6,289
889,69	4,278
889,87	3,430
890,04	4,798
890,22	5,232
890,39	2,875
890,57	6,892
890,75	7,140
890,92	4,993
891,10	7,088
891,27	5,849
891,45	5,542
891,63	4,770
891,80	5,834
891,98	5,687
892,15	4,061
892,33	2,851
892,51	4,908
892,68	2,679
892,86	5,679
893,03	6,102
893,21	5,211
893,38	4,969
893,56	6,222
893,74	5,854
893,91	5,242
894,09	4,892
894,26	5,721
894,44	4,136
894,61	4,844
894,79	4,692
894,96	5,300
895,14	5,259
895,32	4,263
895,49	4,612
895,67	4,009
895,84	5,537
896,02	4,440
896,19	4,852
896,37	4,489
896,54	4,308
896,72	4,090
896,89	5,238
897,07	3,782
897,25	4,880
897,42	3,797
897,60	5,224
897,77	5,773
897,95	4,267
898,12	3,291
898,30	4,499
898,47	4,096
898,65	4,550
898,82	4,667
899,00	4,082
899,17	4,535
899,35	3,257
899,52	4,435
899,70	4,737
899,87	4,534
900,05	5,316
900,22	3,780
900,40	3,166
900,57	5,037
900,75	3,428
900,92	4,145
901,10	5,320
901,27	5,436
901,45	5,880
901,62	2,857
901,80	5,056
901,97	5,269
902,15	4,742
902,32	3,979
902,50	3,236
902,67	4,992
902,85	4,217
903,02	4,711
903,20	4,583
903,37	5,376
903,54	5,163
903,72	4,080
903,89	4,746
904,07	4,271
904,24	4,776
904,42	4,564
904,59	3,455
904,77	3,213
904,94	3,668
905,12	2,407
905,29	5,045
905,47	4,524
905,64	4,754
905,81	4,849
905,99	3,642
906,16	4,728
906,34	4,190
906,51	3,989
906,69	2,825
906,86	3,845
907,03	3,697
907,21	2,932
907,38	2,303
907,56	3,555
907,73	5,798
907,91	4,168
908,08	4,577
908,25	3,414
908,43	3,348
908,60	3,243
908,78	4,167
908,95	3,656
909,13	4,564
909,30	3,435
909,47	3,231
909,65	4,776
909,82	4,410
910,00	3,470
910,17	3,109
910,34	4,012
910,52	3,213
910,69	4,361
910,87	4,777
911,04	3,587
911,21	3,770
911,39	3,345
911,56	3,361
911,73	3,817
911,91	4,219
912,08	5,460
912,26	2,623
912,43	4,761
912,60	3,830
912,78	3,334
912,95	4,007
913,13	3,132
913,30	3,485
913,47	4,850
913,65	2,345
913,82	3,744
913,99	3,441
914,17	3,318
914,34	4,585
914,51	4,216
914,69	2,421
914,86	3,674
915,03	3,683
915,21	3,595
915,38	2,800
915,56	4,086
915,73	3,256
915,90	4,001
916,08	3,695
916,25	2,820
916,42	2,446
916,60	2,957
916,77	3,856
916,94	3,466
917,12	3,503
917,29	3,866
917,46	2,863
917,64	2,406
917,81	4,394
917,98	2,498
918,16	3,271
918,33	3,558
918,50	3,203
918,67	3,240
918,85	2,794
919,02	3,062
919,19	3,676
919,37	2,643
919,54	3,681
919,71	3,519
919,89	2,770
920,06	2,705
920,23	3,380
920,41	3,790
920,58	2,851
920,75	3,329
920,92	3,476
921,10	2,666
921,27	2,056
921,44	4,187
921,62	1,646
921,79	3,280
921,96	3,473
922,13	2,636
922,31	3,211
922,48	2,951
922,65	2,354
922,82	3,108
923,00	3,606
923,17	2,180
923,34	3,396
923,52	2,749
923,69	2,838
923,86	3,117
924,03	2,593
924,21	3,046
924,38	4,611
924,55	3,757
924,72	4,022
924,90	2,716
925,07	4,490
925,24	2,987
925,41	3,158
925,59	3,849
925,76	3,430
925,93	3,198
926,10	4,323
926,28	3,449
926,45	4,145
926,62	3,706
926,79	3,460
926,96	3,476
927,14	3,516
927,31	3,483
927,48	4,213
927,65	4,214
927,83	2,978
928,00	2,718
928,17	3,452
928,34	3,355
928,51	4,070
928,69	3,317
928,86	3,869
929,03	4,410
929,20	2,825
929,37	4,255
929,55	3,459
929,72	3,975
929,89	3,297
930,06	4,335
930,23	3,090
930,41	3,330
930,58	4,086
930,75	3,469
930,92	2,678
931,09	3,496
931,27	2,777
931,44	2,717
931,61	3,598
931,78	3,380
931,95	2,873
932,12	3,882
932,30	3,829
932,47	3,401
932,64	3,907
932,81	3,769
932,98	2,776
933,16	2,557
933,33	3,117
933,50	3,554
933,67	4,470
933,84	2,949
934,01	2,917
934,18	2,867
934,36	2,839
934,53	2,709
934,70	3,465
934,87	3,100
935,04	3,112
935,21	2,141
935,38	2,646
935,56	2,878
935,73	2,508
935,90	2,744
936,07	3,838
936,24	2,875
936,41	2,933
936,58	2,647
936,76	3,906
936,93	2,393
937,10	2,690
937,27	3,077
937,44	2,446
937,61	3,402
937,78	3,344
937,95	2,629
938,13	2,506
938,30	1,650
938,47	2,868
938,64	3,616
938,81	2,965
938,98	2,580
939,15	2,413
939,32	3,021
939,49	3,525
939,66	3,651
939,84	2,664
940,01	2,570
940,18	2,436
940,35	2,586
940,52	1,828
940,69	3,958
940,86	2,556
941,03	2,617
941,20	3,534
941,37	2,975
941,54	1,700
941,71	1,900
941,89	2,767
942,06	1,727
942,23	3,301
942,40	2,810
942,57	2,578
942,74	2,394
942,91	1,984
943,08	3,325
943,25	2,158
943,42	2,228
943,59	3,206
943,76	3,292
943,93	2,226
944,10	2,478
944,27	2,515
944,44	2,797
944,61	2,243
944,79	2,931
944,96	3,783
945,13	1,839
945,30	1,187
945,47	2,708
945,64	2,699
945,81	3,345
945,98	3,233
946,15	3,449
946,32	3,351
946,49	3,049
946,66	2,833
946,83	2,952
947,00	2,827
947,17	2,497
947,34	3,575
947,51	1,979
947,68	3,294
947,85	2,148
948,02	3,021
948,19	3,808
948,36	2,941
948,53	3,395
948,70	4,656
948,87	3,510
949,04	2,946
949,21	2,809
949,38	4,254
949,55	2,544
949,72	3,967
949,89	3,684
950,06	2,063
950,23	3,179
950,40	4,051
950,57	2,168
950,74	5,216
950,91	3,094
951,08	2,839
951,25	4,939
951,42	6,640
951,59	2,115
951,76	3,904
951,93	5,059
952,10	3,574
952,27	4,065
952,44	3,585
952,61	3,454
952,77	4,005
952,94	4,658
953,11	7,969
953,28	3,955
953,45	6,350
953,62	7,036
953,79	4,352
953,96	5,599
954,13	4,553
954,30	5,954
954,47	7,606
954,64	4,098
954,81	6,742
954,98	5,580
955,15	6,652
955,32	5,420
955,49	6,156
955,65	7,246
955,82	7,410
955,99	6,350
956,16	8,936
956,33	6,485
956,50	5,865
956,67	9,734
956,84	5,778
957,01	4,056
957,18	11,590
957,35	6,211
957,52	4,866
957,68	9,417
957,85	13,106
958,02	8,872
958,19	10,444
958,36	12,323
958,53	14,470
958,70	9,955
958,87	11,155
959,04	14,507
959,21	13,737
959,37	11,580
959,54	16,648
959,71	11,444
959,88	15,587
960,05	15,563
960,22	7,574
960,39	18,267
960,56	11,519
960,72	10,790
960,89	21,039
961,06	14,522
961,23	14,265
961,40	15,729
961,57	14,265
961,74	7,278
961,90	18,750
962,07	12,024
962,24	21,301
962,41	19,430
962,58	21,170
962,75	17,168
962,92	22,804
963,08	17,636
963,25	19,459
963,42	16,425
963,59	16,736
963,76	29,888
963,93	18,764
964,10	27,837
964,26	26,754
964,43	27,907
964,60	31,088
964,77	23,373
964,94	15,625
965,10	38,690
965,27	31,070
965,44	31,948
965,61	25,069
965,78	31,949
965,95	33,533
966,11	39,628
966,28	49,442
966,45	37,072
966,62	52,615
966,79	44,490
966,95	31,045
967,12	46,372
967,29	27,431
967,46	39,394
967,63	36,226
967,79	54,505
967,96	45,022
968,13	46,500
968,30	61,694
968,47	48,797
968,63	56,306
968,80	48,624
968,97	61,058
969,14	47,093
969,31	59,444
969,47	48,824
969,64	72,727
969,81	39,896
969,98	73,077
970,14	65,644
970,31	71,069
970,48	55,833
970,65	84,615
970,81	73,288
970,98	93,431
971,15	101,020
971,32	67,188
971,48	112,245
971,65	28,462
971,82	92,157
971,99	142,529
972,15	95,775
972,32	121,622
972,49	111,189
972,66	112,727
972,82	70,930
972,99	89,431
973,16	106,897
973,33	109,821
973,49	129,474
973,66	103,226
973,83	94,175
974,00	119,767
974,16	109,804
974,33	158,772
974,50	109,474
974,67	150,526
974,83	120,238
975,00	135,789
975,17	84,615
975,33	138,202
975,50	161,194
975,67	271,429
975,84	201,493
976,00	147,191
976,17	218,033
976,34	130,000
976,50	162,921
976,67	129,126
976,84	3566,667
977,00	240,816
977,17	286,667
977,34	205,495
977,50	147,761
977,67	164,286
977,84	227,419
978,01	189,362
978,17	1088,889
978,34	266,667
978,51	332,353
978,67	184,211
978,84	138,281
979,01	327,027
979,17	146,154
979,34	115,068
979,51	253,061
979,67	185,185
979,84	326,531
980,01	253,333
980,17	249,296
980,34	518,519
980,51	227,536
980,67	152,941
980,84	476,667
981,01	695,000
981,17	540,000
981,34	1200,000
981,50	230,882
981,67	250,847
981,84	5550,000
982,00	403,333
982,17	247,619
982,34	122,222
982,50	933,333
982,67	210,417
982,84	2660,000
983,00	1266,667
983,17	171,642
983,33	218,966
983,50	2560,000
983,67	-227,586
983,83	384,848
984,00	-1900,000
984,17	711,111
984,33	-6800,000
984,50	488,571
984,66	284,783
984,83	197,403
985,00	-479,167
985,16	451,724
985,33	517,647
985,49	744,444
985,66	379,412
985,83	482,609
985,99	300,000
986,16	-2700,000
986,32	742,857
986,49	7700,000
986,66	418,182
986,82	583,333
986,99	264,151
987,15	-689,474
987,32	-360,714
987,49	246,000
987,65	4900,000
987,82	466,667
987,98	220,408
988,15	400,000
988,31	1030,000
988,48	-2466,667
988,65	419,048
988,81	325,000
988,98	314,634
989,14	266,667
989,31	623,810
989,47	444,118
989,64	-723,077
989,80	906,250
989,97	251,351
990,14	-243,478
990,30	-754,545
990,47	359,184
990,63	319,444
990,80	234,000
990,96	-550,000
991,13	318,750
991,29	486,207
991,46	0,000
991,62	-884,615
991,79	1033,333
991,95	14100,000
992,12	-1470,000
992,29	-587,500
992,45	208,235
992,62	346,512
992,78	334,091
992,95	-600,000
993,11	417,857
993,28	1360,000
993,44	-980,000
993,61	-606,250
993,77	-2925,000
993,94	-4000,000
994,10	-148,000
994,27	673,684
994,43	381,395
994,60	0,000
994,76	2725,000
994,93	585,000
995,09	-764,706
995,26	1200,000
995,42	264,706
995,59	700,000
995,75	938,462
995,92	2357,143
996,08	391,667
996,25	-1500,000
996,41	-5450,000
996,58	746,667
996,74	343,182
996,91	382,759
997,07	0,000
997,23	11500,000
997,40	-15300,000
997,56	-930,769
997,73	-1662,500
997,89	434,211
998,06	923,077
998,22	-722,222
998,39	672,000
998,55	2055,556
998,72	-1462,500
998,88	-330,000
999,05	-100,000
999,21	326,190
999,37	-793,333
999,54	-1166,667
999,70	-376,667
999,87	1000,000
1000,03	397,436
1000,20	247,917
1000,36	0,000
1000,52	575,000
1000,69	-642,857
1000,85	-870,000
1001,02	-562,500
1001,18	3000,000
1001,35	1130,769
1001,51	558,824
1001,67	-1076,923
1001,84	-2540,000
1002,00	397,297
1002,17	963,636
1002,33	-2700,000
1002,50	623,810
1002,66	-1107,692
1002,82	387,500
1002,99	928,571
1003,15	-2114,286
1003,32	-1163,636
1003,48	410,714
1003,64	740,000
1003,81	559,259
1003,97	-5100,000
1004,14	1063,636
1004,30	380,000
1004,46	-686,667
1004,63	992,857
1004,79	275,000
1004,95	826,667
1005,12	6150,000
1005,28	579,310
1005,45	370,270
1005,61	475,862
1005,77	-243,750
1005,94	-657,143
1006,10	-5500,000
1006,26	915,385
1006,43	-496,154
1006,59	-1081,818
1006,76	971,429
1006,92	1511,111
1007,08	9600,000
1007,25	-359,259
1007,41	603,448
1007,57	4700,000
1007,74	1050,000
1007,90	-500,000
1008,06	302,174
1008,23	805,882
1008,39	-506,250
1008,55	-403,846
1008,72	-2200,000
1008,88	0,000
1009,04	475,610
1009,21	-244,737
1009,37	-958,333
1009,53	269,048
1009,70	3166,667
1009,86	-692,857
1010,02	4566,667
1010,19	872,727
1010,35	273,529
1010,51	-8400,000
1010,68	-1312,500
1010,84	-265,909
1011,00	581,250
1011,17	-363,636
1011,33	0,000
1011,49	-860,000
1011,66	828,571
1011,82	509,677
1011,98	885,714
1012,14	-863,636
1012,31	430,769
1012,47	0,000
1012,63	2033,333
1012,80	807,143
1012,96	-893,750
1013,12	-1683,333
1013,29	727,778
1013,45	517,073
1013,61	6300,000
1013,77	-153,571
1013,94	2520,000
1014,10	220,339
1014,26	-4125,000
1014,43	-396,000
1014,59	715,000
1014,75	-644,444
1014,91	-680,000
1015,08	488,889
1015,24	6900,000
1015,40	923,529
1015,56	-15400,000
1015,73	242,857
1015,89	936,364
1016,05	4100,000
1016,21	-1100,000
1016,38	931,579
1016,54	1238,462
1016,70	-4733,333
1016,86	446,875
1017,03	881,250
1017,19	-661,538
1017,35	-776,471
1017,51	-2080,000
1017,68	-960,000
1017,84	-1928,571
1018,00	295,238
1018,16	507,692
1018,33	-1728,571
1018,49	-1083,333
1018,65	-313,514
1018,81	353,846
1018,97	-1885,714
1019,14	-3900,000
1019,30	-223,077
1019,46	0,000
1019,62	-494,118
1019,79	-4100,000
1019,95	1158,333
1020,11	5650,000
1020,27	-455,556
1020,43	-650,000
1020,60	2333,333
1020,76	700,000
1020,92	753,333
1021,08	785,000
1021,24	1260,000
1021,41	1400,000
1021,57	1712,500
1021,73	1084,615
1021,89	3100,000
1022,05	-507,143
1022,21	700,000
1022,38	-883,333
1022,54	-2100,000
1022,70	440,000
1022,86	-1600,000
1023,02	591,667
1023,19	2480,000
1023,35	4600,000
1023,51	558,333
1023,67	588,889
1023,83	-800,000
1023,99	289,474
1024,16	-426,923
1024,32	-877,778
1024,48	-1230,000
1024,64	352,381
1024,80	739,130
1024,96	374,359
1025,12	523,810
1025,29	509,524
1025,45	336,842
1025,61	800,000
1025,77	-2880,000
1025,93	-9500,000
1026,09	-1842,857
1026,26	825,000
1026,42	731,250
1026,58	393,939
1026,74	2000,000
1026,90	384,000
1027,06	400,000
1027,22	1128,571
1027,38	275,000
1027,55	4500,000
1027,71	1900,000
1027,87	-316,000
1028,03	1290,000
1028,19	387,500
1028,35	825,000
1028,51	1500,000
1028,67	1100,000
1028,83	-2625,000
1029,00	-204,762
1029,16	1100,000
1029,32	-296,429
1029,48	317,778
1029,64	327,778
1029,80	5650,000
1029,96	866,667
1030,12	613,043
1030,28	-2300,000
1030,44	-784,615
1030,61	-512,500
1030,77	-394,286
1030,93	-733,333
1031,09	1683,333
1031,25	-11200,000
1031,41	-326,667
1031,57	546,154
1031,73	731,250
1031,89	-1363,636
1032,05	-492,593
1032,21	1309,091
1032,37	-205,556
1032,53	-742,857
1032,69	-370,833
1032,86	514,815
1033,02	-205,000
1033,18	-812,500
1033,34	500,000
1033,50	-6450,000
1033,66	-239,024
1033,82	478,261
1033,98	-407,407
1034,14	219,231
1034,30	400,000
1034,46	-3400,000
1034,62	555,000
1034,78	-533,333
1034,94	450,000
1035,10	-830,769
1035,26	-220,930
1035,42	-337,931
1035,58	-477,778
1035,74	1058,333
1035,90	-1053,846
1036,06	-2083,333
1036,22	2200,000
1036,38	-788,235
1036,54	-466,667
1036,70	-190,909
1036,86	10200,000
1037,02	544,444
1037,18	963,158
1037,34	174,286
1037,50	-236,585
1037,66	-582,353
1037,82	3080,000
1037,98	-451,852
1038,14	-408,000
1038,30	-1375,000
1038,46	-928,571
1038,62	652,174
1038,78	-4066,667
1038,94	-373,684
1039,10	531,818
1039,26	477,778
1039,42	-825,000
1039,58	1514,286
1039,74	-436,842
1039,90	328,125
1040,06	-476,923
>>>>>End Processed Spectral Data<<<<<
