SpectraSuite Data File
++++++++++++++++++++++++++++++++++++
Date: Wed Feb 01 15:50:38 EET 2017
User: optolab
Dark Spectrum Present: Yes
Reference Spectrum Present: Yes
Number of Sampled Component Spectra: 1
Spectrometers: USB4C02475
Integration Time (usec): 100000 (USB4C02475)
Spectra Averaged: 1 (USB4C02475)
Boxcar Smoothing: 0 (USB4C02475)
Correct for Electrical Dark: No (USB4C02475)
Strobe/Lamp Enabled: No (USB4C02475)
Correct for Detector Non-linearity: No (USB4C02475)
Correct for Stray Light: No (USB4C02475)
Number of Pixels in Processed Spectrum: 3648
>>>>>Begin Processed Spectral Data<<<<<
344,91	3150,000
345,13	3150,000
345,35	3150,000
345,57	0,000
345,79	321,053
346,00	-1866,667
346,22	-1800,000
346,44	252,941
346,66	-512,500
346,87	-10600,000
347,09	327,273
347,31	-390,909
347,53	-289,744
347,74	233,846
347,96	512,121
348,18	789,474
348,40	383,871
348,61	723,529
348,83	280,952
349,05	311,765
349,27	-5500,000
349,48	519,231
349,70	-396,552
349,92	390,323
350,14	233,962
350,35	346,000
350,57	2850,000
350,79	624,000
351,01	-771,429
351,22	231,481
351,44	661,538
351,66	-372,000
351,87	-476,190
352,09	242,308
352,31	226,230
352,53	256,250
352,74	419,444
352,96	257,143
353,18	631,579
353,40	484,000
353,61	275,556
353,83	417,647
354,05	836,364
354,26	1950,000
354,48	138,000
354,70	409,091
354,92	-289,655
355,13	180,808
355,35	343,182
355,57	625,000
355,78	195,181
356,00	-3000,000
356,22	503,846
356,44	5450,000
356,65	243,182
356,87	511,538
357,09	554,167
357,30	222,222
357,52	277,586
357,74	745,000
357,95	220,513
358,17	181,967
358,39	206,452
358,60	424,324
358,82	408,333
359,04	518,519
359,26	294,286
359,47	8000,000
359,69	337,500
359,91	442,424
360,12	595,238
360,34	462,500
360,56	-48,148
360,77	2125,000
360,99	657,143
361,21	260,000
361,42	6800,000
361,64	261,224
361,86	263,077
362,07	-545,161
362,29	201,333
362,51	-723,529
362,72	596,000
362,94	417,647
363,16	244,186
363,37	-907,143
363,59	457,692
363,81	334,091
364,02	594,444
364,24	650,000
364,46	3600,000
364,67	1090,909
364,89	2914,286
365,11	195,714
365,32	417,241
365,54	344,444
365,76	240,816
365,97	294,118
366,19	260,345
366,41	690,909
366,62	444,444
366,84	239,535
367,05	351,020
367,27	2550,000
367,49	-769,231
367,70	758,824
367,92	163,934
368,14	254,167
368,35	-10900,000
368,57	472,000
368,79	396,552
369,00	358,696
369,22	-1200,000
369,43	210,588
369,65	283,871
369,87	427,027
370,08	150,602
370,30	264,286
370,51	236,066
370,73	213,333
370,95	290,323
371,16	219,048
371,38	490,000
371,60	1512,500
371,81	129,688
372,03	773,333
372,24	433,333
372,46	277,358
372,68	201,429
372,89	387,879
373,11	511,538
373,32	402,273
373,54	-1038,462
373,76	807,692
373,97	686,667
374,19	722,727
374,40	275,000
374,62	-3000,000
374,84	3800,000
375,05	489,286
375,27	294,000
375,48	-11400,000
375,70	184,000
375,92	176,786
376,13	393,750
376,35	230,137
376,56	1012,500
376,78	230,556
376,99	342,857
377,21	279,167
377,43	213,636
377,64	215,942
377,86	417,241
378,07	330,769
378,29	-1212,500
378,51	422,581
378,72	258,333
378,94	-1255,556
379,15	403,030
379,37	1023,529
379,58	246,154
379,80	766,667
380,01	550,000
380,23	239,216
380,45	2040,000
380,66	4266,667
380,88	220,455
381,09	192,857
381,31	151,111
381,52	154,902
381,74	1200,000
381,95	627,273
382,17	523,077
382,39	552,381
382,60	232,653
382,82	323,077
383,03	280,769
383,25	477,419
383,46	327,273
383,68	329,630
383,89	505,000
384,11	354,839
384,32	-3233,333
384,54	588,889
384,76	-4000,000
384,97	327,273
385,19	365,517
385,40	262,745
385,62	212,281
385,83	321,429
386,05	282,353
386,26	300,000
386,48	187,356
386,69	264,583
386,91	305,000
387,12	237,288
387,34	265,517
387,55	248,387
387,77	631,250
387,98	384,615
388,20	192,391
388,41	414,706
388,63	7800,000
388,84	247,541
389,06	366,667
389,27	747,368
389,49	338,889
389,70	300,000
389,92	250,000
390,13	232,653
390,35	237,255
390,56	214,815
390,78	425,926
390,99	890,000
391,21	605,263
391,42	297,778
391,64	302,439
391,85	229,310
392,07	229,545
392,28	150,667
392,50	284,848
392,71	-1300,000
392,93	317,308
393,14	480,556
393,36	234,694
393,57	154,135
393,79	1200,000
394,00	338,298
394,22	179,452
394,43	167,470
394,65	265,116
394,86	1350,000
395,08	552,381
395,29	188,679
395,50	661,538
395,72	577,778
395,93	857,143
396,15	209,859
396,36	145,588
396,58	205,000
396,79	337,500
397,01	272,000
397,22	302,778
397,44	210,606
397,65	205,263
397,87	333,333
398,08	159,184
398,29	362,500
398,51	250,000
398,72	192,683
398,94	178,462
399,15	271,429
399,37	235,088
399,58	173,626
399,80	409,091
400,01	179,630
400,22	200,000
400,44	216,049
400,65	539,286
400,87	172,059
401,08	204,286
401,30	291,304
401,51	238,596
401,72	430,769
401,94	187,342
402,15	455,000
402,37	147,899
402,58	677,778
402,80	254,286
403,01	228,169
403,22	890,909
403,44	179,710
403,65	214,286
403,87	292,857
404,08	364,103
404,30	142,353
404,51	-2200,000
404,72	92,857
404,94	140,196
405,15	240,000
405,37	173,418
405,58	141,176
405,79	173,171
406,01	339,024
406,22	160,345
406,44	270,213
406,65	233,333
406,86	164,583
407,08	143,038
407,29	142,718
407,51	147,561
407,72	139,815
407,93	146,739
408,15	111,111
408,36	209,302
408,58	145,361
408,79	123,333
409,00	140,625
409,22	204,762
409,43	146,835
409,64	91,925
409,86	90,566
410,07	93,077
410,29	86,567
410,50	107,801
410,71	112,500
410,93	82,803
411,14	113,953
411,35	91,667
411,57	86,184
411,78	94,531
412,00	78,981
412,21	82,581
412,42	75,661
412,64	60,515
412,85	55,155
413,06	56,707
413,28	47,748
413,49	54,028
413,70	62,681
413,92	60,870
414,13	42,324
414,34	59,387
414,56	32,517
414,77	66,245
414,98	44,631
415,20	53,287
415,41	46,176
415,63	29,353
415,84	32,222
416,05	32,967
416,27	27,390
416,48	33,146
416,69	39,159
416,91	29,459
417,12	30,214
417,33	39,789
417,55	23,340
417,76	36,345
417,97	22,822
418,19	27,833
418,40	22,128
418,61	22,963
418,83	18,182
419,04	20,189
419,25	13,707
419,46	19,850
419,68	17,619
419,89	18,480
420,10	20,000
420,32	15,318
420,53	17,364
420,74	19,187
420,96	19,250
421,17	19,515
421,38	15,016
421,60	13,466
421,81	15,718
422,02	10,763
422,23	13,146
422,45	14,627
422,66	18,425
422,87	16,303
423,09	12,391
423,30	12,201
423,51	15,118
423,73	14,404
423,94	15,546
424,15	13,197
424,36	15,893
424,58	18,625
424,79	22,736
425,00	25,820
425,22	35,120
425,43	40,479
425,64	51,344
425,85	58,379
426,07	73,976
426,28	77,458
426,49	82,733
426,71	88,319
426,92	88,938
427,13	95,253
427,34	97,589
427,56	100,551
427,77	91,876
427,98	97,992
428,19	97,351
428,41	95,179
428,62	98,078
428,83	95,966
429,04	97,639
429,26	96,151
429,47	98,226
429,68	98,484
429,89	99,242
430,11	97,363
430,32	96,378
430,53	94,813
430,74	96,784
430,96	96,032
431,17	96,000
431,38	96,848
431,59	94,904
431,81	97,750
432,02	95,406
432,23	96,218
432,44	95,955
432,66	97,577
432,87	97,839
433,08	97,414
433,29	97,428
433,51	95,988
433,72	99,982
433,93	95,019
434,14	98,700
434,35	99,361
434,57	96,581
434,78	98,245
434,99	96,666
435,20	95,091
435,42	95,290
435,63	94,263
435,84	95,583
436,05	92,439
436,26	92,253
436,48	93,943
436,69	93,887
436,90	94,230
437,11	93,325
437,32	94,549
437,54	95,322
437,75	94,968
437,96	95,930
438,17	93,616
438,38	95,504
438,60	97,658
438,81	94,758
439,02	97,840
439,23	95,616
439,44	92,808
439,66	94,781
439,87	95,007
440,08	94,131
440,29	94,343
440,50	94,317
440,72	92,779
440,93	94,062
441,14	94,902
441,35	94,831
441,56	93,907
441,77	94,623
441,99	96,037
442,20	95,649
442,41	94,720
442,62	97,305
442,83	97,067
443,04	96,428
443,26	97,635
443,47	97,126
443,68	95,539
443,89	94,526
444,10	96,274
444,31	97,037
444,53	96,178
444,74	95,343
444,95	95,388
445,16	96,267
445,37	93,457
445,58	94,352
445,80	94,522
446,01	94,985
446,22	95,896
446,43	94,843
446,64	95,696
446,85	96,151
447,06	96,047
447,28	95,968
447,49	95,780
447,70	95,828
447,91	96,414
448,12	96,259
448,33	96,705
448,54	97,864
448,76	98,002
448,97	98,080
449,18	98,300
449,39	96,675
449,60	98,457
449,81	97,439
450,02	97,812
450,23	97,752
450,45	97,246
450,66	95,648
450,87	96,409
451,08	95,845
451,29	96,422
451,50	95,586
451,71	94,530
451,92	95,068
452,13	94,176
452,35	95,583
452,56	94,750
452,77	96,255
452,98	95,229
453,19	96,234
453,40	96,463
453,61	96,760
453,82	96,065
454,03	96,628
454,25	96,490
454,46	96,625
454,67	96,323
454,88	97,040
455,09	97,327
455,30	96,572
455,51	97,858
455,72	95,317
455,93	95,556
456,14	95,358
456,35	96,380
456,56	94,261
456,78	93,694
456,99	93,980
457,20	94,273
457,41	92,690
457,62	92,162
457,83	90,646
458,04	90,410
458,25	91,159
458,46	88,705
458,67	87,688
458,88	86,463
459,09	84,429
459,30	81,638
459,51	79,594
459,73	77,181
459,94	75,029
460,15	73,030
460,36	71,769
460,57	71,219
460,78	70,287
460,99	67,952
461,20	65,160
461,41	60,864
461,62	52,713
461,83	43,775
462,04	33,993
462,25	23,572
462,46	14,745
462,67	8,565
462,88	4,991
463,09	3,045
463,30	1,784
463,51	1,592
463,72	1,271
463,93	1,050
464,15	0,819
464,36	0,734
464,57	0,631
464,78	0,803
464,99	0,801
465,20	0,840
465,41	0,749
465,62	0,849
465,83	0,710
466,04	0,751
466,25	0,631
466,46	0,740
466,67	0,791
466,88	0,706
467,09	0,688
467,30	0,674
467,51	0,776
467,72	0,631
467,93	0,948
468,14	0,753
468,35	0,638
468,56	0,636
468,77	0,715
468,98	0,731
469,19	0,801
469,40	0,684
469,61	0,545
469,82	0,482
470,03	0,645
470,24	0,841
470,45	0,662
470,66	0,560
470,87	0,574
471,08	0,807
471,29	0,639
471,50	0,678
471,71	0,641
471,92	0,768
472,13	0,545
472,34	0,594
472,55	0,684
472,76	0,796
472,97	0,801
473,18	0,554
473,39	0,594
473,60	0,828
473,81	0,594
474,01	0,825
474,22	0,867
474,43	0,766
474,64	0,879
474,85	0,433
475,06	0,593
475,27	0,557
475,48	0,554
475,69	0,572
475,90	0,820
476,11	0,807
476,32	0,775
476,53	0,855
476,74	0,922
476,95	0,778
477,16	0,737
477,37	1,001
477,58	0,833
477,79	1,022
478,00	0,831
478,21	0,874
478,41	0,889
478,62	0,715
478,83	0,816
479,04	0,915
479,25	0,656
479,46	0,685
479,67	1,078
479,88	0,912
480,09	0,710
480,30	0,912
480,51	0,990
480,72	0,871
480,93	1,003
481,14	0,732
481,34	0,779
481,55	0,758
481,76	0,854
481,97	0,922
482,18	0,839
482,39	0,830
482,60	0,725
482,81	1,014
483,02	0,692
483,23	0,854
483,44	0,821
483,65	0,900
483,85	0,597
484,06	0,872
484,27	0,710
484,48	0,723
484,69	0,944
484,90	0,858
485,11	0,744
485,32	0,738
485,53	0,947
485,73	0,993
485,94	0,622
486,15	0,979
486,36	0,640
486,57	0,891
486,78	0,957
486,99	0,943
487,20	0,735
487,41	0,576
487,61	0,735
487,82	0,920
488,03	0,929
488,24	0,870
488,45	0,730
488,66	0,982
488,87	0,786
489,08	0,885
489,28	0,900
489,49	0,950
489,70	0,713
489,91	0,818
490,12	0,865
490,33	0,758
490,54	0,679
490,74	0,926
490,95	0,931
491,16	0,746
491,37	1,051
491,58	0,826
491,79	0,804
492,00	0,909
492,20	0,893
492,41	0,861
492,62	0,800
492,83	1,019
493,04	0,836
493,25	1,088
493,45	0,910
493,66	1,178
493,87	1,103
494,08	1,027
494,29	0,809
494,50	0,998
494,70	1,197
494,91	1,012
495,12	1,324
495,33	1,138
495,54	1,267
495,75	1,342
495,95	1,129
496,16	1,210
496,37	1,476
496,58	1,880
496,79	2,634
496,99	4,229
497,20	7,254
497,41	12,017
497,62	18,497
497,83	27,046
498,04	36,466
498,24	46,322
498,45	55,372
498,66	62,073
498,87	66,489
499,08	66,778
499,28	67,203
499,49	65,643
499,70	64,932
499,91	66,190
500,12	66,088
500,32	69,375
500,53	72,691
500,74	76,697
500,95	81,175
501,15	85,004
501,36	88,157
501,57	91,128
501,78	92,013
501,99	92,917
502,19	93,263
502,40	93,099
502,61	93,642
502,82	93,219
503,02	91,874
503,23	92,366
503,44	92,594
503,65	91,819
503,86	91,056
504,06	92,040
504,27	91,831
504,48	92,821
504,69	93,130
504,89	94,604
505,10	95,231
505,31	96,002
505,52	96,031
505,72	96,390
505,93	96,735
506,14	98,146
506,35	97,979
506,55	96,424
506,76	96,993
506,97	97,291
507,18	97,552
507,38	96,892
507,59	96,121
507,80	97,005
508,01	97,206
508,21	96,082
508,42	97,583
508,63	96,851
508,84	97,331
509,04	97,258
509,25	98,470
509,46	97,635
509,67	97,139
509,87	98,513
510,08	98,561
510,29	98,152
510,49	97,704
510,70	97,063
510,91	97,747
511,12	97,174
511,32	96,143
511,53	95,043
511,74	94,619
511,94	94,943
512,15	94,483
512,36	96,167
512,57	95,188
512,77	97,000
512,98	95,330
513,19	96,313
513,39	96,302
513,60	95,282
513,81	96,884
514,01	95,528
514,22	95,662
514,43	95,750
514,64	95,296
514,84	95,836
515,05	96,289
515,26	96,014
515,46	96,204
515,67	96,602
515,88	96,459
516,08	96,854
516,29	97,057
516,50	97,030
516,70	96,392
516,91	96,695
517,12	97,092
517,32	97,858
517,53	97,763
517,74	97,909
517,95	97,100
518,15	97,081
518,36	97,551
518,57	96,679
518,77	97,500
518,98	95,966
519,19	96,622
519,39	95,717
519,60	95,629
519,80	95,120
520,01	94,386
520,22	94,566
520,42	94,922
520,63	94,897
520,84	95,575
521,04	96,068
521,25	95,522
521,46	95,374
521,66	96,506
521,87	95,666
522,08	96,657
522,28	95,851
522,49	95,379
522,70	94,893
522,90	96,229
523,11	95,988
523,31	96,833
523,52	96,073
523,73	95,771
523,93	94,550
524,14	95,598
524,35	95,353
524,55	94,459
524,76	94,316
524,97	94,926
525,17	96,093
525,38	95,004
525,58	95,380
525,79	95,167
526,00	96,000
526,20	96,647
526,41	96,317
526,61	98,503
526,82	98,137
527,03	98,158
527,23	97,947
527,44	97,689
527,64	98,783
527,85	98,283
528,06	98,841
528,26	97,779
528,47	97,491
528,68	97,720
528,88	96,935
529,09	97,482
529,29	98,509
529,50	98,795
529,70	98,080
529,91	97,615
530,12	98,451
530,32	96,505
530,53	97,246
530,73	95,325
530,94	97,043
531,15	96,303
531,35	96,042
531,56	96,151
531,76	95,173
531,97	95,167
532,17	95,491
532,38	94,089
532,59	95,177
532,79	95,725
533,00	95,260
533,20	97,500
533,41	96,919
533,61	96,989
533,82	96,452
534,03	95,910
534,23	97,090
534,44	96,983
534,64	96,804
534,85	96,838
535,05	97,000
535,26	96,989
535,46	97,618
535,67	96,712
535,88	96,679
536,08	96,101
536,29	96,881
536,49	95,964
536,70	95,226
536,90	94,393
537,11	93,376
537,31	92,455
537,52	93,082
537,72	93,016
537,93	92,862
538,13	91,689
538,34	92,049
538,55	92,785
538,75	92,392
538,96	92,747
539,16	90,674
539,37	89,850
539,57	88,998
539,78	87,003
539,98	85,220
540,19	82,939
540,39	81,663
540,60	80,573
540,80	79,396
541,01	78,606
541,21	79,891
541,42	79,469
541,62	79,271
541,83	79,680
542,03	80,083
542,24	80,987
542,44	80,519
542,65	78,689
542,85	77,632
543,06	76,129
543,26	71,785
543,47	70,059
543,67	64,540
543,88	58,954
544,08	50,175
544,29	40,745
544,49	30,664
544,70	21,498
544,90	14,580
545,11	9,471
545,31	6,165
545,52	4,000
545,72	3,150
545,93	2,018
546,13	1,775
546,34	1,503
546,54	1,308
546,75	1,284
546,95	1,107
547,15	1,045
547,36	0,958
547,56	1,101
547,77	0,951
547,97	1,061
548,18	0,887
548,38	0,952
548,59	0,966
548,79	0,742
549,00	0,852
549,20	0,998
549,41	0,853
549,61	1,077
549,81	0,912
550,02	1,309
550,22	0,793
550,43	0,815
550,63	0,850
550,84	0,746
551,04	1,106
551,25	0,900
551,45	0,874
551,65	0,804
551,86	1,025
552,06	0,954
552,27	0,865
552,47	0,939
552,68	0,881
552,88	0,752
553,08	0,795
553,29	0,787
553,49	0,808
553,70	0,931
553,90	0,715
554,11	0,838
554,31	0,876
554,51	0,907
554,72	0,754
554,92	0,933
555,13	1,008
555,33	0,950
555,53	0,939
555,74	0,985
555,94	0,857
556,15	0,787
556,35	0,783
556,56	0,941
556,76	0,881
556,96	0,810
557,17	0,911
557,37	0,959
557,58	0,850
557,78	0,817
557,98	0,807
558,19	0,793
558,39	0,911
558,59	0,943
558,80	0,849
559,00	0,733
559,21	0,610
559,41	0,756
559,61	0,736
559,82	0,625
560,02	0,612
560,23	0,943
560,43	0,887
560,63	0,674
560,84	0,840
561,04	0,884
561,24	0,779
561,45	0,631
561,65	0,606
561,85	0,867
562,06	0,713
562,26	0,617
562,47	0,779
562,67	0,790
562,87	0,865
563,08	0,678
563,28	0,729
563,48	0,793
563,69	0,709
563,89	0,877
564,09	0,990
564,30	0,685
564,50	0,818
564,70	1,048
564,91	0,904
565,11	0,699
565,31	0,875
565,52	0,847
565,72	0,951
565,92	0,919
566,13	0,771
566,33	0,719
566,53	0,810
566,74	0,862
566,94	0,864
567,14	0,764
567,35	0,835
567,55	0,781
567,75	0,750
567,96	0,775
568,16	0,729
568,36	0,732
568,57	0,865
568,77	0,778
568,97	0,825
569,18	0,924
569,38	0,825
569,58	0,857
569,79	0,790
569,99	0,890
570,19	0,725
570,39	0,793
570,60	0,690
570,80	0,859
571,00	0,810
571,21	0,920
571,41	0,794
571,61	0,862
571,82	1,011
572,02	1,081
572,22	0,916
572,42	1,020
572,63	1,147
572,83	1,082
573,03	1,087
573,24	1,083
573,44	1,130
573,64	1,257
573,84	1,333
574,05	1,228
574,25	1,343
574,45	1,176
574,66	1,249
574,86	1,507
575,06	2,011
575,26	2,805
575,47	3,880
575,67	6,054
575,87	9,021
576,07	13,224
576,28	20,152
576,48	28,240
576,68	37,624
576,88	47,648
577,09	58,456
577,29	66,272
577,49	74,333
577,69	79,365
577,90	81,558
578,10	83,192
578,30	83,327
578,50	83,106
578,71	84,130
578,91	83,660
579,11	83,376
579,31	83,687
579,52	83,458
579,72	83,460
579,92	83,835
580,12	85,858
580,33	86,425
580,53	87,423
580,73	88,424
580,93	88,768
581,13	89,590
581,34	89,962
581,54	89,645
581,74	91,277
581,94	91,473
582,15	91,903
582,35	91,037
582,55	91,092
582,75	91,901
582,95	92,879
583,16	92,748
583,36	93,001
583,56	94,508
583,76	94,846
583,96	94,875
584,17	96,404
584,37	96,332
584,57	95,725
584,77	95,624
584,97	95,391
585,18	95,374
585,38	94,525
585,58	93,100
585,78	92,048
585,98	91,596
586,19	92,775
586,39	90,696
586,59	91,894
586,79	91,499
586,99	92,677
587,20	92,542
587,40	93,920
587,60	93,661
587,80	95,204
588,00	95,275
588,20	95,368
588,41	97,623
588,61	97,668
588,81	97,468
589,01	98,388
589,21	97,410
589,41	97,623
589,62	98,365
589,82	98,370
590,02	97,752
590,22	98,515
590,42	99,239
590,62	98,301
590,83	96,853
591,03	98,389
591,23	98,130
591,43	96,958
591,63	96,652
591,83	97,264
592,03	95,881
592,24	96,411
592,44	96,899
592,64	96,863
592,84	97,234
593,04	96,594
593,24	96,619
593,44	97,062
593,65	97,705
593,85	97,211
594,05	97,045
594,25	96,796
594,45	96,523
594,65	96,445
594,85	96,624
595,06	96,502
595,26	96,630
595,46	96,785
595,66	95,819
595,86	95,878
596,06	96,164
596,26	95,953
596,46	96,818
596,66	96,754
596,87	95,986
597,07	97,091
597,27	97,644
597,47	97,627
597,67	98,101
597,87	97,149
598,07	95,561
598,27	97,082
598,47	97,704
598,67	97,373
598,88	98,269
599,08	97,006
599,28	97,605
599,48	96,928
599,68	96,633
599,88	97,105
600,08	96,792
600,28	96,674
600,48	97,628
600,68	97,181
600,88	96,690
601,09	96,882
601,29	95,714
601,49	97,310
601,69	96,491
601,89	97,151
602,09	97,180
602,29	95,996
602,49	96,612
602,69	96,345
602,89	96,631
603,09	96,464
603,29	97,129
603,49	95,582
603,69	96,073
603,90	95,771
604,10	96,819
604,30	96,780
604,50	95,662
604,70	95,820
604,90	96,899
605,10	96,838
605,30	97,410
605,50	96,492
605,70	97,766
605,90	96,599
606,10	96,341
606,30	96,014
606,50	96,818
606,70	97,022
606,90	96,466
607,10	96,288
607,30	96,092
607,50	95,443
607,70	95,913
607,90	96,074
608,10	94,967
608,30	95,358
608,50	95,013
608,70	94,459
608,90	95,145
609,11	95,331
609,31	94,475
609,51	95,716
609,71	95,291
609,91	95,668
610,11	94,837
610,31	95,755
610,51	94,197
610,71	94,328
610,91	93,317
611,11	90,800
611,31	90,194
611,51	87,900
611,71	86,863
611,91	84,792
612,11	84,150
612,31	83,268
612,51	82,577
612,71	82,792
612,91	82,791
613,11	83,129
613,31	84,688
613,51	85,803
613,71	86,238
613,91	88,239
614,11	89,113
614,31	89,421
614,50	89,892
614,70	88,852
614,90	88,291
615,10	87,687
615,30	85,657
615,50	83,136
615,70	80,744
615,90	77,948
616,10	75,393
616,30	70,633
616,50	65,163
616,70	58,305
616,90	52,487
617,10	44,092
617,30	35,852
617,50	27,804
617,70	20,909
617,90	14,692
618,10	10,018
618,30	6,984
618,50	4,770
618,70	3,496
618,90	2,534
619,10	1,963
619,30	1,621
619,49	1,342
619,69	1,186
619,89	0,891
620,09	0,959
620,29	0,942
620,49	0,928
620,69	0,841
620,89	0,663
621,09	0,795
621,29	0,843
621,49	0,678
621,69	0,801
621,89	0,854
622,09	0,742
622,29	0,820
622,48	0,788
622,68	0,738
622,88	0,746
623,08	0,790
623,28	0,612
623,48	0,528
623,68	0,609
623,88	0,734
624,08	0,762
624,28	0,456
624,48	0,647
624,67	0,728
624,87	0,640
625,07	0,562
625,27	0,662
625,47	0,791
625,67	0,908
625,87	0,681
626,07	0,658
626,27	0,681
626,47	0,674
626,66	0,577
626,86	0,653
627,06	0,553
627,26	0,692
627,46	0,633
627,66	0,730
627,86	0,461
628,06	0,690
628,25	0,434
628,45	0,651
628,65	0,560
628,85	0,680
629,05	0,781
629,25	0,600
629,45	0,487
629,65	0,431
629,84	0,657
630,04	0,665
630,24	0,726
630,44	0,605
630,64	0,643
630,84	0,666
631,04	0,651
631,23	0,635
631,43	0,721
631,63	0,585
631,83	0,561
632,03	0,643
632,23	0,928
632,42	0,762
632,62	0,663
632,82	0,641
633,02	0,548
633,22	0,684
633,42	0,736
633,62	0,760
633,81	0,689
634,01	0,628
634,21	0,793
634,41	0,943
634,61	0,711
634,80	0,720
635,00	0,525
635,20	0,885
635,40	0,788
635,60	0,500
635,80	0,663
635,99	0,677
636,19	0,683
636,39	1,034
636,59	0,970
636,79	0,966
636,98	1,006
637,18	1,070
637,38	1,126
637,58	0,875
637,78	0,697
637,97	0,776
638,17	1,028
638,37	0,718
638,57	0,724
638,77	0,900
638,96	0,695
639,16	0,767
639,36	0,703
639,56	0,901
639,76	1,203
639,95	0,906
640,15	0,673
640,35	1,013
640,55	0,718
640,75	1,244
640,94	0,879
641,14	0,897
641,34	0,967
641,54	0,690
641,73	1,074
641,93	1,024
642,13	0,889
642,33	0,935
642,53	0,917
642,72	1,047
642,92	1,102
643,12	0,801
643,32	1,190
643,51	1,017
643,71	1,006
643,91	0,712
644,11	1,107
644,30	0,947
644,50	0,878
644,70	0,851
644,90	0,742
645,09	0,988
645,29	0,607
645,49	1,284
645,69	0,909
645,88	0,870
646,08	1,180
646,28	1,293
646,48	0,980
646,67	1,071
646,87	1,252
647,07	1,291
647,26	0,965
647,46	1,267
647,66	1,094
647,86	1,130
648,05	1,143
648,25	0,988
648,45	1,077
648,65	1,375
648,84	1,280
649,04	1,401
649,24	1,524
649,43	1,162
649,63	1,441
649,83	1,516
650,03	1,330
650,22	1,001
650,42	1,603
650,62	0,888
650,81	1,228
651,01	1,178
651,21	1,052
651,40	1,309
651,60	1,242
651,80	1,093
652,00	1,228
652,19	1,088
652,39	1,768
652,59	1,516
652,78	1,459
652,98	1,263
653,18	1,467
653,37	1,415
653,57	1,646
653,77	1,246
653,96	1,715
654,16	1,942
654,36	2,484
654,55	3,959
654,75	4,082
654,95	5,648
655,14	7,735
655,34	10,267
655,54	13,235
655,73	17,545
655,93	23,963
656,13	29,603
656,32	35,973
656,52	42,920
656,72	48,673
656,91	54,661
657,11	59,306
657,31	62,201
657,50	67,195
657,70	69,412
657,90	70,584
658,09	74,227
658,29	76,011
658,49	74,847
658,68	76,605
658,88	78,129
659,07	78,147
659,27	77,972
659,47	80,301
659,66	81,574
659,86	83,479
660,06	85,151
660,25	83,796
660,45	87,170
660,64	86,689
660,84	87,623
661,04	89,279
661,23	89,401
661,43	89,118
661,63	91,028
661,82	91,205
662,02	90,501
662,21	89,367
662,41	92,404
662,61	91,901
662,80	92,763
663,00	91,858
663,19	92,373
663,39	93,489
663,59	93,799
663,78	94,950
663,98	94,568
664,17	94,741
664,37	96,071
664,57	97,480
664,76	96,168
664,96	97,099
665,15	96,692
665,35	97,211
665,55	95,511
665,74	95,659
665,94	95,939
666,13	95,795
666,33	96,193
666,53	95,801
666,72	95,205
666,92	94,129
667,11	96,387
667,31	94,721
667,50	96,145
667,70	96,000
667,90	95,822
668,09	96,735
668,29	96,669
668,48	96,972
668,68	96,136
668,87	95,457
669,07	96,293
669,26	94,015
669,46	93,752
669,66	95,199
669,85	93,749
670,05	94,560
670,24	93,166
670,44	93,847
670,63	94,383
670,83	94,961
671,02	93,367
671,22	95,296
671,42	93,899
671,61	94,499
671,81	94,328
672,00	95,178
672,20	95,777
672,39	96,724
672,59	95,046
672,78	95,075
672,98	95,967
673,17	95,669
673,37	96,762
673,56	95,328
673,76	94,222
673,95	94,629
674,15	93,492
674,34	94,773
674,54	94,742
674,73	94,408
674,93	94,622
675,13	94,856
675,32	94,209
675,52	93,938
675,71	93,038
675,91	93,786
676,10	93,295
676,30	93,575
676,49	94,982
676,69	92,345
676,88	94,796
677,08	93,024
677,27	94,304
677,47	93,030
677,66	93,836
677,86	92,412
678,05	93,248
678,24	92,602
678,44	92,862
678,63	92,674
678,83	93,854
679,02	92,546
679,22	91,596
679,41	92,420
679,61	91,692
679,80	91,282
680,00	89,850
680,19	89,609
680,39	90,456
680,58	90,060
680,78	88,585
680,97	89,515
681,17	88,454
681,36	89,020
681,56	88,408
681,75	88,352
681,94	87,762
682,14	88,783
682,33	87,149
682,53	88,325
682,72	88,723
682,92	88,775
683,11	88,026
683,31	88,449
683,50	88,195
683,69	90,203
683,89	89,465
684,08	89,708
684,28	90,913
684,47	90,645
684,67	90,089
684,86	89,128
685,06	89,372
685,25	88,557
685,44	88,421
685,64	85,942
685,83	85,024
686,03	84,113
686,22	82,215
686,42	80,761
686,61	80,413
686,80	77,841
687,00	76,328
687,19	74,651
687,39	73,435
687,58	74,070
687,77	73,866
687,97	72,823
688,16	72,984
688,36	72,545
688,55	72,218
688,74	71,219
688,94	72,088
689,13	70,211
689,33	67,223
689,52	63,371
689,71	60,986
689,91	55,923
690,10	50,813
690,30	45,926
690,49	40,947
690,68	36,678
690,88	33,071
691,07	30,810
691,27	28,780
691,46	28,104
691,65	28,071
691,85	28,422
692,04	29,407
692,23	29,686
692,43	31,061
692,62	30,846
692,82	29,440
693,01	26,743
693,20	23,904
693,40	19,524
693,59	15,167
693,78	11,276
693,98	8,876
694,17	6,443
694,36	5,065
694,56	3,957
694,75	2,705
694,94	2,364
695,14	1,858
695,33	1,317
695,53	1,302
695,72	1,170
695,91	0,935
696,11	0,793
696,30	0,834
696,49	0,653
696,69	0,773
696,88	0,815
697,07	0,637
697,27	0,687
697,46	0,632
697,65	0,837
697,85	0,587
698,04	0,935
698,23	1,072
698,43	1,014
698,62	0,834
698,81	0,804
699,01	1,519
699,20	1,052
699,39	0,965
699,58	0,842
699,78	1,182
699,97	1,030
700,16	1,301
700,36	0,850
700,55	1,311
700,74	1,101
700,94	1,222
701,13	1,074
701,32	1,602
701,52	1,712
701,71	0,877
701,90	1,792
702,09	1,300
702,29	1,694
702,48	1,657
702,67	1,058
702,87	1,507
703,06	1,726
703,25	1,800
703,44	1,900
703,64	2,479
703,83	1,598
704,02	2,162
704,22	0,840
704,41	1,218
704,60	2,726
704,79	1,352
704,99	2,193
705,18	2,096
705,37	2,375
705,56	2,421
705,76	2,824
705,95	1,955
706,14	2,686
706,33	2,903
706,53	3,049
706,72	1,840
706,91	3,503
707,11	3,313
707,30	3,533
707,49	3,253
707,68	1,812
707,88	2,814
708,07	3,431
708,26	2,926
708,45	3,398
708,64	2,640
708,84	4,016
709,03	3,371
709,22	2,136
709,41	3,609
709,61	3,302
709,80	3,562
709,99	3,885
710,18	4,110
710,38	4,016
710,57	2,848
710,76	3,569
710,95	3,512
711,14	5,059
711,34	4,229
711,53	5,051
711,72	3,260
711,91	4,196
712,11	4,679
712,30	5,624
712,49	4,313
712,68	5,804
712,87	6,014
713,07	5,394
713,26	3,648
713,45	4,756
713,64	3,831
713,83	5,096
714,03	6,786
714,22	5,434
714,41	5,159
714,60	5,453
714,79	4,916
714,99	4,724
715,18	4,053
715,37	6,380
715,56	6,726
715,75	3,818
715,94	5,585
716,14	5,734
716,33	4,741
716,52	5,775
716,71	6,648
716,90	8,782
717,10	6,765
717,29	6,800
717,48	8,489
717,67	5,308
717,86	5,501
718,05	2,398
718,24	8,089
718,44	6,153
718,63	5,205
718,82	9,257
719,01	7,860
719,20	5,384
719,39	6,726
719,59	5,199
719,78	7,104
719,97	6,555
720,16	6,923
720,35	6,601
720,54	7,405
720,73	3,145
720,93	8,029
721,12	5,092
721,31	8,693
721,50	6,602
721,69	7,458
721,88	8,748
722,07	6,728
722,27	8,618
722,46	5,973
722,65	6,787
722,84	7,378
723,03	6,678
723,22	11,987
723,41	9,267
723,60	11,947
723,79	5,051
723,99	7,818
724,18	9,669
724,37	8,388
724,56	10,705
724,75	9,269
724,94	10,462
725,13	12,111
725,32	8,935
725,51	11,160
725,71	6,155
725,90	10,516
726,09	11,860
726,28	12,582
726,47	9,473
726,66	10,884
726,85	8,402
727,04	9,969
727,23	11,332
727,42	11,610
727,61	6,138
727,81	10,323
728,00	13,198
728,19	9,382
728,38	11,987
728,57	15,618
728,76	15,658
728,95	13,616
729,14	10,759
729,33	14,160
729,52	15,298
729,71	14,351
729,90	9,300
730,09	10,280
730,28	13,395
730,48	10,093
730,67	13,664
730,86	8,085
731,05	13,084
731,24	9,792
731,43	10,314
731,62	17,293
731,81	9,784
732,00	13,088
732,19	8,301
732,38	12,435
732,57	16,076
732,76	18,214
732,95	6,800
733,14	4,161
733,33	7,280
733,52	18,160
733,71	13,282
733,90	17,352
734,09	9,738
734,28	12,276
734,47	10,263
734,66	11,262
734,85	10,071
735,04	22,480
735,23	12,169
735,42	14,841
735,61	19,067
735,81	15,586
736,00	16,114
736,19	18,639
736,38	11,259
736,57	14,067
736,76	5,891
736,95	16,212
737,14	14,590
737,33	24,077
737,52	17,798
737,71	9,615
737,90	17,398
738,09	15,951
738,28	15,152
738,47	16,340
738,66	14,375
738,85	13,230
739,04	21,053
739,22	14,527
739,41	20,645
739,60	19,900
739,79	15,582
739,98	11,071
740,17	18,367
740,36	21,071
740,55	19,577
740,74	12,522
740,93	17,073
741,12	20,588
741,31	8,088
741,50	13,748
741,69	17,407
741,88	15,000
742,07	16,426
742,26	12,921
742,45	16,601
742,64	20,504
742,83	20,213
743,02	15,856
743,21	35,010
743,40	19,578
743,59	14,549
743,78	22,052
743,97	22,932
744,16	18,847
744,34	13,780
744,53	19,262
744,72	27,859
744,91	15,158
745,10	17,548
745,29	19,858
745,48	23,679
745,67	27,291
745,86	7,981
746,05	20,320
746,24	21,133
746,43	32,861
746,62	10,369
746,81	14,840
747,00	17,119
747,18	33,846
747,37	26,226
747,56	19,101
747,75	23,414
747,94	25,602
748,13	15,297
748,32	23,077
748,51	29,571
748,70	25,659
748,89	26,329
749,08	26,000
749,26	26,969
749,45	28,471
749,64	16,873
749,83	25,954
750,02	23,757
750,21	22,287
750,40	28,385
750,59	38,443
750,78	31,361
750,96	11,173
751,15	17,213
751,34	33,246
751,53	36,700
751,72	23,450
751,91	21,644
752,10	13,272
752,29	25,706
752,47	26,404
752,66	27,606
752,85	21,981
753,04	38,486
753,23	17,881
753,42	26,140
753,61	29,412
753,80	26,829
753,98	24,211
754,17	24,540
754,36	25,424
754,55	12,539
754,74	34,682
754,93	24,207
755,12	24,533
755,30	31,302
755,49	48,318
755,68	34,006
755,87	23,724
756,06	31,564
756,25	23,810
756,43	28,276
756,62	37,685
756,81	41,914
757,00	19,130
757,19	42,466
757,38	26,498
757,56	27,097
757,75	43,791
757,94	20,820
758,13	31,818
758,32	33,712
758,51	37,132
758,69	16,400
758,88	39,339
759,07	31,183
759,26	29,767
759,45	32,314
759,63	45,725
759,82	17,845
760,01	24,080
760,20	31,128
760,39	42,537
760,57	33,884
760,76	15,315
760,95	31,944
761,14	50,612
761,33	42,500
761,51	34,050
761,70	61,034
761,89	37,705
762,08	21,395
762,27	36,996
762,45	39,300
762,64	28,571
762,83	35,398
763,02	28,372
763,21	34,052
763,39	43,673
763,58	41,132
763,77	31,274
763,96	47,390
764,14	50,417
764,33	41,026
764,52	46,781
764,71	45,291
764,89	35,294
765,08	50,431
765,27	43,494
765,46	44,565
765,65	46,725
765,83	36,797
766,02	29,362
766,21	50,276
766,40	49,524
766,58	39,837
766,77	33,333
766,96	53,182
767,15	47,343
767,33	38,012
767,52	53,659
767,71	54,348
767,90	39,888
768,08	41,245
768,27	32,500
768,46	46,875
768,64	51,813
768,83	46,875
769,02	50,000
769,21	28,821
769,39	38,372
769,58	42,775
769,77	72,031
769,96	61,257
770,14	39,456
770,33	50,935
770,52	58,201
770,70	60,667
770,89	77,181
771,08	29,661
771,27	57,732
771,45	43,421
771,64	69,271
771,83	52,336
772,01	71,687
772,20	70,352
772,39	40,000
772,57	58,140
772,76	54,074
772,95	65,248
773,14	43,548
773,32	44,516
773,51	72,637
773,70	90,000
773,88	74,863
774,07	55,497
774,26	61,702
774,44	33,537
774,63	62,437
774,82	71,341
775,00	68,000
775,19	31,200
775,38	65,896
775,56	50,521
775,75	46,988
775,94	45,570
776,12	44,751
776,31	72,353
776,50	57,955
776,68	66,316
776,87	63,636
777,06	77,931
777,24	68,333
777,43	67,949
777,62	69,853
777,80	81,757
777,99	67,429
778,18	62,376
778,36	84,800
778,55	73,554
778,74	69,444
778,92	77,515
779,11	87,500
779,29	56,604
779,48	44,898
779,67	48,837
779,85	79,675
780,04	59,459
780,23	47,482
780,41	75,000
780,60	34,211
780,79	76,271
780,97	75,658
781,16	69,091
781,34	94,845
781,53	59,829
781,72	82,482
781,90	59,375
782,09	76,774
782,28	88,321
782,46	56,296
782,65	66,429
782,83	87,640
783,02	92,500
783,21	87,333
783,39	97,391
783,58	56,213
783,76	72,067
783,95	59,394
784,14	68,212
784,32	73,154
784,51	92,241
784,69	87,288
784,88	81,982
785,06	61,345
785,25	97,452
785,44	72,662
785,62	56,429
785,81	132,394
785,99	109,353
786,18	62,162
786,37	57,037
786,55	47,706
786,74	57,895
786,92	78,125
787,11	38,333
787,29	71,642
787,48	54,000
787,67	66,265
787,85	86,207
788,04	46,535
788,22	77,049
788,41	71,765
788,59	118,349
788,78	81,212
788,96	77,358
789,15	118,947
789,34	86,364
789,52	76,991
789,71	65,891
789,89	108,511
790,08	67,123
790,26	78,571
790,45	70,455
790,63	70,370
790,82	65,455
791,00	63,194
791,19	107,527
791,38	87,500
791,56	64,912
791,75	100,917
791,93	52,874
792,12	72,781
792,30	84,000
792,49	82,353
792,67	109,701
792,86	93,798
793,04	67,290
793,23	37,500
793,41	106,329
793,60	88,889
793,78	116,667
793,97	100,000
794,15	86,364
794,34	80,220
794,52	107,792
794,71	127,160
794,89	96,667
795,08	105,825
795,26	67,222
795,45	91,045
795,63	90,152
795,82	71,963
796,00	119,266
796,19	113,333
796,37	108,759
796,56	134,409
796,74	84,071
796,93	94,382
797,11	96,203
797,30	63,333
797,48	112,414
797,67	115,000
797,85	92,857
798,04	111,458
798,22	61,111
798,41	125,490
798,59	116,842
798,77	163,077
798,96	79,570
799,14	131,034
799,33	91,603
799,51	72,308
799,70	81,208
799,88	178,788
800,07	76,974
800,25	49,655
800,44	90,909
800,62	128,235
800,80	143,478
800,99	134,921
801,17	102,586
801,36	75,862
801,54	133,333
801,73	82,828
801,91	72,951
802,10	100,000
802,28	121,495
802,46	83,951
802,65	110,345
802,83	104,494
803,02	128,421
803,20	108,594
803,39	67,241
803,57	131,325
803,75	81,757
803,94	99,160
804,12	72,500
804,31	66,372
804,49	88,462
804,67	66,400
804,86	66,071
805,04	72,297
805,23	91,034
805,41	109,836
805,59	100,820
805,78	98,485
805,96	114,103
806,15	130,469
806,33	104,202
806,51	92,035
806,70	125,000
806,88	78,862
807,07	58,730
807,25	57,233
807,43	92,053
807,62	81,301
807,80	98,925
807,99	95,238
808,17	107,801
808,35	94,737
808,54	116,129
808,72	91,200
808,90	126,316
809,09	95,000
809,27	95,495
809,46	100,000
809,64	74,510
809,82	55,172
810,01	84,091
810,19	113,000
810,37	76,923
810,56	118,293
810,74	64,238
810,92	121,970
811,11	200,000
811,29	81,560
811,48	111,111
811,66	89,922
811,84	131,193
812,03	54,545
812,21	57,692
812,39	123,729
812,58	80,392
812,76	105,607
812,94	94,667
813,13	69,841
813,31	61,667
813,49	141,304
813,68	101,739
813,86	117,347
814,04	126,214
814,23	86,869
814,41	72,794
814,59	81,356
814,78	41,912
814,96	87,387
815,14	112,222
815,33	77,536
815,51	88,148
815,69	124,691
815,87	87,826
816,06	83,125
816,24	85,430
816,42	53,205
816,61	81,356
816,79	191,566
816,97	93,694
817,16	66,452
817,34	86,897
817,52	88,966
817,70	130,952
817,89	76,860
818,07	83,621
818,25	81,982
818,44	93,023
818,62	100,000
818,80	79,720
818,98	80,000
819,17	63,077
819,35	74,118
819,53	110,891
819,72	59,884
819,90	64,671
820,08	85,714
820,26	99,123
820,45	86,145
820,63	82,812
820,81	65,101
820,99	70,677
821,18	65,926
821,36	63,333
821,54	77,326
821,73	74,595
821,91	46,277
822,09	53,529
822,27	61,421
822,46	76,250
822,64	78,146
822,82	50,732
823,00	44,144
823,19	81,061
823,37	91,429
823,55	83,529
823,73	80,667
823,91	48,619
824,10	81,006
824,28	64,444
824,46	61,047
824,64	48,039
824,83	41,463
825,01	83,333
825,19	91,429
825,37	53,646
825,56	73,125
825,74	64,762
825,92	83,708
826,10	80,124
826,28	68,456
826,47	39,837
826,65	67,568
826,83	47,312
827,01	38,636
827,19	70,886
827,38	72,021
827,56	60,096
827,74	59,756
827,92	64,390
828,10	77,174
828,29	75,714
828,47	53,070
828,65	34,595
828,83	55,051
829,01	68,000
829,20	62,658
829,38	46,058
829,56	58,704
829,74	105,303
829,92	53,608
830,10	69,820
830,29	56,216
830,47	72,917
830,65	51,786
830,83	37,714
831,01	42,083
831,20	45,545
831,38	57,073
831,56	45,749
831,74	76,000
831,92	57,386
832,10	55,000
832,29	56,398
832,47	52,212
832,65	64,681
832,83	51,163
833,01	34,783
833,19	46,154
833,37	55,556
833,56	45,070
833,74	35,223
833,92	51,327
834,10	60,406
834,28	43,846
834,46	51,557
834,64	38,281
834,83	36,177
835,01	54,086
835,19	49,289
835,37	29,084
835,55	53,791
835,73	48,897
835,91	36,680
836,09	35,685
836,28	51,145
836,46	40,351
836,64	47,131
836,82	29,851
837,00	51,701
837,18	49,407
837,36	53,476
837,54	33,333
837,72	29,482
837,91	34,137
838,09	39,200
838,27	52,381
838,45	42,718
838,63	30,169
838,81	39,145
838,99	46,341
839,17	50,485
839,35	27,778
839,53	47,315
839,72	23,729
839,90	26,748
840,08	45,192
840,26	37,855
840,44	31,173
840,62	41,414
840,80	25,926
840,98	36,858
841,16	16,370
841,34	33,623
841,52	43,131
841,70	36,027
841,89	32,581
842,07	29,459
842,25	30,519
842,43	30,968
842,61	42,895
842,79	30,183
842,97	28,659
843,15	37,536
843,33	29,929
843,51	33,413
843,69	29,444
843,87	31,267
844,05	29,111
844,23	22,432
844,41	32,915
844,59	27,557
844,77	18,732
844,95	27,427
845,13	36,885
845,31	27,933
845,50	34,278
845,68	23,316
845,86	33,726
846,04	30,123
846,22	31,504
846,40	11,549
846,58	27,614
846,76	25,187
846,94	28,846
847,12	26,066
847,30	31,106
847,48	33,813
847,66	24,634
847,84	11,421
848,02	20,790
848,20	28,256
848,38	26,261
848,56	30,968
848,74	23,967
848,92	17,745
849,10	32,366
849,28	20,915
849,46	19,393
849,64	19,286
849,82	22,837
850,00	23,203
850,18	23,326
850,36	21,930
850,54	25,785
850,72	26,819
850,90	19,951
851,08	11,728
851,26	22,470
851,44	16,265
851,62	18,985
851,80	23,062
851,98	28,601
852,16	29,835
852,34	29,412
852,52	21,670
852,70	13,655
852,87	19,810
853,05	25,651
853,23	19,216
853,41	8,180
853,59	17,170
853,77	28,968
853,95	20,763
854,13	18,835
854,31	22,688
854,49	20,641
854,67	33,835
854,85	26,435
855,03	13,793
855,21	26,058
855,39	18,121
855,57	28,442
855,75	18,550
855,93	19,788
856,11	21,053
856,28	21,181
856,46	19,281
856,64	18,770
856,82	14,136
857,00	12,976
857,18	20,970
857,36	17,311
857,54	21,959
857,72	20,367
857,90	18,781
858,08	15,432
858,26	18,654
858,44	14,130
858,61	15,425
858,79	26,357
858,97	17,479
859,15	14,916
859,33	16,104
859,51	11,661
859,69	19,643
859,87	16,837
860,05	20,363
860,23	10,455
860,40	17,358
860,58	11,638
860,76	20,056
860,94	13,282
861,12	13,739
861,30	19,425
861,48	15,297
861,66	18,574
861,84	15,363
862,01	21,123
862,19	12,737
862,37	16,618
862,55	15,599
862,73	16,984
862,91	12,729
863,09	15,085
863,27	6,825
863,44	8,609
863,62	16,410
863,80	9,023
863,98	13,410
864,16	12,330
864,34	13,117
864,52	14,123
864,69	16,386
864,87	15,137
865,05	7,207
865,23	12,077
865,41	10,250
865,59	17,923
865,76	6,848
865,94	14,088
866,12	11,212
866,30	13,742
866,48	12,219
866,66	17,896
866,83	13,676
867,01	9,102
867,19	13,774
867,37	7,803
867,55	14,490
867,73	10,820
867,90	11,353
868,08	11,765
868,26	9,920
868,44	12,983
868,62	12,017
868,79	9,416
868,97	15,885
869,15	10,828
869,33	6,064
869,51	10,510
869,69	9,281
869,86	10,667
870,04	10,265
870,22	8,325
870,40	7,879
870,57	15,000
870,75	11,303
870,93	8,845
871,11	12,818
871,29	9,045
871,46	9,768
871,64	8,210
871,82	11,805
872,00	13,056
872,18	10,522
872,35	11,319
872,53	11,153
872,71	9,817
872,89	11,214
873,06	8,395
873,24	8,180
873,42	6,004
873,60	4,316
873,77	9,609
873,95	8,505
874,13	12,522
874,31	10,784
874,49	11,072
874,66	7,904
874,84	7,105
875,02	10,415
875,20	6,116
875,37	6,985
875,55	5,419
875,73	9,060
875,91	11,250
876,08	8,519
876,26	6,411
876,44	7,588
876,61	8,702
876,79	8,178
876,97	9,819
877,15	12,519
877,32	8,425
877,50	8,098
877,68	9,091
877,86	6,687
878,03	8,289
878,21	8,997
878,39	9,852
878,56	7,743
878,74	5,640
878,92	6,083
879,10	7,988
879,27	8,183
879,45	10,047
879,63	5,890
879,80	6,594
879,98	5,836
880,16	5,710
880,34	3,984
880,51	5,914
880,69	8,513
880,87	5,361
881,04	6,512
881,22	7,246
881,40	4,881
881,57	5,231
881,75	7,398
881,93	7,197
882,10	6,022
882,28	4,978
882,46	8,201
882,63	7,977
882,81	7,759
882,99	7,414
883,16	8,076
883,34	7,089
883,52	7,266
883,69	6,560
883,87	5,161
884,05	4,846
884,22	7,114
884,40	3,157
884,58	6,872
884,75	6,744
884,93	7,068
885,11	4,570
885,28	5,857
885,46	4,685
885,64	4,555
885,81	7,327
885,99	4,056
886,17	4,973
886,34	5,768
886,52	5,800
886,70	5,513
886,87	5,489
887,05	4,878
887,22	3,075
887,40	6,031
887,58	6,318
887,75	6,580
887,93	5,000
888,11	2,472
888,28	3,177
888,46	0,791
888,63	6,282
888,81	4,805
888,99	2,180
889,16	2,853
889,34	4,074
889,51	4,288
889,69	3,996
889,87	3,994
890,04	3,184
890,22	4,717
890,39	2,167
890,57	5,938
890,75	6,926
890,92	4,414
891,10	5,935
891,27	3,943
891,45	4,833
891,63	3,339
891,80	3,962
891,98	5,106
892,15	3,638
892,33	5,073
892,51	4,534
892,68	3,751
892,86	4,448
893,03	5,562
893,21	4,415
893,38	4,600
893,56	4,789
893,74	2,708
893,91	4,533
894,09	4,651
894,26	4,075
894,44	4,136
894,61	6,262
894,79	4,956
894,96	5,991
895,14	4,468
895,32	5,771
895,49	4,729
895,67	5,294
895,84	5,128
896,02	4,250
896,19	4,000
896,37	6,622
896,54	3,571
896,72	3,058
896,89	4,021
897,07	2,558
897,25	4,767
897,42	4,460
897,60	4,544
897,77	3,744
897,95	3,550
898,12	2,866
898,30	2,636
898,47	2,803
898,65	4,307
898,82	2,265
899,00	3,385
899,17	4,500
899,35	3,152
899,52	3,257
899,70	2,766
899,87	3,104
900,05	5,007
900,22	3,711
900,40	3,201
900,57	3,846
900,75	2,251
900,92	3,220
901,10	4,717
901,27	3,275
901,45	3,766
901,62	5,311
901,80	3,269
901,97	2,720
902,15	4,320
902,32	3,647
902,50	3,606
902,67	3,551
902,85	3,509
903,02	4,460
903,20	2,844
903,37	4,107
903,54	4,164
903,72	2,435
903,89	3,988
904,07	3,163
904,24	3,834
904,42	2,726
904,59	1,791
904,77	2,337
904,94	3,019
905,12	2,242
905,29	3,799
905,47	2,855
905,64	2,853
905,81	2,394
905,99	3,359
906,16	3,757
906,34	2,762
906,51	3,375
906,69	2,204
906,86	2,955
907,03	4,064
907,21	2,046
907,38	2,027
907,56	2,591
907,73	3,795
907,91	2,759
908,08	1,953
908,25	1,646
908,43	3,652
908,60	2,793
908,78	4,048
908,95	4,285
909,13	3,789
909,30	0,942
909,47	3,378
909,65	4,110
909,82	3,911
910,00	3,908
910,17	3,137
910,34	4,300
910,52	3,039
910,69	3,767
910,87	3,747
911,04	2,768
911,21	3,438
911,39	3,819
911,56	3,109
911,73	3,247
911,91	2,970
912,08	2,646
912,26	1,870
912,43	2,763
912,60	3,776
912,78	3,143
912,95	3,454
913,13	3,266
913,30	2,820
913,47	3,360
913,65	2,319
913,82	2,762
913,99	1,786
914,17	3,726
914,34	3,246
914,51	4,062
914,69	3,287
914,86	4,188
915,03	2,987
915,21	2,557
915,38	2,469
915,56	2,144
915,73	2,289
915,90	3,626
916,08	4,067
916,25	2,893
916,42	1,623
916,60	2,573
916,77	2,904
916,94	2,636
917,12	4,091
917,29	3,841
917,46	1,884
917,64	2,144
917,81	2,593
917,98	2,308
918,16	2,918
918,33	2,846
918,50	2,841
918,67	2,144
918,85	2,581
919,02	2,801
919,19	3,513
919,37	2,832
919,54	2,629
919,71	2,392
919,89	2,335
920,06	1,864
920,23	2,473
920,41	3,109
920,58	2,172
920,75	2,182
920,92	2,658
921,10	2,195
921,27	1,736
921,44	3,573
921,62	1,468
921,79	2,646
921,96	1,991
922,13	2,139
922,31	1,825
922,48	2,929
922,65	1,943
922,82	2,036
923,00	2,812
923,17	1,411
923,34	2,356
923,52	2,019
923,69	1,800
923,86	3,117
924,03	2,272
924,21	1,481
924,38	2,997
924,55	3,967
924,72	2,320
924,90	2,358
925,07	2,586
925,24	2,103
925,41	2,472
925,59	1,884
925,76	1,735
925,93	3,240
926,10	2,470
926,28	2,469
926,45	3,124
926,62	2,703
926,79	1,904
926,96	2,114
927,14	2,785
927,31	1,781
927,48	2,047
927,65	1,626
927,83	0,986
928,00	2,171
928,17	2,075
928,34	2,561
928,51	3,320
928,69	1,932
928,86	2,022
929,03	3,041
929,20	1,589
929,37	1,824
929,55	2,150
929,72	1,575
929,89	1,974
930,06	2,483
930,23	1,712
930,41	2,526
930,58	2,902
930,75	2,351
930,92	2,527
931,09	2,083
931,27	1,606
931,44	1,811
931,61	2,779
931,78	1,421
931,95	1,264
932,12	2,090
932,30	2,389
932,47	2,451
932,64	2,029
932,81	1,658
932,98	1,696
933,16	1,325
933,33	1,770
933,50	1,983
933,67	3,024
933,84	2,016
934,01	1,596
934,18	1,880
934,36	1,819
934,53	1,956
934,70	2,034
934,87	1,886
935,04	2,593
935,21	1,310
935,38	2,040
935,56	0,922
935,73	1,654
935,90	1,418
936,07	2,804
936,24	2,418
936,41	2,177
936,58	0,790
936,76	2,082
936,93	1,841
937,10	2,321
937,27	1,575
937,44	1,752
937,61	2,440
937,78	2,108
937,95	1,902
938,13	1,515
938,30	1,779
938,47	2,612
938,64	2,077
938,81	2,131
938,98	2,101
939,15	1,621
939,32	1,577
939,49	2,294
939,66	2,052
939,84	1,970
940,01	2,148
940,18	1,721
940,35	2,165
940,52	0,577
940,69	3,279
940,86	2,227
941,03	1,997
941,20	2,497
941,37	2,365
941,54	0,593
941,71	0,297
941,89	2,198
942,06	0,953
942,23	2,340
942,40	2,628
942,57	1,830
942,74	2,495
942,91	1,819
943,08	2,871
943,25	1,307
943,42	2,207
943,59	1,965
943,76	2,421
943,93	1,680
944,10	1,948
944,27	1,815
944,44	2,355
944,61	2,028
944,79	1,880
944,96	2,960
945,13	2,288
945,30	0,868
945,47	2,844
945,64	2,307
945,81	2,780
945,98	2,768
946,15	2,545
946,32	2,091
946,49	3,529
946,66	3,399
946,83	3,027
947,00	2,473
947,17	1,795
947,34	2,212
947,51	1,748
947,68	3,241
947,85	1,181
948,02	1,987
948,19	3,886
948,36	2,691
948,53	2,838
948,70	4,261
948,87	3,482
949,04	2,387
949,21	2,212
949,38	3,505
949,55	3,452
949,72	2,983
949,89	2,338
950,06	1,670
950,23	3,966
950,40	3,561
950,57	1,220
950,74	4,456
950,91	1,822
951,08	3,713
951,25	4,617
951,42	4,842
951,59	2,983
951,76	5,205
951,93	4,392
952,10	2,701
952,27	2,830
952,44	2,868
952,61	2,955
952,77	3,664
952,94	4,170
953,11	5,583
953,28	3,490
953,45	5,174
953,62	5,157
953,79	4,352
953,96	6,287
954,13	3,311
954,30	6,105
954,47	3,107
954,64	6,652
954,81	4,551
954,98	4,911
955,15	5,143
955,32	5,003
955,49	2,513
955,65	5,737
955,82	6,476
955,99	8,623
956,16	7,753
956,33	4,603
956,50	6,085
956,67	7,143
956,84	6,222
957,01	5,772
957,18	7,132
957,35	9,239
957,52	8,473
957,68	7,500
957,85	7,404
958,02	6,891
958,19	9,835
958,36	12,943
958,53	10,230
958,70	7,240
958,87	6,849
959,04	12,774
959,21	13,030
959,37	12,987
959,54	12,128
959,71	8,663
959,88	11,087
960,05	9,161
960,22	4,260
960,39	9,867
960,56	11,646
960,72	10,540
960,89	20,913
961,06	16,943
961,23	9,461
961,40	19,625
961,57	12,981
961,74	10,918
961,90	15,938
962,07	19,635
962,24	21,301
962,41	10,218
962,58	23,580
962,75	16,814
962,92	14,393
963,08	14,545
963,25	16,216
963,42	4,348
963,59	15,496
963,76	21,124
963,93	22,426
964,10	16,916
964,26	28,289
964,43	19,638
964,60	22,021
964,77	24,578
964,94	16,477
965,10	25,000
965,27	18,277
965,44	25,195
965,61	36,088
965,78	27,796
965,95	38,024
966,11	31,889
966,28	25,651
966,45	32,399
966,62	28,308
966,79	36,327
966,95	31,940
967,12	34,700
967,29	28,125
967,46	32,197
967,63	31,698
967,79	37,387
967,96	29,004
968,13	36,000
968,30	52,419
968,47	47,079
968,63	74,775
968,80	44,495
968,97	62,981
969,14	56,977
969,31	39,444
969,47	45,294
969,64	52,020
969,81	37,824
969,98	73,626
970,14	42,945
970,31	56,604
970,48	21,667
970,65	67,456
970,81	38,356
970,98	89,781
971,15	101,020
971,32	33,594
971,48	91,156
971,65	36,154
971,82	98,039
971,99	75,862
972,15	89,437
972,32	113,514
972,49	109,091
972,66	110,000
972,82	93,023
972,99	100,813
973,16	79,310
973,33	68,750
973,49	56,842
973,66	116,129
973,83	78,641
974,00	119,767
974,16	101,961
974,33	109,649
974,50	118,947
974,67	145,263
974,83	90,476
975,00	118,947
975,17	124,176
975,33	97,753
975,50	101,493
975,67	177,551
975,84	171,642
976,00	125,843
976,17	252,459
976,34	88,000
976,50	101,124
976,67	128,155
976,84	1933,333
977,00	220,408
977,17	126,667
977,34	170,330
977,50	122,388
977,67	194,643
977,84	161,290
978,01	197,872
978,17	655,556
978,34	188,889
978,51	211,765
978,67	167,105
978,84	91,406
979,01	251,351
979,17	120,513
979,34	101,370
979,51	202,041
979,67	212,346
979,84	232,653
980,01	213,333
980,17	238,028
980,34	340,741
980,51	176,812
980,67	176,471
980,84	510,000
981,01	540,000
981,17	596,000
981,34	788,889
981,50	166,176
981,67	233,898
981,84	5100,000
982,00	310,000
982,17	276,190
982,34	163,333
982,50	826,667
982,67	142,708
982,84	2140,000
983,00	2066,667
983,17	198,507
983,33	153,448
983,50	1360,000
983,67	-351,724
983,83	257,576
984,00	-1357,143
984,17	588,889
984,33	-6850,000
984,50	354,286
984,66	295,652
984,83	170,130
985,00	-362,500
985,16	375,862
985,33	682,353
985,49	561,111
985,66	379,412
985,83	308,696
985,99	361,538
986,16	-1900,000
986,32	892,857
986,49	8600,000
986,66	357,576
986,82	808,333
986,99	279,245
987,15	-563,158
987,32	-200,000
987,49	238,000
987,65	7000,000
987,82	437,500
987,98	244,898
988,15	406,667
988,31	1150,000
988,48	-1600,000
988,65	240,476
988,81	361,111
988,98	275,610
989,14	354,762
989,31	619,048
989,47	405,882
989,64	-1007,692
989,80	575,000
989,97	354,054
990,14	-239,130
990,30	-363,636
990,47	361,224
990,63	272,222
990,80	216,000
990,96	-480,000
991,13	431,250
991,29	537,931
991,46	0,000
991,62	-900,000
991,79	1050,000
991,95	8200,000
992,12	-1430,000
992,29	-600,000
992,45	165,882
992,62	251,163
992,78	268,182
992,95	-600,000
993,11	382,143
993,28	960,000
993,44	-760,000
993,61	-431,250
993,77	-2425,000
993,94	-4600,000
994,10	-85,333
994,27	600,000
994,43	341,860
994,60	0,000
994,76	3350,000
994,93	480,000
995,09	-611,765
995,26	844,444
995,42	219,608
995,59	623,810
995,75	669,231
995,92	1871,429
996,08	341,667
996,25	-1237,500
996,41	-4350,000
996,58	720,000
996,74	397,727
996,91	368,966
997,07	0,000
997,23	15400,000
997,40	-14600,000
997,56	-884,615
997,73	-1712,500
997,89	405,263
998,06	792,308
998,22	-677,778
998,39	596,000
998,55	1333,333
998,72	-1525,000
998,88	-326,667
999,05	-100,000
999,21	302,381
999,37	-493,333
999,54	-991,667
999,70	-350,000
999,87	906,250
1000,03	387,179
1000,20	260,417
1000,36	0,000
1000,52	475,000
1000,69	-585,714
1000,85	-780,000
1001,02	-387,500
1001,18	2475,000
1001,35	984,615
1001,51	694,118
1001,67	-638,462
1001,84	-2120,000
1002,00	348,649
1002,17	1090,909
1002,33	-1575,000
1002,50	404,762
1002,66	-869,231
1002,82	332,500
1002,99	957,143
1003,15	-1714,286
1003,32	-1227,273
1003,48	264,286
1003,64	813,333
1003,81	444,444
1003,97	-5300,000
1004,14	1045,455
1004,30	276,667
1004,46	-440,000
1004,63	728,571
1004,79	272,222
1004,95	713,333
1005,12	4650,000
1005,28	462,069
1005,45	375,676
1005,61	227,586
1005,77	-168,750
1005,94	-342,857
1006,10	-4050,000
1006,26	1115,385
1006,43	-350,000
1006,59	-772,727
1006,76	735,714
1006,92	1188,889
1007,08	10700,000
1007,25	-277,778
1007,41	437,931
1007,57	4200,000
1007,74	1020,000
1007,90	-344,828
1008,06	230,435
1008,23	741,176
1008,39	-662,500
1008,55	-396,154
1008,72	-1871,429
1008,88	0,000
1009,04	270,732
1009,21	-200,000
1009,37	-650,000
1009,53	226,190
1009,70	2766,667
1009,86	-421,429
1010,02	2933,333
1010,19	1045,455
1010,35	235,294
1010,51	-6550,000
1010,68	-1650,000
1010,84	-197,727
1011,00	481,250
1011,17	-381,818
1011,33	0,000
1011,49	-700,000
1011,66	685,714
1011,82	487,097
1011,98	750,000
1012,14	-490,909
1012,31	402,564
1012,47	0,000
1012,63	1683,333
1012,80	507,143
1012,96	-425,000
1013,12	-1816,667
1013,29	494,444
1013,45	373,171
1013,61	5100,000
1013,77	-123,214
1013,94	2040,000
1014,10	127,119
1014,26	-2600,000
1014,43	-220,000
1014,59	450,000
1014,75	-433,333
1014,91	-273,333
1015,08	486,111
1015,24	9700,000
1015,40	823,529
1015,56	-12500,000
1015,73	221,429
1015,89	690,909
1016,05	2700,000
1016,21	-837,500
1016,38	784,211
1016,54	1223,077
1016,70	-3633,333
1016,86	437,500
1017,03	718,750
1017,19	-769,231
1017,35	-664,706
1017,51	-1960,000
1017,68	-790,000
1017,84	-1800,000
1018,00	238,095
1018,16	353,846
1018,33	-1271,429
1018,49	-841,667
1018,65	-308,108
1018,81	266,667
1018,97	-1514,286
1019,14	-2233,333
1019,30	-300,000
1019,46	0,000
1019,62	-541,176
1019,79	-3333,333
1019,95	1233,333
1020,11	6200,000
1020,27	-322,222
1020,43	-473,077
1020,60	1800,000
1020,76	661,111
1020,92	820,000
1021,08	805,000
1021,24	1100,000
1021,41	1277,778
1021,57	1225,000
1021,73	900,000
1021,89	2380,000
1022,05	-339,286
1022,21	685,000
1022,38	-466,667
1022,54	-2016,667
1022,70	300,000
1022,86	-1312,500
1023,02	566,667
1023,19	2100,000
1023,35	3966,667
1023,51	362,500
1023,67	351,852
1023,83	-425,000
1023,99	236,842
1024,16	-338,462
1024,32	-1166,667
1024,48	-1130,000
1024,64	300,000
1024,80	560,870
1024,96	346,154
1025,12	547,619
1025,29	376,190
1025,45	360,526
1025,61	650,000
1025,77	-2240,000
1025,93	-4900,000
1026,09	-1271,429
1026,26	841,667
1026,42	556,250
1026,58	469,697
1026,74	1966,667
1026,90	400,000
1027,06	346,429
1027,22	771,429
1027,38	267,308
1027,55	2833,333
1027,71	1683,333
1027,87	-452,000
1028,03	770,000
1028,19	396,875
1028,35	570,000
1028,51	1920,000
1028,67	1058,333
1028,83	-2550,000
1029,00	-173,810
1029,16	1100,000
1029,32	-253,571
1029,48	206,667
1029,64	277,778
1029,80	3750,000
1029,96	786,667
1030,12	452,174
1030,28	-3166,667
1030,44	-692,308
1030,61	-370,833
1030,77	-162,857
1030,93	-913,333
1031,09	1500,000
1031,25	-12800,000
1031,41	-240,000
1031,57	373,077
1031,73	631,250
1031,89	-1281,818
1032,05	-177,778
1032,21	1027,273
1032,37	-146,296
1032,53	-828,571
1032,69	-379,167
1032,86	344,444
1033,02	-215,000
1033,18	-518,750
1033,34	342,105
1033,50	-6000,000
1033,66	-212,195
1033,82	508,696
1033,98	-329,630
1034,14	189,744
1034,30	306,452
1034,46	-4233,333
1034,62	425,000
1034,78	-614,286
1034,94	315,789
1035,10	-746,154
1035,26	-162,791
1035,42	-224,138
1035,58	-294,444
1035,74	566,667
1035,90	-769,231
1036,06	-1600,000
1036,22	933,333
1036,38	-541,176
1036,54	-350,000
1036,70	-233,333
1036,86	10500,000
1037,02	566,667
1037,18	642,105
1037,34	137,143
1037,50	-221,951
1037,66	-582,353
1037,82	3100,000
1037,98	-277,778
1038,14	-420,000
1038,30	-2075,000
1038,46	-464,286
1038,62	430,435
1038,78	-3866,667
1038,94	-405,263
1039,10	540,909
1039,26	444,444
1039,42	-858,333
1039,58	1828,571
1039,74	-484,211
1039,90	321,875
1040,06	-369,231
>>>>>End Processed Spectral Data<<<<<
