SpectraSuite Data File
++++++++++++++++++++++++++++++++++++
Date: Wed Feb 01 15:52:31 EET 2017
User: optolab
Dark Spectrum Present: Yes
Reference Spectrum Present: Yes
Number of Sampled Component Spectra: 1
Spectrometers: USB4C02475
Integration Time (usec): 100000 (USB4C02475)
Spectra Averaged: 1 (USB4C02475)
Boxcar Smoothing: 0 (USB4C02475)
Correct for Electrical Dark: No (USB4C02475)
Strobe/Lamp Enabled: No (USB4C02475)
Correct for Detector Non-linearity: No (USB4C02475)
Correct for Stray Light: No (USB4C02475)
Number of Pixels in Processed Spectrum: 3648
>>>>>Begin Processed Spectral Data<<<<<
344,91	1800,000
345,13	1800,000
345,35	1800,000
345,57	0,000
345,79	342,105
346,00	-1600,000
346,22	-2042,857
346,44	317,647
346,66	-425,000
346,87	-11000,000
347,09	348,485
347,31	-454,545
347,53	-225,641
347,74	269,231
347,96	487,879
348,18	768,421
348,40	374,194
348,61	1111,765
348,83	292,857
349,05	298,039
349,27	-5250,000
349,48	615,385
349,70	-344,828
349,92	348,387
350,14	322,642
350,35	336,000
350,57	2600,000
350,79	556,000
351,01	-704,762
351,22	248,148
351,44	661,538
351,66	-292,000
351,87	-333,333
352,09	215,385
352,31	229,508
352,53	265,625
352,74	377,778
352,96	285,714
353,18	557,895
353,40	476,000
353,61	233,333
353,83	438,235
354,05	1290,909
354,26	2083,333
354,48	256,000
354,70	406,061
354,92	-351,724
355,13	193,939
355,35	363,636
355,57	545,833
355,78	209,639
356,00	-3875,000
356,22	430,769
356,44	6050,000
356,65	411,364
356,87	411,538
357,09	400,000
357,30	308,889
357,52	263,793
357,74	750,000
357,95	405,128
358,17	226,230
358,39	277,419
358,60	297,297
358,82	487,500
359,04	314,815
359,26	471,429
359,47	11600,000
359,69	365,000
359,91	430,303
360,12	452,381
360,34	641,667
360,56	-88,889
360,77	2775,000
360,99	647,619
361,21	308,000
361,42	5150,000
361,64	208,163
361,86	264,615
362,07	-525,806
362,29	198,667
362,51	-694,118
362,72	600,000
362,94	397,059
363,16	246,512
363,37	-992,857
363,59	423,077
363,81	384,091
364,02	822,222
364,24	604,167
364,46	3833,333
364,67	890,909
364,89	2457,143
365,11	200,000
365,32	475,862
365,54	386,111
365,76	310,204
365,97	420,588
366,19	150,000
366,41	659,091
366,62	255,556
366,84	302,326
367,05	281,633
367,27	1716,667
367,49	-592,308
367,70	576,471
367,92	252,459
368,14	368,750
368,35	-9600,000
368,57	680,000
368,79	313,793
369,00	276,087
369,22	-1262,500
369,43	216,471
369,65	264,516
369,87	424,324
370,08	153,012
370,30	244,643
370,51	218,033
370,73	268,889
370,95	191,935
371,16	200,000
371,38	476,667
371,60	1787,500
371,81	235,938
372,03	786,667
372,24	583,333
372,46	262,264
372,68	98,571
372,89	421,212
373,11	515,385
373,32	397,727
373,54	-946,154
373,76	900,000
373,97	526,667
374,19	609,091
374,40	284,375
374,62	-3666,667
374,84	3600,000
375,05	389,286
375,27	280,000
375,48	-7900,000
375,70	186,667
375,92	192,857
376,13	390,625
376,35	228,767
376,56	768,750
376,78	244,444
376,99	360,714
377,21	281,250
377,43	221,212
377,64	211,594
377,86	465,517
378,07	343,590
378,29	-1525,000
378,51	338,710
378,72	291,667
378,94	-1511,111
379,15	233,333
379,37	817,647
379,58	220,000
379,80	606,667
380,01	593,750
380,23	252,941
380,45	2340,000
380,66	5033,333
380,88	334,091
381,09	245,714
381,31	175,556
381,52	262,745
381,74	1544,444
381,95	600,000
382,17	473,077
382,39	523,810
382,60	236,735
382,82	264,103
383,03	282,692
383,25	387,097
383,46	272,727
383,68	440,741
383,89	435,000
384,11	338,710
384,32	-2600,000
384,54	583,333
384,76	-3766,667
384,97	354,545
385,19	482,759
385,40	252,941
385,62	142,105
385,83	309,524
386,05	221,569
386,26	318,000
386,48	173,563
386,69	341,667
386,91	515,000
387,12	286,441
387,34	227,586
387,55	222,581
387,77	543,750
387,98	476,923
388,20	217,391
388,41	394,118
388,63	9100,000
388,84	127,869
389,06	352,381
389,27	700,000
389,49	408,333
389,70	320,408
389,92	273,333
390,13	293,878
390,35	303,922
390,56	320,370
390,78	518,519
390,99	1100,000
391,21	668,421
391,42	280,000
391,64	365,854
391,85	153,448
392,07	240,909
392,28	138,667
392,50	357,576
392,71	-1075,000
392,93	280,769
393,14	463,889
393,36	287,755
393,57	127,820
393,79	677,778
394,00	317,021
394,22	187,671
394,43	167,470
394,65	297,674
394,86	1250,000
395,08	619,048
395,29	207,547
395,50	538,462
395,72	700,000
395,93	647,619
396,15	207,042
396,36	177,941
396,58	233,333
396,79	312,500
397,01	246,000
397,22	277,778
397,44	193,939
397,65	122,807
397,87	311,905
398,08	238,776
398,29	453,125
398,51	242,857
398,72	168,293
398,94	140,000
399,15	328,571
399,37	228,070
399,58	175,824
399,80	522,727
400,01	151,852
400,22	457,143
400,44	193,827
400,65	525,000
400,87	207,353
401,08	201,429
401,30	254,348
401,51	284,211
401,72	411,538
401,94	160,759
402,15	325,000
402,37	140,336
402,58	627,778
402,80	225,714
403,01	208,451
403,22	1009,091
403,44	240,580
403,65	166,071
403,87	158,571
404,08	402,564
404,30	130,588
404,51	-2933,333
404,72	200,000
404,94	150,980
405,15	108,000
405,37	170,886
405,58	151,765
405,79	152,439
406,01	200,000
406,22	143,103
406,44	246,809
406,65	231,579
406,86	193,750
407,08	100,000
407,29	113,592
407,51	186,585
407,72	158,333
407,93	177,174
408,15	104,274
408,36	237,209
408,58	175,258
408,79	87,500
409,00	142,708
409,22	168,254
409,43	144,304
409,64	90,683
409,86	83,648
410,07	81,538
410,29	99,254
410,50	100,709
410,71	109,821
410,93	94,268
411,14	113,953
411,35	72,024
411,57	75,000
411,78	73,438
412,00	85,987
412,21	77,419
412,42	66,138
412,64	56,652
412,85	52,577
413,06	58,537
413,28	45,946
413,49	47,393
413,70	61,232
413,92	54,150
414,13	40,249
414,34	40,996
414,56	42,308
414,77	55,274
414,98	35,570
415,20	36,678
415,41	51,275
415,63	39,801
415,84	36,944
416,05	25,275
416,27	32,817
416,48	38,764
416,69	39,823
416,91	27,027
417,12	25,401
417,33	33,053
417,55	24,346
417,76	39,630
417,97	24,896
418,19	25,845
418,40	31,702
418,61	25,926
418,83	19,818
419,04	20,505
419,25	25,701
419,46	25,113
419,68	21,746
419,89	26,826
420,10	26,939
420,32	32,752
420,53	41,191
420,74	41,169
420,96	43,250
421,17	46,998
421,38	52,884
421,60	49,227
421,81	55,353
422,02	54,023
422,23	56,432
422,45	58,602
422,66	63,065
422,87	71,752
423,09	72,597
423,30	83,430
423,51	90,000
423,73	91,148
423,94	86,485
424,15	90,952
424,36	93,390
424,58	94,812
424,79	97,127
425,00	99,319
425,22	104,458
425,43	96,993
425,64	99,301
425,85	100,163
426,07	98,756
426,28	101,081
426,49	102,713
426,71	96,931
426,92	99,159
427,13	97,451
427,34	102,200
427,56	102,245
427,77	96,054
427,98	97,954
428,19	97,692
428,41	99,708
428,62	99,224
428,83	95,932
429,04	96,088
429,26	99,647
429,47	98,859
429,68	96,659
429,89	98,737
430,11	97,965
430,32	99,942
430,53	97,583
430,74	98,770
430,96	95,769
431,17	95,410
431,38	95,272
431,59	94,669
431,81	96,696
432,02	95,638
432,23	94,183
432,44	93,640
432,66	93,346
432,87	95,549
433,08	95,293
433,29	95,101
433,51	92,649
433,72	96,352
433,93	93,049
434,14	93,690
434,35	94,954
434,57	93,586
434,78	96,245
434,99	94,017
435,20	93,413
435,42	93,656
435,63	94,711
435,84	96,993
436,05	93,618
436,26	93,500
436,48	94,646
436,69	94,840
436,90	94,057
437,11	94,562
437,32	95,509
437,54	94,366
437,75	93,774
437,96	94,618
438,17	94,172
438,38	95,742
438,60	94,752
438,81	94,689
439,02	97,368
439,23	93,485
439,44	93,582
439,66	95,076
439,87	94,494
440,08	94,567
440,29	93,908
440,50	94,416
440,72	94,080
440,93	94,697
441,14	94,871
441,35	94,319
441,56	93,833
441,77	95,039
441,99	94,517
442,20	95,950
442,41	94,181
442,62	96,009
442,83	95,953
443,04	95,971
443,26	95,814
443,47	95,718
443,68	94,962
443,89	95,106
444,10	94,976
444,31	96,131
444,53	94,739
444,74	94,032
444,95	94,984
445,16	95,122
445,37	93,016
445,58	92,879
445,80	93,344
446,01	94,120
446,22	94,775
446,43	93,615
446,64	92,736
446,85	93,710
447,06	94,562
447,28	93,055
447,49	93,379
447,70	93,501
447,91	93,765
448,12	93,717
448,33	94,613
448,54	94,806
448,76	93,969
448,97	93,148
449,18	93,053
449,39	91,670
449,60	92,367
449,81	92,761
450,02	93,301
450,23	92,727
450,45	92,647
450,66	92,604
450,87	92,953
451,08	92,455
451,29	93,348
451,50	93,033
451,71	92,284
451,92	93,315
452,13	91,501
452,35	92,366
452,56	90,216
452,77	90,366
452,98	86,957
453,19	86,795
453,40	83,843
453,61	83,118
453,82	79,784
454,03	77,502
454,25	75,355
454,46	72,741
454,67	69,785
454,88	67,298
455,09	64,229
455,30	60,040
455,51	58,468
455,72	54,483
455,93	50,444
456,14	45,823
456,35	42,453
456,56	38,224
456,78	33,088
456,99	27,768
457,20	23,488
457,41	18,461
457,62	14,673
457,83	11,176
458,04	7,871
458,25	5,417
458,46	3,694
458,67	2,943
458,88	2,218
459,09	1,209
459,30	1,352
459,51	1,128
459,73	1,018
459,94	1,132
460,15	1,055
460,36	1,086
460,57	1,180
460,78	0,899
460,99	0,649
461,20	0,874
461,41	0,879
461,62	0,647
461,83	0,815
462,04	0,790
462,25	0,832
462,46	0,825
462,67	0,641
462,88	0,767
463,09	0,791
463,30	0,791
463,51	0,730
463,72	0,748
463,93	0,805
464,15	0,827
464,36	0,695
464,57	0,692
464,78	0,757
464,99	0,728
465,20	0,540
465,41	0,634
465,62	0,700
465,83	0,754
466,04	0,621
466,25	0,569
466,46	0,626
466,67	0,628
466,88	0,680
467,09	0,776
467,30	0,667
467,51	0,783
467,72	0,515
467,93	0,647
468,14	0,620
468,35	0,624
468,56	0,728
468,77	0,625
468,98	0,694
469,19	0,750
469,40	0,431
469,61	0,732
469,82	0,522
470,03	0,708
470,24	0,742
470,45	0,780
470,66	0,663
470,87	0,699
471,08	0,735
471,29	0,677
471,50	0,616
471,71	0,714
471,92	0,906
472,13	0,699
472,34	0,645
472,55	0,751
472,76	0,796
472,97	0,797
473,18	0,642
473,39	0,635
473,60	0,671
473,81	0,558
474,01	0,696
474,22	0,656
474,43	0,783
474,64	0,749
474,85	0,528
475,06	0,656
475,27	0,774
475,48	0,786
475,69	0,636
475,90	0,781
476,11	0,838
476,32	0,792
476,53	0,859
476,74	0,795
476,95	0,778
477,16	0,741
477,37	0,873
477,58	0,688
477,79	1,004
478,00	0,733
478,21	0,812
478,41	0,960
478,62	0,631
478,83	1,085
479,04	0,901
479,25	0,692
479,46	0,694
479,67	1,073
479,88	1,109
480,09	0,705
480,30	1,010
480,51	1,085
480,72	0,866
480,93	0,876
481,14	0,846
481,34	0,827
481,55	0,736
481,76	0,717
481,97	0,988
482,18	0,752
482,39	0,825
482,60	1,034
482,81	0,897
483,02	0,799
483,23	1,022
483,44	0,954
483,65	0,806
483,85	0,852
484,06	0,756
484,27	0,676
484,48	0,877
484,69	1,053
484,90	1,038
485,11	0,807
485,32	0,961
485,53	0,823
485,73	1,111
485,94	0,664
486,15	0,946
486,36	0,869
486,57	1,039
486,78	1,102
486,99	1,114
487,20	0,979
487,41	1,083
487,61	0,865
487,82	1,117
488,03	1,024
488,24	1,049
488,45	1,076
488,66	1,267
488,87	0,927
489,08	1,189
489,28	1,200
489,49	1,416
489,70	1,260
489,91	1,529
490,12	1,896
490,33	2,437
490,54	3,401
490,74	4,872
490,95	6,495
491,16	9,043
491,37	12,093
491,58	15,496
491,79	19,179
492,00	23,341
492,20	27,325
492,41	31,397
492,62	35,472
492,83	38,999
493,04	42,943
493,25	46,081
493,45	48,675
493,66	52,447
493,87	54,684
494,08	57,582
494,29	60,172
494,50	63,284
494,70	66,287
494,91	69,846
495,12	71,960
495,33	75,308
495,54	77,079
495,75	80,864
495,95	82,952
496,16	84,541
496,37	86,538
496,58	87,196
496,79	88,005
496,99	88,359
497,20	89,015
497,41	88,907
497,62	88,520
497,83	88,787
498,04	87,520
498,24	87,795
498,45	88,740
498,66	88,749
498,87	89,536
499,08	90,797
499,28	91,557
499,49	92,604
499,70	92,669
499,91	93,096
500,12	92,032
500,32	92,632
500,53	93,758
500,74	92,355
500,95	92,592
501,15	92,102
501,36	92,359
501,57	92,259
501,78	91,263
501,99	90,851
502,19	91,586
502,40	91,581
502,61	92,367
502,82	92,196
503,02	92,711
503,23	93,434
503,44	93,807
503,65	94,172
503,86	94,588
504,06	94,490
504,27	95,331
504,48	96,529
504,69	95,562
504,89	95,665
505,10	95,487
505,31	95,650
505,52	95,064
505,72	95,891
505,93	95,584
506,14	95,852
506,35	95,196
506,55	93,601
506,76	93,925
506,97	95,252
507,18	95,343
507,38	95,315
507,59	94,835
507,80	95,273
508,01	94,960
508,21	94,300
508,42	95,794
508,63	95,909
508,84	95,783
509,04	96,568
509,25	96,928
509,46	96,450
509,67	96,458
509,87	97,538
510,08	98,387
510,29	98,472
510,49	98,763
510,70	98,407
510,91	97,640
511,12	98,068
511,32	97,868
511,53	97,319
511,74	96,856
511,94	97,402
512,15	96,215
512,36	96,428
512,57	96,525
512,77	96,126
512,98	95,041
513,19	94,809
513,39	95,323
513,60	94,597
513,81	94,203
514,01	93,644
514,22	93,810
514,43	93,162
514,64	93,238
514,84	93,330
515,05	94,328
515,26	94,135
515,46	93,676
515,67	93,975
515,88	94,208
516,08	93,970
516,29	93,700
516,50	94,013
516,70	93,088
516,91	93,701
517,12	93,784
517,32	93,372
517,53	93,382
517,74	93,795
517,95	92,921
518,15	92,209
518,36	93,558
518,57	92,495
518,77	92,593
518,98	93,536
519,19	92,895
519,39	92,249
519,60	93,136
519,80	92,944
520,01	93,411
520,22	94,054
520,42	93,490
520,63	94,044
520,84	94,394
521,04	94,592
521,25	93,470
521,46	94,565
521,66	94,860
521,87	95,359
522,08	95,648
522,28	94,658
522,49	94,742
522,70	94,897
522,90	95,479
523,11	94,844
523,31	95,277
523,52	94,226
523,73	94,683
523,93	93,692
524,14	93,822
524,35	91,666
524,55	91,348
524,76	91,786
524,97	91,458
525,17	92,179
525,38	91,263
525,58	91,684
525,79	92,536
526,00	92,970
526,20	93,851
526,41	95,022
526,61	96,129
526,82	96,132
527,03	96,744
527,23	97,289
527,44	97,224
527,64	98,173
527,85	97,928
528,06	98,228
528,26	97,527
528,47	97,775
528,68	97,423
528,88	97,196
529,09	96,676
529,29	97,047
529,50	97,196
529,70	96,634
529,91	94,867
530,12	94,563
530,32	94,436
530,53	93,440
530,73	92,199
530,94	93,045
531,15	91,561
531,35	90,914
531,56	91,334
531,76	89,338
531,97	88,785
532,17	88,907
532,38	86,674
532,59	84,818
532,79	83,974
533,00	82,827
533,20	80,936
533,41	78,307
533,61	76,748
533,82	75,272
534,03	73,380
534,23	73,047
534,44	72,389
534,64	71,034
534,85	69,452
535,05	68,919
535,26	68,134
535,46	67,537
535,67	66,534
535,88	66,264
536,08	63,070
536,29	61,384
536,49	58,421
536,70	54,678
536,90	51,002
537,11	47,848
537,31	43,579
537,52	39,706
537,72	34,916
537,93	30,250
538,13	25,775
538,34	21,958
538,55	17,582
538,75	14,202
538,96	10,641
539,16	8,031
539,37	5,919
539,57	4,491
539,78	3,298
539,98	2,713
540,19	1,941
540,39	1,881
540,60	1,503
540,80	1,394
541,01	1,276
541,21	1,299
541,42	1,195
541,62	1,173
541,83	1,316
542,03	1,342
542,24	0,966
542,44	1,195
542,65	1,027
542,85	1,051
543,06	1,015
543,26	1,031
543,47	1,185
543,67	1,110
543,88	1,358
544,08	1,065
544,29	1,194
544,49	1,155
544,70	1,223
544,90	1,122
545,11	1,073
545,31	1,152
545,52	1,033
545,72	1,202
545,93	0,875
546,13	1,188
546,34	0,860
546,54	1,007
546,75	1,064
546,95	1,075
547,15	0,934
547,36	1,090
547,56	1,136
547,77	1,096
547,97	1,183
548,18	1,062
548,38	1,042
548,59	1,115
548,79	0,943
549,00	0,950
549,20	1,165
549,41	0,999
549,61	0,994
549,81	0,932
550,02	1,142
550,22	0,836
550,43	0,858
550,63	0,956
550,84	0,820
551,04	0,973
551,25	0,963
551,45	0,982
551,65	1,085
551,86	0,974
552,06	1,102
552,27	1,003
552,47	1,305
552,68	1,100
552,88	0,883
553,08	0,938
553,29	1,028
553,49	0,943
553,70	1,097
553,90	0,773
554,11	1,063
554,31	0,926
554,51	1,050
554,72	1,092
554,92	1,174
555,13	1,173
555,33	1,118
555,53	1,198
555,74	1,008
555,94	1,110
556,15	0,907
556,35	0,979
556,56	1,056
556,76	1,065
556,96	1,026
557,17	1,143
557,37	1,058
557,58	1,075
557,78	0,928
557,98	0,746
558,19	0,967
558,39	0,896
558,59	1,030
558,80	0,901
559,00	1,052
559,21	0,783
559,41	0,983
559,61	0,909
559,82	1,006
560,02	0,932
560,23	1,171
560,43	0,933
560,63	0,994
560,84	0,776
561,04	0,877
561,24	0,930
561,45	0,750
561,65	0,815
561,85	1,212
562,06	1,049
562,26	0,838
562,47	1,142
562,67	0,775
562,87	0,804
563,08	0,827
563,28	0,849
563,48	0,997
563,69	0,874
563,89	1,083
564,09	1,139
564,30	0,913
564,50	1,196
564,70	1,221
564,91	1,193
565,11	1,111
565,31	1,055
565,52	1,169
565,72	1,285
565,92	1,335
566,13	1,142
566,33	1,382
566,53	1,305
566,74	1,388
566,94	1,575
567,14	1,525
567,35	1,862
567,55	2,511
567,75	3,084
567,96	3,749
568,16	4,985
568,36	6,203
568,57	8,496
568,77	11,094
568,97	14,183
569,18	17,741
569,38	22,453
569,58	27,153
569,79	32,694
569,99	38,536
570,19	43,814
570,39	50,236
570,60	54,929
570,80	59,836
571,00	64,855
571,21	67,786
571,41	72,092
571,61	73,906
571,82	76,844
572,02	78,755
572,22	79,900
572,42	80,323
572,63	79,939
572,83	81,277
573,03	82,222
573,24	82,471
573,44	83,345
573,64	82,847
573,84	83,627
574,05	84,060
574,25	84,880
574,45	84,332
574,66	84,668
574,86	85,963
575,06	85,884
575,26	86,064
575,47	87,322
575,67	88,260
575,87	90,004
576,07	91,208
576,28	92,130
576,48	92,798
576,68	93,167
576,88	93,200
577,09	94,135
577,29	93,857
577,49	95,973
577,69	95,072
577,90	94,653
578,10	93,158
578,30	94,375
578,50	94,191
578,71	93,386
578,91	92,630
579,11	92,660
579,31	92,461
579,52	92,976
579,72	92,084
579,92	90,941
580,12	92,701
580,33	92,966
580,53	93,322
580,73	93,641
580,93	94,066
581,13	94,673
581,34	95,546
581,54	95,763
581,74	96,628
581,94	96,485
582,15	97,394
582,35	96,578
582,55	96,795
582,75	97,525
582,95	96,472
583,16	96,964
583,36	97,034
583,56	97,663
583,76	96,725
583,96	95,966
584,17	97,393
584,37	96,868
584,57	97,107
584,77	96,155
584,97	96,663
585,18	96,174
585,38	97,101
585,58	96,626
585,78	96,628
585,98	96,238
586,19	96,020
586,39	96,019
586,59	96,645
586,79	96,512
586,99	96,782
587,20	95,848
587,40	96,842
587,60	96,234
587,80	96,553
588,00	95,707
588,20	95,835
588,41	97,191
588,61	96,352
588,81	96,910
589,01	96,021
589,21	96,113
589,41	96,206
589,62	96,904
589,82	97,075
590,02	95,814
590,22	96,899
590,42	97,340
590,62	97,034
590,83	96,559
591,03	97,159
591,23	96,966
591,43	97,056
591,63	95,504
591,83	96,107
592,03	95,920
592,24	95,952
592,44	96,856
592,64	95,854
592,84	96,756
593,04	96,630
593,24	96,415
593,44	97,810
593,65	97,367
593,85	97,742
594,05	97,210
594,25	96,807
594,45	96,167
594,65	96,097
594,85	96,592
595,06	96,151
595,26	96,544
595,46	96,929
595,66	96,376
595,86	95,474
596,06	96,315
596,26	96,064
596,46	95,080
596,66	95,038
596,87	95,279
597,07	95,429
597,27	95,862
597,47	95,412
597,67	95,194
597,87	94,543
598,07	93,330
598,27	93,710
598,47	93,472
598,67	94,527
598,88	94,410
599,08	93,155
599,28	93,230
599,48	93,495
599,68	93,053
599,88	93,935
600,08	93,379
600,28	92,660
600,48	92,806
600,68	91,718
600,88	92,602
601,09	91,678
601,29	90,409
601,49	91,414
601,69	90,513
601,89	90,191
602,09	89,074
602,29	88,776
602,49	88,466
602,69	87,463
602,89	87,039
603,09	85,891
603,29	85,707
603,49	83,384
603,69	82,909
603,90	82,052
604,10	81,695
604,30	80,924
604,50	80,442
604,70	80,379
604,90	80,366
605,10	79,767
605,30	79,664
605,50	78,699
605,70	79,429
605,90	78,798
606,10	77,698
606,30	77,200
606,50	76,733
606,70	76,016
606,90	74,717
607,10	71,885
607,30	71,096
607,50	67,431
607,70	65,954
607,90	62,990
608,10	60,148
608,30	56,725
608,50	53,088
608,70	48,898
608,90	46,898
609,11	43,137
609,31	39,041
609,51	36,254
609,71	33,064
609,91	29,568
610,11	26,663
610,31	23,704
610,51	19,924
610,71	16,956
610,91	13,819
611,11	11,156
611,31	9,148
611,51	7,181
611,71	5,411
611,91	4,044
612,11	3,153
612,31	2,536
612,51	1,985
612,71	1,715
612,91	1,396
613,11	1,201
613,31	1,246
613,51	1,051
613,71	0,960
613,91	1,004
614,11	0,753
614,31	1,043
614,50	1,007
614,70	0,902
614,90	0,890
615,10	0,900
615,30	0,848
615,50	0,825
615,70	0,847
615,90	0,892
616,10	0,829
616,30	0,884
616,50	0,895
616,70	0,776
616,90	0,979
617,10	0,820
617,30	0,689
617,50	0,913
617,70	0,878
617,90	0,810
618,10	0,827
618,30	0,678
618,50	0,798
618,70	0,792
618,90	0,592
619,10	0,757
619,30	0,822
619,49	0,835
619,69	0,709
619,89	0,642
620,09	0,900
620,29	0,994
620,49	0,754
620,69	0,753
620,89	0,746
621,09	0,732
621,29	0,780
621,49	0,627
621,69	0,918
621,89	0,818
622,09	0,687
622,29	0,664
622,48	0,831
622,68	0,648
622,88	0,727
623,08	0,690
623,28	0,797
623,48	0,769
623,68	0,641
623,88	0,646
624,08	0,789
624,28	0,491
624,48	0,761
624,67	0,721
624,87	0,780
625,07	0,676
625,27	0,719
625,47	0,753
625,67	0,737
625,87	0,759
626,07	0,658
626,27	0,486
626,47	0,663
626,66	0,662
626,86	0,642
627,06	0,688
627,26	0,722
627,46	0,607
627,66	0,659
627,86	0,634
628,06	0,579
628,25	0,624
628,45	0,743
628,65	0,483
628,85	0,640
629,05	0,642
629,25	0,731
629,45	0,586
629,65	0,670
629,84	0,613
630,04	0,606
630,24	0,852
630,44	0,586
630,64	0,729
630,84	0,704
631,04	0,692
631,23	0,666
631,43	0,683
631,63	0,784
631,83	0,798
632,03	0,694
632,23	0,727
632,42	0,636
632,62	0,819
632,82	0,803
633,02	0,569
633,22	0,722
633,42	0,741
633,62	0,808
633,81	0,814
634,01	0,520
634,21	0,685
634,41	0,847
634,61	0,817
634,80	0,748
635,00	0,563
635,20	0,735
635,40	0,966
635,60	0,833
635,80	0,723
635,99	0,783
636,19	0,876
636,39	0,962
636,59	1,022
636,79	0,873
636,98	0,896
637,18	0,879
637,38	1,233
637,58	0,941
637,78	0,935
637,97	0,843
638,17	1,189
638,37	0,847
638,57	0,998
638,77	1,071
638,96	1,011
639,16	1,193
639,36	0,715
639,56	1,313
639,76	0,996
639,95	1,134
640,15	0,913
640,35	1,183
640,55	0,920
640,75	1,251
640,94	1,034
641,14	1,135
641,34	1,368
641,54	1,210
641,73	1,093
641,93	1,120
642,13	0,928
642,33	1,060
642,53	1,157
642,72	1,263
642,92	1,367
643,12	0,947
643,32	1,490
643,51	1,297
643,71	1,217
643,91	1,116
644,11	1,564
644,30	1,478
644,50	1,310
644,70	1,448
644,90	1,780
645,09	1,685
645,29	1,707
645,49	2,705
645,69	3,066
645,88	3,704
646,08	4,293
646,28	5,201
646,48	6,437
646,67	7,724
646,87	9,760
647,07	11,361
647,26	13,826
647,46	16,609
647,66	20,228
647,86	23,680
648,05	27,057
648,25	32,317
648,45	35,716
648,65	39,762
648,84	43,858
649,04	47,611
649,24	52,030
649,43	54,481
649,63	58,987
649,83	61,505
650,03	65,698
650,22	67,569
650,42	68,467
650,62	72,393
650,81	73,617
651,01	73,602
651,21	74,957
651,40	76,780
651,60	77,645
651,80	78,999
652,00	79,003
652,19	79,608
652,39	82,245
652,59	80,587
652,78	81,773
652,98	83,594
653,18	83,791
653,37	84,255
653,57	84,244
653,77	86,264
653,96	87,347
654,16	84,830
654,36	88,283
654,55	88,308
654,75	87,747
654,95	88,755
655,14	88,656
655,34	91,945
655,54	89,553
655,73	90,620
655,93	93,131
656,13	92,105
656,32	92,381
656,52	94,619
656,72	94,357
656,91	94,203
657,11	93,802
657,31	94,576
657,50	95,699
657,70	94,397
657,90	94,267
658,09	95,179
658,29	96,121
658,49	92,465
658,68	93,901
658,88	95,228
659,07	93,474
659,27	94,281
659,47	94,571
659,66	94,264
659,86	94,638
660,06	95,603
660,25	94,478
660,45	95,895
660,64	94,980
660,84	93,325
661,04	94,945
661,23	94,718
661,43	93,536
661,63	95,270
661,82	94,699
662,02	95,639
662,21	95,676
662,41	95,047
662,61	94,647
662,80	94,852
663,00	95,536
663,19	95,743
663,39	95,018
663,59	95,314
663,78	96,464
663,98	94,803
664,17	96,459
664,37	95,678
664,57	94,995
664,76	94,873
664,96	93,912
665,15	93,856
665,35	94,874
665,55	93,065
665,74	93,831
665,94	94,274
666,13	94,013
666,33	93,763
666,53	93,858
666,72	93,254
666,92	91,776
667,11	94,181
667,31	92,830
667,50	94,072
667,70	93,160
667,90	93,893
668,09	93,088
668,29	92,940
668,48	92,996
668,68	92,134
668,87	92,357
669,07	92,878
669,26	92,750
669,46	92,096
669,66	92,710
669,85	91,533
670,05	92,068
670,24	90,208
670,44	93,361
670,63	90,969
670,83	91,911
671,02	91,171
671,22	90,523
671,42	89,867
671,61	89,199
671,81	89,603
672,00	87,805
672,20	88,099
672,39	89,170
672,59	87,797
672,78	87,801
672,98	86,735
673,17	87,772
673,37	87,757
673,56	88,118
673,76	86,946
673,95	84,550
674,15	85,707
674,34	85,518
674,54	85,311
674,73	84,552
674,93	83,852
675,13	83,628
675,32	81,984
675,52	81,413
675,71	79,679
675,91	78,805
676,10	77,118
676,30	75,898
676,49	75,637
676,69	73,465
676,88	71,943
677,08	69,876
677,27	69,135
677,47	66,472
677,66	66,093
677,86	63,302
678,05	61,934
678,24	60,959
678,44	59,830
678,63	57,648
678,83	56,650
679,02	53,940
679,22	52,623
679,41	52,846
679,61	51,064
679,80	49,152
680,00	48,341
680,19	48,453
680,39	46,579
680,58	45,678
680,78	44,779
680,97	44,190
681,17	43,207
681,36	43,844
681,56	41,835
681,75	41,080
681,94	40,267
682,14	39,636
682,33	36,786
682,53	37,079
682,72	35,117
682,92	33,248
683,11	30,165
683,31	28,101
683,50	26,201
683,69	24,042
683,89	21,650
684,08	20,230
684,28	18,388
684,47	16,799
684,67	16,319
684,86	14,737
685,06	14,427
685,25	13,849
685,44	13,105
685,64	12,449
685,83	12,143
686,03	11,088
686,22	10,087
686,42	8,744
686,61	7,762
686,80	6,549
687,00	5,148
687,19	4,280
687,39	3,164
687,58	2,390
687,77	1,947
687,97	1,580
688,16	1,249
688,36	1,080
688,55	0,812
688,74	0,775
688,94	0,655
689,13	0,787
689,33	0,742
689,52	0,771
689,71	0,688
689,91	0,436
690,10	0,523
690,30	0,389
690,49	0,674
690,68	0,522
690,88	0,600
691,07	0,358
691,27	0,596
691,46	0,526
691,65	0,504
691,85	0,624
692,04	0,396
692,23	0,520
692,43	0,359
692,62	0,719
692,82	0,639
693,01	0,385
693,20	0,590
693,40	0,427
693,59	0,484
693,78	0,493
693,98	0,338
694,17	0,424
694,36	0,570
694,56	0,435
694,75	0,406
694,94	0,429
695,14	0,528
695,33	0,399
695,53	0,522
695,72	0,489
695,91	0,552
696,11	0,381
696,30	0,445
696,49	0,378
696,69	0,671
696,88	0,516
697,07	0,438
697,27	0,377
697,46	0,538
697,65	0,431
697,85	0,636
698,04	0,684
698,23	0,706
698,43	0,887
698,62	0,512
698,81	0,503
699,01	0,937
699,20	0,541
699,39	0,879
699,58	0,672
699,78	0,763
699,97	0,797
700,16	0,879
700,36	1,069
700,55	1,443
700,74	0,898
700,94	0,983
701,13	1,229
701,32	1,359
701,52	1,184
701,71	1,034
701,90	1,443
702,09	1,208
702,29	1,670
702,48	1,720
702,67	1,160
702,87	1,090
703,06	1,918
703,25	1,700
703,44	0,957
703,64	2,101
703,83	1,536
704,02	1,542
704,22	1,054
704,41	1,668
704,60	2,373
704,79	1,282
704,99	2,372
705,18	1,802
705,37	2,451
705,56	2,014
705,76	2,903
705,95	1,995
706,14	2,374
706,33	3,757
706,53	2,271
706,72	2,016
706,91	3,342
707,11	2,514
707,30	3,581
707,49	3,253
707,68	1,762
707,88	3,070
708,07	1,912
708,26	3,113
708,45	3,343
708,64	3,355
708,84	3,791
709,03	2,679
709,22	2,106
709,41	2,633
709,61	2,965
709,80	3,562
709,99	3,352
710,18	4,364
710,38	4,115
710,57	3,294
710,76	3,176
710,95	3,616
711,14	6,698
711,34	4,122
711,53	4,575
711,72	4,121
711,91	2,137
712,11	5,259
712,30	4,515
712,49	4,514
712,68	5,094
712,87	6,777
713,07	6,438
713,26	4,807
713,45	5,577
713,64	4,454
713,83	3,442
714,03	5,044
714,22	5,672
714,41	5,347
714,60	5,258
714,79	4,621
714,99	4,134
715,18	3,489
715,37	5,671
715,56	5,787
715,75	6,276
715,94	6,211
716,14	5,523
716,33	5,765
716,52	4,803
716,71	7,877
716,90	6,176
717,10	6,652
717,29	4,229
717,48	8,138
717,67	5,369
717,86	3,646
718,05	4,496
718,24	8,268
718,44	7,513
718,63	6,181
718,82	9,068
719,01	8,047
719,20	5,647
719,39	7,269
719,59	4,659
719,78	4,668
719,97	4,742
720,16	9,184
720,35	7,725
720,54	8,110
720,73	6,004
720,93	9,534
721,12	4,649
721,31	9,698
721,50	7,641
721,69	5,069
721,88	10,106
722,07	7,110
722,27	6,260
722,46	9,201
722,65	5,315
722,84	5,730
723,03	6,764
723,22	9,815
723,41	8,340
723,60	13,200
723,79	11,287
723,99	7,302
724,18	10,922
724,37	7,566
724,56	9,813
724,75	9,002
724,94	9,590
725,13	14,273
725,32	5,703
725,51	11,248
725,71	7,670
725,90	8,545
726,09	12,309
726,28	13,141
726,47	10,156
726,66	8,744
726,85	8,402
727,04	9,761
727,23	7,952
727,42	13,268
727,61	5,079
727,81	11,783
728,00	10,457
728,19	9,954
728,38	5,724
728,57	8,910
728,76	13,674
728,95	11,942
729,14	10,419
729,33	15,038
729,52	16,198
729,71	14,351
729,90	12,170
730,09	6,192
730,28	14,088
730,48	12,181
730,67	16,566
730,86	7,463
731,05	13,551
731,24	8,813
731,43	10,189
731,62	13,033
731,81	13,088
732,00	12,452
732,19	8,174
732,38	10,471
732,57	11,853
732,76	16,310
732,95	10,800
733,14	8,583
733,33	11,676
733,52	12,712
733,71	6,258
733,90	17,224
734,09	13,109
734,28	15,172
734,47	14,737
734,66	16,011
734,85	16,028
735,04	16,621
735,23	12,037
735,42	13,689
735,61	21,067
735,81	14,207
736,00	18,373
736,19	13,757
736,38	13,630
736,57	21,031
736,76	11,163
736,95	16,970
737,14	17,933
737,33	18,780
737,52	17,345
737,71	7,051
737,90	15,734
738,09	16,871
738,28	15,630
738,47	16,176
738,66	17,031
738,85	17,526
739,04	25,297
739,22	13,851
739,41	13,387
739,60	14,548
739,79	15,068
739,98	17,241
740,17	17,347
740,36	17,143
740,55	19,400
740,74	12,696
740,93	18,699
741,12	19,669
741,31	10,662
741,50	9,981
741,69	12,963
741,88	15,000
742,07	17,690
742,26	15,543
742,45	15,217
742,64	27,878
742,83	12,340
743,02	15,856
743,21	19,718
743,40	22,457
743,59	21,516
743,78	19,869
743,97	25,564
744,16	22,838
744,34	22,441
744,53	18,443
744,72	26,403
744,91	18,737
745,10	18,605
745,29	15,839
745,48	18,004
745,67	25,255
745,86	11,972
746,05	26,941
746,24	23,094
746,43	21,513
746,62	18,894
746,81	15,525
747,00	16,701
747,18	21,758
747,37	15,778
747,56	16,180
747,75	28,665
747,94	29,103
748,13	25,799
748,32	23,504
748,51	23,476
748,70	29,017
748,89	25,121
749,08	23,429
749,26	13,842
749,45	27,765
749,64	18,114
749,83	20,356
750,02	20,718
750,21	12,610
750,40	21,354
750,59	30,660
750,78	35,799
750,96	21,788
751,15	18,579
751,34	34,031
751,53	37,192
751,72	26,146
751,91	32,329
752,10	22,840
752,29	28,814
752,47	22,753
752,66	24,225
752,85	30,031
753,04	31,546
753,23	13,245
753,42	28,875
753,61	17,320
753,80	20,054
753,98	20,351
754,17	19,018
754,36	31,638
754,55	27,586
754,74	41,329
754,93	21,037
755,12	40,800
755,30	21,053
755,49	28,440
755,68	36,023
755,87	25,526
756,06	36,872
756,25	24,444
756,43	29,310
756,62	31,454
756,81	25,413
757,00	42,319
757,19	34,589
757,38	36,593
757,56	34,194
757,75	26,797
757,94	26,183
758,13	27,273
758,32	31,439
758,51	33,824
758,69	12,000
758,88	42,342
759,07	32,258
759,26	44,651
759,45	28,384
759,63	41,264
759,82	30,640
760,01	43,813
760,20	39,300
760,39	47,761
760,57	29,339
760,76	36,937
760,95	25,463
761,14	29,388
761,33	29,063
761,51	35,125
761,70	49,655
761,89	41,393
762,08	59,070
762,27	31,868
762,45	66,926
762,64	32,601
762,83	45,575
763,02	39,070
763,21	18,966
763,39	40,000
763,58	44,528
763,77	40,927
763,96	56,627
764,14	37,500
764,33	46,520
764,52	66,094
764,71	49,327
764,89	27,451
765,08	34,483
765,27	53,160
765,46	54,348
765,65	36,245
765,83	44,589
766,02	45,957
766,21	76,243
766,40	50,000
766,58	50,000
766,77	52,239
766,96	65,909
767,15	61,353
767,33	42,690
767,52	52,439
767,71	51,739
767,90	44,944
768,08	43,969
768,27	19,500
768,46	61,328
768,64	36,269
768,83	55,208
769,02	57,000
769,21	45,415
769,39	73,256
769,58	51,445
769,77	59,770
769,96	65,969
770,14	28,571
770,33	48,131
770,52	32,275
770,70	52,667
770,89	57,047
771,08	44,915
771,27	69,072
771,45	51,754
771,64	52,083
771,83	52,336
772,01	41,566
772,20	63,317
772,39	58,000
772,57	41,860
772,76	53,333
772,95	31,915
773,14	64,516
773,32	37,419
773,51	59,204
773,70	58,125
773,88	70,492
774,07	50,785
774,26	51,773
774,44	61,585
774,63	91,371
774,82	69,512
775,00	70,667
775,19	56,000
775,38	56,069
775,56	60,938
775,75	69,880
775,94	94,304
776,12	51,934
776,31	63,529
776,50	53,977
776,68	65,263
776,87	76,705
777,06	46,897
777,24	53,333
777,43	44,872
777,62	69,853
777,80	61,486
777,99	76,000
778,18	59,901
778,36	78,400
778,55	54,545
778,74	82,639
778,92	59,172
779,11	55,000
779,29	67,296
779,48	57,143
779,67	69,767
779,85	86,179
780,04	54,054
780,23	44,604
780,41	45,312
780,60	24,211
780,79	68,927
780,97	88,816
781,16	50,303
781,34	91,753
781,53	83,761
781,72	70,803
781,90	60,938
782,09	70,323
782,28	103,650
782,46	26,667
782,65	72,857
782,83	106,742
783,02	113,750
783,21	98,667
783,39	54,783
783,58	84,615
783,76	65,922
783,95	50,909
784,14	64,238
784,32	57,047
784,51	60,345
784,69	90,678
784,88	83,784
785,06	84,874
785,25	70,701
785,44	87,770
785,62	97,857
785,81	150,704
785,99	89,928
786,18	63,514
786,37	60,000
786,55	73,394
786,74	82,895
786,92	73,438
787,11	75,833
787,29	46,269
787,48	65,333
787,67	119,277
787,85	92,241
788,04	96,040
788,22	56,557
788,41	111,765
788,59	131,193
788,78	69,091
788,96	90,566
789,15	111,579
789,34	63,636
789,52	61,947
789,71	79,845
789,89	112,766
790,08	110,959
790,26	91,429
790,45	89,394
790,63	70,370
790,82	70,303
791,00	43,750
791,19	110,753
791,38	117,361
791,56	108,772
791,75	53,211
791,93	59,770
792,12	76,923
792,30	109,600
792,49	57,983
792,67	59,701
792,86	71,318
793,04	91,589
793,23	77,500
793,41	72,152
793,60	105,051
793,78	93,860
793,97	110,256
794,15	120,909
794,34	71,429
794,52	119,481
794,71	95,062
794,89	102,222
795,08	109,709
795,26	84,444
795,45	135,821
795,63	115,909
795,82	91,589
796,00	104,587
796,19	95,000
796,37	92,701
796,56	90,323
796,74	86,726
796,93	116,854
797,11	50,633
797,30	105,833
797,48	91,724
797,67	134,167
797,85	93,878
798,04	129,167
798,22	82,540
798,41	129,412
798,59	113,684
798,77	101,538
798,96	89,247
799,14	100,862
799,33	79,389
799,51	86,923
799,70	78,523
799,88	75,758
800,07	73,684
800,25	71,034
800,44	45,455
800,62	115,294
800,80	121,739
800,99	144,444
801,17	69,828
801,36	78,621
801,54	157,292
801,73	90,909
801,91	97,541
802,10	91,667
802,28	124,299
802,46	91,358
802,65	57,471
802,83	151,685
803,02	109,474
803,20	120,312
803,39	84,483
803,57	108,434
803,75	87,162
803,94	82,353
804,12	58,333
804,31	112,389
804,49	99,038
804,67	102,400
804,86	54,464
805,04	96,622
805,23	67,586
805,41	92,623
805,59	85,246
805,78	59,091
805,96	85,897
806,15	118,750
806,33	87,395
806,51	85,841
806,70	123,333
806,88	66,667
807,07	82,540
807,25	81,132
807,43	83,444
807,62	95,935
807,80	96,774
807,99	84,127
808,17	68,085
808,35	96,491
808,54	106,452
808,72	82,400
808,90	126,316
809,09	70,833
809,27	113,514
809,46	100,893
809,64	78,431
809,82	82,759
810,01	102,273
810,19	95,000
810,37	81,538
810,56	137,805
810,74	70,199
810,92	90,152
811,11	125,490
811,29	107,092
811,48	90,909
811,66	90,698
811,84	100,000
812,03	98,182
812,21	101,282
812,39	106,780
812,58	117,647
812,76	86,916
812,94	92,000
813,13	61,905
813,31	95,000
813,49	122,826
813,68	88,696
813,86	75,510
814,04	121,359
814,23	143,434
814,41	56,618
814,59	70,056
814,78	92,647
814,96	88,288
815,14	106,667
815,33	95,652
815,51	61,481
815,69	82,716
815,87	101,739
816,06	93,750
816,24	65,563
816,42	50,641
816,61	87,288
816,79	78,313
816,97	94,595
817,16	88,387
817,34	108,966
817,52	81,379
817,70	125,397
817,89	90,909
818,07	65,517
818,25	87,387
818,44	73,256
818,62	74,138
818,80	89,510
818,98	74,286
819,17	93,077
819,35	84,118
819,53	63,366
819,72	66,279
819,90	68,263
820,08	73,377
820,26	85,965
820,45	89,157
820,63	99,479
820,81	64,430
820,99	112,782
821,18	65,185
821,36	79,524
821,54	79,651
821,73	60,000
821,91	68,617
822,09	68,235
822,27	78,680
822,46	87,500
822,64	72,185
822,82	58,537
823,00	45,946
823,19	50,758
823,37	73,571
823,55	77,059
823,73	75,333
823,91	56,354
824,10	84,916
824,28	60,741
824,46	59,302
824,64	64,216
824,83	56,098
825,01	86,232
825,19	64,000
825,37	54,688
825,56	53,750
825,74	58,571
825,92	52,809
826,10	65,839
826,28	61,745
826,47	68,293
826,65	83,108
826,83	66,129
827,01	40,909
827,19	79,114
827,38	49,223
827,56	77,404
827,74	48,374
827,92	74,146
828,10	50,000
828,29	50,476
828,47	57,018
828,65	47,027
828,83	44,949
829,01	51,333
829,20	33,544
829,38	52,697
829,56	60,729
829,74	42,424
829,92	45,876
830,10	60,360
830,29	61,081
830,47	91,146
830,65	41,071
830,83	58,286
831,01	49,583
831,20	45,050
831,38	41,951
831,56	56,680
831,74	65,143
831,92	81,818
832,10	59,091
832,29	55,450
832,47	34,513
832,65	56,596
832,83	47,907
833,01	51,779
833,19	59,729
833,37	55,926
833,56	68,075
833,74	55,870
833,92	45,575
834,10	54,822
834,28	41,154
834,46	46,367
834,64	47,266
834,83	44,710
835,01	43,191
835,19	45,498
835,37	36,653
835,55	36,823
835,73	54,044
835,91	42,857
836,09	44,398
836,28	51,527
836,46	41,404
836,64	35,656
836,82	33,955
837,00	52,721
837,18	71,542
837,36	55,080
837,54	31,061
837,72	28,287
837,91	39,357
838,09	41,600
838,27	44,322
838,45	49,838
838,63	28,136
838,81	48,684
838,99	43,902
839,17	44,984
839,35	20,370
839,53	37,248
839,72	23,305
839,90	14,286
840,08	33,974
840,26	42,271
840,44	26,852
840,62	22,896
840,80	41,049
840,98	41,390
841,16	14,591
841,34	34,493
841,52	31,310
841,70	35,690
841,89	55,161
842,07	26,216
842,25	28,247
842,43	38,710
842,61	26,542
842,79	32,927
842,97	30,488
843,15	38,968
843,33	41,805
843,51	29,594
843,69	20,000
843,87	35,040
844,05	25,606
844,23	34,865
844,41	22,111
844,59	30,398
844,77	22,767
844,95	33,010
845,13	29,235
845,31	27,933
845,50	30,412
845,68	37,565
845,86	36,792
846,04	33,580
846,22	34,368
846,40	20,210
846,58	25,469
846,76	18,953
846,94	22,596
847,12	24,408
847,30	26,267
847,48	28,297
847,66	22,439
847,84	16,244
848,02	24,324
848,20	27,152
848,38	21,429
848,56	31,828
848,74	20,661
848,92	12,526
849,10	29,911
849,28	19,390
849,46	19,860
849,64	24,048
849,82	16,346
850,00	17,659
850,18	19,630
850,36	25,439
850,54	21,749
850,72	23,077
850,90	29,440
851,08	21,605
851,26	29,150
851,44	20,683
851,62	27,152
851,80	22,068
851,98	33,745
852,16	29,218
852,34	29,412
852,52	20,875
852,70	14,257
852,87	24,952
853,05	25,451
853,23	23,333
853,41	12,883
853,59	23,774
853,77	22,024
853,95	26,483
854,13	11,845
854,31	26,353
854,49	16,232
854,67	23,496
854,85	21,913
855,03	20,881
855,21	16,074
855,39	17,617
855,57	27,717
855,75	18,044
855,93	19,081
856,11	24,561
856,28	21,701
856,46	11,275
856,64	19,741
856,82	20,070
857,00	11,592
857,18	17,371
857,36	15,966
857,54	17,061
857,72	13,189
857,90	17,628
858,08	14,043
858,26	17,431
858,44	13,199
858,61	20,277
858,79	18,450
858,97	15,903
859,15	17,808
859,33	8,896
859,51	20,128
859,69	13,542
859,87	21,376
860,05	21,060
860,23	15,303
860,40	17,512
860,58	12,644
860,76	8,475
860,94	9,771
861,12	13,031
861,30	18,194
861,48	9,348
861,66	20,802
861,84	17,318
862,01	14,439
862,19	21,409
862,37	14,869
862,55	10,446
862,73	14,402
862,91	16,157
863,09	17,555
863,27	11,003
863,44	15,497
863,62	10,379
863,80	10,507
863,98	12,644
864,16	9,988
864,34	11,948
864,52	15,376
864,69	15,904
864,87	18,951
865,05	10,039
865,23	12,560
865,41	11,561
865,59	16,564
865,76	16,537
865,94	10,970
866,12	13,477
866,30	14,110
866,48	11,721
866,66	16,052
866,83	13,786
867,01	15,090
867,19	12,990
867,37	11,164
867,55	14,380
867,73	11,503
867,90	11,111
868,08	13,181
868,26	7,526
868,44	8,047
868,62	10,136
868,79	11,472
868,97	10,768
869,15	15,074
869,33	9,702
869,51	13,163
869,69	9,385
869,86	11,590
870,04	14,180
870,22	7,388
870,40	10,808
870,57	13,600
870,75	11,590
870,93	11,550
871,11	10,885
871,29	7,419
871,46	8,761
871,64	12,463
871,82	8,293
872,00	11,672
872,18	11,711
872,35	9,358
872,53	12,476
872,71	5,967
872,89	11,307
873,06	11,255
873,24	8,088
873,42	6,720
873,60	7,254
873,77	10,053
873,95	11,808
874,13	8,497
874,31	8,289
874,49	9,241
874,66	8,247
874,84	7,904
875,02	10,090
875,20	7,521
875,37	7,325
875,55	6,605
875,73	5,608
875,91	9,922
876,08	7,404
876,26	9,908
876,44	5,911
876,61	9,618
876,79	10,981
876,97	11,233
877,15	10,229
877,32	7,323
877,50	8,785
877,68	7,043
877,86	7,610
878,03	8,212
878,21	6,416
878,39	6,074
878,56	9,292
878,74	7,592
878,92	6,306
879,10	7,249
879,27	9,570
879,45	11,520
879,63	6,693
879,80	8,158
879,98	5,409
880,16	7,138
880,34	4,186
880,51	7,973
880,69	6,671
880,87	3,849
881,04	5,545
881,22	7,708
881,40	5,230
881,57	5,503
881,75	7,270
881,93	5,500
882,10	7,944
882,28	4,667
882,46	7,956
882,63	8,040
882,81	6,322
882,99	7,726
883,16	7,957
883,34	6,110
883,52	3,335
883,69	4,492
883,87	7,167
884,05	1,005
884,22	6,540
884,40	5,618
884,58	4,916
884,75	2,985
884,93	7,644
885,11	5,876
885,28	4,926
885,46	6,302
885,64	5,288
885,81	7,064
885,99	5,208
886,17	4,525
886,34	5,716
886,52	5,697
886,70	6,120
886,87	6,991
887,05	4,624
887,22	4,203
887,40	5,271
887,58	5,025
887,75	4,935
887,93	4,794
888,11	3,361
888,28	4,410
888,46	2,966
888,63	6,188
888,81	4,662
888,99	2,654
889,16	4,612
889,34	6,574
889,51	3,716
889,69	3,338
889,87	3,055
890,04	2,556
890,22	4,374
890,39	2,521
890,57	4,855
890,75	6,028
890,92	4,503
891,10	3,629
891,27	4,506
891,45	4,333
891,63	4,206
891,80	4,136
891,98	6,227
892,15	3,934
892,33	1,719
892,51	4,118
892,68	2,185
892,86	4,289
893,03	4,774
893,21	4,574
893,38	2,752
893,56	4,503
893,74	3,505
893,91	4,020
894,09	5,213
894,26	3,566
894,44	4,487
894,61	5,081
894,79	3,557
894,96	3,187
895,14	4,982
895,32	4,791
895,49	2,597
895,67	3,114
895,84	4,385
896,02	3,264
896,19	3,667
896,37	5,948
896,54	3,166
896,72	3,353
896,89	5,275
897,07	2,892
897,25	5,330
897,42	3,281
897,60	5,760
897,77	6,473
897,95	4,016
898,12	2,725
898,30	4,218
898,47	3,414
898,65	3,439
898,82	2,677
899,00	3,489
899,17	3,435
899,35	3,363
899,52	3,326
899,70	3,043
899,87	4,290
900,05	5,041
900,22	2,749
900,40	3,132
900,57	4,118
900,75	2,181
900,92	3,529
901,10	4,717
901,27	3,680
901,45	4,262
901,62	3,328
901,80	3,943
901,97	2,996
902,15	5,619
902,32	3,349
902,50	3,303
902,67	2,479
902,85	3,981
903,02	4,240
903,20	4,048
903,37	3,840
903,54	4,597
903,72	1,941
903,89	3,296
904,07	3,293
904,24	2,079
904,42	1,680
904,59	1,599
904,77	3,343
904,94	2,986
905,12	1,912
905,29	3,768
905,47	3,850
905,64	3,518
905,81	3,233
905,99	2,041
906,16	3,914
906,34	3,683
906,51	3,437
906,69	2,608
906,86	3,273
907,03	2,628
907,21	2,596
907,38	2,611
907,56	2,139
907,73	4,038
907,91	3,141
908,08	2,899
908,25	1,219
908,43	2,678
908,60	2,793
908,78	3,753
908,95	3,686
909,13	3,580
909,30	1,125
909,47	2,673
909,65	3,676
909,82	4,410
910,00	2,479
910,17	2,713
910,34	3,463
910,52	1,505
910,69	4,106
910,87	3,089
911,04	1,327
911,21	3,826
911,39	3,513
911,56	3,165
911,73	2,820
911,91	3,331
912,08	3,983
912,26	2,205
912,43	2,927
912,60	2,825
912,78	2,077
912,95	3,565
913,13	2,918
913,30	2,341
913,47	3,739
913,65	1,999
913,82	2,018
913,99	2,128
914,17	2,884
914,34	2,550
914,51	3,599
914,69	2,880
914,86	3,700
915,03	4,069
915,21	2,076
915,38	2,062
915,56	3,329
915,73	2,417
915,90	3,901
916,08	3,075
916,25	1,969
916,42	2,546
916,60	2,236
916,77	2,704
916,94	2,929
917,12	3,503
917,29	3,010
917,46	2,325
917,64	2,716
917,81	2,761
917,98	2,118
918,16	4,118
918,33	3,250
918,50	3,082
918,67	2,930
918,85	2,226
919,02	2,326
919,19	3,467
919,37	2,337
919,54	2,583
919,71	3,174
919,89	2,610
920,06	2,228
920,23	2,269
920,41	3,155
920,58	2,059
920,75	2,317
920,92	1,636
921,10	1,591
921,27	1,302
921,44	3,617
921,62	2,046
921,79	2,252
921,96	2,279
922,13	2,528
922,31	1,473
922,48	2,734
922,65	1,792
922,82	1,929
923,00	2,490
923,17	2,009
923,34	2,675
923,52	1,418
923,69	2,033
923,86	1,706
924,03	1,886
924,21	2,644
924,38	3,542
924,55	2,855
924,72	3,256
924,90	2,505
925,07	2,586
925,24	1,599
925,41	1,849
925,59	1,986
925,76	1,977
925,93	1,433
926,10	2,038
926,28	2,122
926,45	2,450
926,62	3,010
926,79	2,047
926,96	2,236
927,14	2,252
927,31	1,840
927,48	2,568
927,65	1,886
927,83	1,207
928,00	1,173
928,17	2,424
928,34	1,926
928,51	2,391
928,69	1,502
928,86	1,633
929,03	3,326
929,20	1,962
929,37	1,748
929,55	1,759
929,72	1,671
929,89	1,744
930,06	2,235
930,23	1,968
930,41	2,163
930,58	2,196
930,75	2,737
930,92	2,187
931,09	2,618
931,27	1,625
931,44	1,019
931,61	1,999
931,78	2,285
931,95	1,954
932,12	2,613
932,30	2,085
932,47	2,584
932,64	2,010
932,81	0,999
932,98	1,696
933,16	1,811
933,33	1,770
933,50	1,665
933,67	3,118
933,84	1,829
934,01	1,119
934,18	2,103
934,36	1,763
934,53	1,373
934,70	1,732
934,87	1,644
935,04	2,093
935,21	1,901
935,38	1,856
935,56	1,070
935,73	1,454
935,90	1,197
936,07	2,103
936,24	2,179
936,41	2,306
936,58	1,140
936,76	2,617
936,93	1,197
937,10	0,866
937,27	2,326
937,44	1,387
937,61	2,459
937,78	2,126
937,95	1,361
938,13	1,459
938,30	1,595
938,47	1,461
938,64	2,337
938,81	1,353
938,98	2,266
939,15	2,149
939,32	2,204
939,49	2,518
939,66	2,202
939,84	1,295
940,01	1,880
940,18	1,953
940,35	1,513
940,52	0,827
940,69	1,885
940,86	1,626
941,03	2,191
941,20	2,554
941,37	1,984
941,54	0,257
941,71	0,831
941,89	2,375
942,06	1,251
942,23	1,960
942,40	1,435
942,57	2,479
942,74	1,911
942,91	1,571
943,08	2,974
943,25	2,469
943,42	2,144
943,59	2,069
943,76	1,975
943,93	1,869
944,10	1,800
944,27	2,165
944,44	2,376
944,61	1,014
944,79	1,835
944,96	3,049
945,13	0,942
945,30	0,982
945,47	1,934
945,64	2,491
945,81	2,780
945,98	2,489
946,15	3,306
946,32	2,139
946,49	2,881
946,66	2,685
946,83	3,151
947,00	1,363
947,17	2,081
947,34	3,755
947,51	2,751
947,68	3,773
947,85	1,638
948,02	2,776
948,19	3,420
948,36	3,357
948,53	3,255
948,70	4,458
948,87	4,338
949,04	2,062
949,21	3,586
949,38	2,307
949,55	2,635
949,72	3,782
949,89	1,666
950,06	1,899
950,23	3,022
950,40	3,561
950,57	1,863
950,74	4,387
950,91	3,472
951,08	2,985
951,25	3,150
951,42	3,485
951,59	1,586
951,76	1,972
951,93	4,941
952,10	3,852
952,27	3,826
952,44	2,573
952,61	5,368
952,77	2,514
952,94	3,461
953,11	6,484
953,28	4,607
953,45	7,244
953,62	2,843
953,79	2,822
953,96	4,371
954,13	5,122
954,30	4,188
954,47	4,339
954,64	3,513
954,81	6,124
954,98	5,301
955,15	4,919
955,32	5,718
955,49	5,214
955,65	7,246
955,82	6,538
955,99	7,353
956,16	8,410
956,33	3,905
956,50	4,985
956,67	9,034
956,84	6,815
957,01	6,552
957,18	7,727
957,35	7,919
957,52	9,899
957,68	10,333
957,85	8,851
958,02	9,216
958,19	9,835
958,36	12,500
958,53	6,728
958,70	9,774
958,87	5,088
959,04	13,595
959,21	12,929
959,37	12,987
959,54	10,143
959,71	10,374
959,88	12,953
960,05	11,810
960,22	10,533
960,39	6,667
960,56	4,684
960,72	9,034
960,89	18,885
961,06	14,268
961,23	12,227
961,40	17,316
961,57	13,837
961,74	9,652
961,90	16,406
962,07	21,005
962,24	18,537
962,41	12,898
962,58	18,244
962,75	17,345
962,92	13,084
963,08	18,364
963,25	14,595
963,42	14,251
963,59	20,455
963,76	23,820
963,93	19,680
964,10	20,985
964,26	16,886
964,43	22,222
964,60	24,093
964,77	34,940
964,94	13,068
965,10	33,036
965,27	29,504
965,44	41,818
965,61	24,242
965,78	29,073
965,95	39,521
966,11	38,080
966,28	29,368
966,45	28,972
966,62	38,154
966,79	36,735
966,95	22,090
967,12	43,218
967,29	37,153
967,46	40,909
967,63	47,547
967,79	52,703
967,96	50,216
968,13	44,500
968,30	38,710
968,47	52,921
968,63	71,171
968,80	51,835
968,97	43,750
969,14	55,233
969,31	14,444
969,47	68,824
969,64	48,990
969,81	70,984
969,98	58,242
970,14	50,307
970,31	64,780
970,48	57,500
970,65	70,414
970,81	55,479
970,98	86,861
971,15	56,122
971,32	55,469
971,48	100,000
971,65	43,846
971,82	70,588
971,99	82,759
972,15	100,704
972,32	133,333
972,49	70,629
972,66	135,455
972,82	93,023
972,99	69,919
973,16	78,161
973,33	58,036
973,49	76,842
973,66	115,054
973,83	65,049
974,00	129,070
974,16	127,451
974,33	112,281
974,50	80,000
974,67	153,684
974,83	85,714
975,00	108,421
975,17	125,275
975,33	125,843
975,50	120,896
975,67	265,306
975,84	144,776
976,00	98,876
976,17	126,230
976,34	50,000
976,50	125,843
976,67	127,184
976,84	1900,000
977,00	165,306
977,17	144,444
977,34	156,044
977,50	126,866
977,67	141,071
977,84	158,065
978,01	221,277
978,17	755,556
978,34	227,778
978,51	235,294
978,67	169,737
978,84	104,687
979,01	340,541
979,17	146,154
979,34	103,425
979,51	167,347
979,67	192,593
979,84	240,816
980,01	255,556
980,17	271,831
980,34	333,333
980,51	204,348
980,67	163,529
980,84	396,667
981,01	695,000
981,17	624,000
981,34	900,000
981,50	200,000
981,67	244,068
981,84	6550,000
982,00	453,333
982,17	161,905
982,34	153,333
982,50	653,333
982,67	185,417
982,84	2200,000
983,00	1066,667
983,17	164,179
983,33	175,862
983,50	1440,000
983,67	-296,552
983,83	354,545
984,00	-1242,857
984,17	450,000
984,33	-4800,000
984,50	328,571
984,66	241,304
984,83	179,221
985,00	-462,500
985,16	303,448
985,33	452,941
985,49	533,333
985,66	394,118
985,83	252,174
985,99	294,872
986,16	-3075,000
986,32	864,286
986,49	7000,000
986,66	351,515
986,82	1091,667
986,99	258,491
987,15	-300,000
987,32	-275,000
987,49	180,000
987,65	4750,000
987,82	366,667
987,98	283,673
988,15	296,667
988,31	1160,000
988,48	-1766,667
988,65	342,857
988,81	344,444
988,98	246,341
989,14	273,810
989,31	423,810
989,47	197,059
989,64	-961,538
989,80	606,250
989,97	264,865
990,14	-178,261
990,30	-545,455
990,47	348,980
990,63	302,778
990,80	214,000
990,96	-485,000
991,13	409,375
991,29	379,310
991,46	0,000
991,62	-769,231
991,79	783,333
991,95	9400,000
992,12	-980,000
992,29	-600,000
992,45	203,529
992,62	309,302
992,78	286,364
992,95	-526,667
993,11	357,143
993,28	980,000
993,44	-910,000
993,61	-550,000
993,77	-3000,000
993,94	-4400,000
994,10	-124,000
994,27	900,000
994,43	409,302
994,60	0,000
994,76	2600,000
994,93	700,000
995,09	-747,059
995,26	900,000
995,42	245,098
995,59	623,810
995,75	1084,615
995,92	2085,714
996,08	361,111
996,25	-1187,500
996,41	-5250,000
996,58	700,000
996,74	350,000
996,91	413,793
997,07	0,000
997,23	14900,000
997,40	-15800,000
997,56	-753,846
997,73	-1300,000
997,89	321,053
998,06	1123,077
998,22	-661,111
998,39	564,000
998,55	1188,889
998,72	-1700,000
998,88	-316,667
999,05	-164,103
999,21	247,619
999,37	-700,000
999,54	-900,000
999,70	-390,000
999,87	843,750
1000,03	482,051
1000,20	239,583
1000,36	0,000
1000,52	425,000
1000,69	-571,429
1000,85	-870,000
1001,02	-391,667
1001,18	2050,000
1001,35	923,077
1001,51	794,118
1001,67	-823,077
1001,84	-2920,000
1002,00	362,162
1002,17	1127,273
1002,33	-2600,000
1002,50	504,762
1002,66	-946,154
1002,82	212,500
1002,99	1035,714
1003,15	-1771,429
1003,32	-927,273
1003,48	285,714
1003,64	846,667
1003,81	374,074
1003,97	-6450,000
1004,14	1118,182
1004,30	340,000
1004,46	-413,333
1004,63	700,000
1004,79	258,333
1004,95	740,000
1005,12	4550,000
1005,28	500,000
1005,45	391,892
1005,61	434,483
1005,77	-210,417
1005,94	-400,000
1006,10	-5000,000
1006,26	1038,462
1006,43	-307,692
1006,59	-609,091
1006,76	964,286
1006,92	1811,111
1007,08	10500,000
1007,25	-340,741
1007,41	551,724
1007,57	4850,000
1007,74	780,000
1007,90	-382,759
1008,06	208,696
1008,23	776,471
1008,39	-556,250
1008,55	-423,077
1008,72	-1657,143
1008,88	0,000
1009,04	317,073
1009,21	-236,842
1009,37	-758,333
1009,53	247,619
1009,70	1633,333
1009,86	-828,571
1010,02	4533,333
1010,19	772,727
1010,35	286,765
1010,51	-7500,000
1010,68	-1700,000
1010,84	-220,455
1011,00	562,500
1011,17	-359,091
1011,33	0,000
1011,49	-660,000
1011,66	964,286
1011,82	529,032
1011,98	507,143
1012,14	-718,182
1012,31	320,513
1012,47	0,000
1012,63	2350,000
1012,80	828,571
1012,96	-656,250
1013,12	-1350,000
1013,29	677,778
1013,45	312,195
1013,61	5333,333
1013,77	-137,500
1013,94	1920,000
1014,10	186,441
1014,26	-2325,000
1014,43	-188,000
1014,59	630,000
1014,75	-372,222
1014,91	-586,667
1015,08	427,778
1015,24	12100,000
1015,40	558,824
1015,56	-11700,000
1015,73	257,143
1015,89	954,545
1016,05	3675,000
1016,21	-762,500
1016,38	494,737
1016,54	884,615
1016,70	-5100,000
1016,86	384,375
1017,03	1162,500
1017,19	-915,385
1017,35	-600,000
1017,51	-1160,000
1017,68	-830,000
1017,84	-2214,286
1018,00	326,190
1018,16	350,000
1018,33	-1257,143
1018,49	-541,667
1018,65	-156,757
1018,81	253,846
1018,97	-1242,857
1019,14	-3766,667
1019,30	-279,487
1019,46	0,000
1019,62	-552,941
1019,79	-4033,333
1019,95	1366,667
1020,11	6550,000
1020,27	-425,926
1020,43	-523,077
1020,60	2000,000
1020,76	733,333
1020,92	753,333
1021,08	770,000
1021,24	990,000
1021,41	1211,111
1021,57	1500,000
1021,73	623,077
1021,89	2860,000
1022,05	-335,714
1022,21	685,000
1022,38	-566,667
1022,54	-2166,667
1022,70	288,889
1022,86	-1387,500
1023,02	537,500
1023,19	2200,000
1023,35	3900,000
1023,51	537,500
1023,67	440,741
1023,83	-737,500
1023,99	239,474
1024,16	-523,077
1024,32	-1411,111
1024,48	-820,000
1024,64	288,095
1024,80	591,304
1024,96	392,308
1025,12	538,095
1025,29	328,571
1025,45	357,895
1025,61	800,000
1025,77	-1720,000
1025,93	-10800,000
1026,09	-1485,714
1026,26	933,333
1026,42	487,500
1026,58	345,455
1026,74	1883,333
1026,90	424,000
1027,06	321,429
1027,22	935,714
1027,38	267,308
1027,55	4266,667
1027,71	2033,333
1027,87	-308,000
1028,03	1180,000
1028,19	240,625
1028,35	765,000
1028,51	1620,000
1028,67	800,000
1028,83	-1975,000
1029,00	-195,238
1029,16	1280,000
1029,32	-360,714
1029,48	220,000
1029,64	325,000
1029,80	5250,000
1029,96	920,000
1030,12	413,043
1030,28	-3333,333
1030,44	-800,000
1030,61	-391,667
1030,77	-185,714
1030,93	-706,667
1031,09	2100,000
1031,25	-10500,000
1031,41	-333,333
1031,57	303,846
1031,73	806,250
1031,89	-1281,818
1032,05	-400,000
1032,21	1018,182
1032,37	-185,185
1032,53	-571,429
1032,69	-216,667
1032,86	440,741
1033,02	-232,500
1033,18	-887,500
1033,34	547,368
1033,50	-4900,000
1033,66	-258,537
1033,82	473,913
1033,98	-433,333
1034,14	183,333
1034,30	290,323
1034,46	-2733,333
1034,62	425,000
1034,78	-428,571
1034,94	376,316
1035,10	-692,308
1035,26	-93,023
1035,42	-265,517
1035,58	-366,667
1035,74	891,667
1035,90	-607,692
1036,06	-900,000
1036,22	1416,667
1036,38	-623,529
1036,54	-404,167
1036,70	-224,242
1036,86	9200,000
1037,02	377,778
1037,18	584,211
1037,34	142,857
1037,50	-190,244
1037,66	-288,235
1037,82	2100,000
1037,98	-311,111
1038,14	-356,000
1038,30	-325,000
1038,46	-464,286
1038,62	595,652
1038,78	-3700,000
1038,94	-447,368
1039,10	531,818
1039,26	429,630
1039,42	-1058,333
1039,58	1728,571
1039,74	-657,895
1039,90	387,500
1040,06	-319,231
>>>>>End Processed Spectral Data<<<<<
