SpectraSuite Data File
++++++++++++++++++++++++++++++++++++
Date: Wed Feb 01 15:53:20 EET 2017
User: optolab
Dark Spectrum Present: Yes
Reference Spectrum Present: Yes
Number of Sampled Component Spectra: 1
Spectrometers: USB4C02475
Integration Time (usec): 100000 (USB4C02475)
Spectra Averaged: 1 (USB4C02475)
Boxcar Smoothing: 0 (USB4C02475)
Correct for Electrical Dark: No (USB4C02475)
Strobe/Lamp Enabled: No (USB4C02475)
Correct for Detector Non-linearity: No (USB4C02475)
Correct for Stray Light: No (USB4C02475)
Number of Pixels in Processed Spectrum: 3648
>>>>>Begin Processed Spectral Data<<<<<
344,91	3250,000
345,13	3250,000
345,35	3250,000
345,57	0,000
345,79	463,158
346,00	-1488,889
346,22	-2042,857
346,44	255,882
346,66	-545,833
346,87	-10800,000
347,09	306,061
347,31	-513,636
347,53	-323,077
347,74	244,615
347,96	293,939
348,18	636,842
348,40	390,323
348,61	752,941
348,83	388,095
349,05	258,824
349,27	-3950,000
349,48	542,308
349,70	-286,207
349,92	370,968
350,14	203,774
350,35	310,000
350,57	3600,000
350,79	632,000
351,01	-833,333
351,22	264,815
351,44	700,000
351,66	-384,000
351,87	-695,238
352,09	242,308
352,31	185,246
352,53	198,438
352,74	308,333
352,96	223,377
353,18	731,579
353,40	612,000
353,61	322,222
353,83	270,588
354,05	872,727
354,26	2266,667
354,48	220,000
354,70	403,030
354,92	-375,862
355,13	191,919
355,35	345,455
355,57	562,500
355,78	236,145
356,00	-3875,000
356,22	376,923
356,44	6650,000
356,65	306,818
356,87	538,462
357,09	595,833
357,30	222,222
357,52	279,310
357,74	765,000
357,95	320,513
358,17	224,590
358,39	243,548
358,60	348,649
358,82	425,000
359,04	474,074
359,26	368,571
359,47	6700,000
359,69	422,500
359,91	354,545
360,12	528,571
360,34	641,667
360,56	-105,556
360,77	3050,000
360,99	604,762
361,21	324,000
361,42	4050,000
361,64	232,653
361,86	256,923
362,07	-529,032
362,29	204,000
362,51	-600,000
362,72	484,000
362,94	414,706
363,16	202,326
363,37	-792,857
363,59	538,462
363,81	402,273
364,02	666,667
364,24	645,833
364,46	2666,667
364,67	1427,273
364,89	2257,143
365,11	181,429
365,32	417,241
365,54	366,667
365,76	320,408
365,97	250,000
366,19	215,517
366,41	540,909
366,62	418,519
366,84	272,093
367,05	304,082
367,27	1550,000
367,49	-484,615
367,70	588,235
367,92	198,361
368,14	289,583
368,35	-7800,000
368,57	444,000
368,79	427,586
369,00	336,957
369,22	-1675,000
369,43	244,706
369,65	232,258
369,87	389,189
370,08	137,349
370,30	219,643
370,51	239,344
370,73	253,333
370,95	256,452
371,16	269,048
371,38	453,333
371,60	1600,000
371,81	150,000
372,03	806,667
372,24	393,333
372,46	133,962
372,68	181,429
372,89	336,364
373,11	469,231
373,32	354,545
373,54	-907,692
373,76	792,308
373,97	526,667
374,19	436,364
374,40	275,000
374,62	-4133,333
374,84	4025,000
375,05	603,571
375,27	302,000
375,48	-6800,000
375,70	180,000
375,92	257,143
376,13	396,875
376,35	232,877
376,56	943,750
376,78	250,000
376,99	485,714
377,21	243,750
377,43	227,273
377,64	188,406
377,86	389,655
378,07	425,641
378,29	-1462,500
378,51	541,935
378,72	306,250
378,94	-966,667
379,15	381,818
379,37	741,176
379,58	276,923
379,80	600,000
380,01	687,500
380,23	370,588
380,45	2220,000
380,66	4433,333
380,88	218,182
381,09	218,571
381,31	164,444
381,52	200,000
381,74	1466,667
381,95	604,545
382,17	434,615
382,39	619,048
382,60	126,531
382,82	369,231
383,03	259,615
383,25	354,839
383,46	302,273
383,68	511,111
383,89	610,000
384,11	338,710
384,32	-3333,333
384,54	600,000
384,76	-3966,667
384,97	318,182
385,19	444,828
385,40	252,941
385,62	235,088
385,83	311,905
386,05	223,529
386,26	210,000
386,48	247,126
386,69	229,167
386,91	595,000
387,12	271,186
387,34	201,724
387,55	280,645
387,77	509,375
387,98	511,538
388,20	151,087
388,41	455,882
388,63	8800,000
388,84	190,164
389,06	273,810
389,27	673,684
389,49	427,778
389,70	279,592
389,92	340,000
390,13	228,571
390,35	260,784
390,56	275,926
390,78	359,259
390,99	1200,000
391,21	726,316
391,42	304,444
391,64	400,000
391,85	200,000
392,07	245,455
392,28	110,667
392,50	324,242
392,71	-1112,500
392,93	273,077
393,14	466,667
393,36	275,510
393,57	142,105
393,79	877,778
394,00	312,766
394,22	154,795
394,43	193,976
394,65	260,465
394,86	1375,000
395,08	538,095
395,29	205,660
395,50	430,769
395,72	555,556
395,93	785,714
396,15	202,817
396,36	222,059
396,58	221,667
396,79	327,500
397,01	238,000
397,22	347,222
397,44	180,303
397,65	185,965
397,87	228,571
398,08	228,571
398,29	412,500
398,51	207,143
398,72	256,098
398,94	233,846
399,15	402,857
399,37	315,789
399,58	172,527
399,80	600,000
400,01	222,222
400,22	385,714
400,44	183,951
400,65	467,857
400,87	173,529
401,08	162,857
401,30	265,217
401,51	224,561
401,72	180,769
401,94	169,620
402,15	440,000
402,37	162,185
402,58	661,111
402,80	248,571
403,01	208,451
403,22	1000,000
403,44	186,957
403,65	237,500
403,87	255,714
404,08	405,128
404,30	164,706
404,51	-2466,667
404,72	190,000
404,94	120,588
405,15	196,000
405,37	164,557
405,58	164,706
405,79	171,951
406,01	375,610
406,22	156,897
406,44	270,213
406,65	200,000
406,86	164,583
407,08	151,899
407,29	154,369
407,51	162,195
407,72	142,593
407,93	122,826
408,15	64,103
408,36	209,302
408,58	105,155
408,79	107,500
409,00	139,583
409,22	133,333
409,43	149,367
409,64	83,230
409,86	87,421
410,07	98,462
410,29	88,060
410,50	87,943
410,71	90,179
410,93	71,975
411,14	122,481
411,35	88,095
411,57	81,579
411,78	80,469
412,00	80,892
412,21	100,000
412,42	69,841
412,64	41,202
412,85	51,031
413,06	63,415
413,28	52,703
413,49	60,664
413,70	43,841
413,92	47,826
414,13	31,120
414,34	40,230
414,56	31,818
414,77	69,198
414,98	49,329
415,20	40,484
415,41	49,008
415,63	37,562
415,84	48,056
416,05	39,286
416,27	32,817
416,48	34,270
416,69	48,894
416,91	45,946
417,12	55,615
417,33	43,789
417,55	45,674
417,76	64,682
417,97	47,095
418,19	47,913
418,40	62,340
418,61	63,889
418,83	56,182
419,04	48,423
419,25	53,583
419,46	61,353
419,68	62,698
419,89	60,060
420,10	62,449
420,32	59,527
420,53	72,877
420,74	74,206
420,96	76,250
421,17	81,986
421,38	86,289
421,60	91,943
421,81	107,062
422,02	102,926
422,23	100,563
422,45	101,012
422,66	97,571
422,87	102,616
423,09	100,556
423,30	101,237
423,51	107,165
423,73	97,974
423,94	97,549
424,15	103,673
424,36	98,875
424,58	93,188
424,79	97,502
425,00	98,824
425,22	100,361
425,43	92,817
425,64	95,753
425,85	92,927
426,07	95,438
426,28	98,096
426,49	94,573
426,71	92,533
426,92	91,593
427,13	93,143
427,34	94,459
427,56	95,807
427,77	89,246
427,98	94,247
428,19	95,346
428,41	95,617
428,62	95,565
428,83	92,237
429,04	94,435
429,26	92,559
429,47	91,920
429,68	92,886
429,89	92,361
430,11	92,806
430,32	91,713
430,53	90,820
430,74	94,295
430,96	90,854
431,17	91,385
431,38	93,671
431,59	90,682
431,81	93,536
432,02	92,575
432,23	92,391
432,44	92,234
432,66	91,284
432,87	93,067
433,08	93,293
433,29	90,978
433,51	91,440
433,72	95,884
433,93	93,779
434,14	91,057
434,35	93,157
434,57	91,210
434,78	94,621
434,99	92,406
435,20	94,629
435,42	92,913
435,63	92,413
435,84	96,651
436,05	93,105
436,26	93,513
436,48	91,937
436,69	94,052
436,90	92,871
437,11	92,837
437,32	93,649
437,54	94,715
437,75	92,425
437,96	94,366
438,17	93,658
438,38	94,105
438,60	94,280
438,81	93,007
439,02	95,352
439,23	94,667
439,44	92,692
439,66	94,182
439,87	91,588
440,08	93,087
440,29	91,498
440,50	90,981
440,72	91,818
440,93	91,054
441,14	89,538
441,35	89,873
441,56	88,938
441,77	88,138
441,99	87,619
442,20	87,675
442,41	87,241
442,62	87,323
442,83	86,835
443,04	86,546
443,26	86,786
443,47	87,947
443,68	86,206
443,89	87,590
444,10	88,205
444,31	88,448
444,53	88,064
444,74	86,400
444,95	88,166
445,16	87,356
445,37	85,463
445,58	86,161
445,80	85,036
446,01	86,015
446,22	85,973
446,43	85,611
446,64	86,146
446,85	86,701
447,06	86,942
447,28	85,976
447,49	86,804
447,70	86,580
447,91	87,252
448,12	85,996
448,33	86,810
448,54	86,519
448,76	85,934
448,97	85,362
449,18	82,880
449,39	80,806
449,60	78,783
449,81	76,766
450,02	74,963
450,23	72,267
450,45	69,942
450,66	66,580
450,87	64,469
451,08	60,935
451,29	58,141
451,50	54,624
451,71	51,009
451,92	47,614
452,13	43,494
452,35	40,498
452,56	36,490
452,77	32,843
452,98	28,862
453,19	26,149
453,40	22,405
453,61	20,296
453,82	16,770
454,03	14,624
454,25	12,155
454,46	9,244
454,67	7,624
454,88	5,900
455,09	4,380
455,30	3,370
455,51	2,109
455,72	1,970
455,93	1,560
456,14	1,388
456,35	1,482
456,56	1,043
456,78	1,333
456,99	1,264
457,20	1,172
457,41	1,006
457,62	1,045
457,83	1,226
458,04	1,069
458,25	1,207
458,46	1,028
458,67	1,187
458,88	1,090
459,09	0,725
459,30	0,935
459,51	0,805
459,73	0,859
459,94	1,152
460,15	0,889
460,36	0,892
460,57	0,802
460,78	0,743
460,99	0,557
461,20	0,662
461,41	0,788
461,62	0,718
461,83	0,798
462,04	0,907
462,25	1,061
462,46	0,775
462,67	0,629
462,88	0,858
463,09	0,766
463,30	0,779
463,51	0,723
463,72	0,756
463,93	0,734
464,15	0,711
464,36	0,599
464,57	0,447
464,78	0,512
464,99	0,583
465,20	0,544
465,41	0,600
465,62	0,584
465,83	0,598
466,04	0,688
466,25	0,661
466,46	0,593
466,67	0,503
466,88	0,691
467,09	0,592
467,30	0,635
467,51	0,699
467,72	0,710
467,93	0,504
468,14	0,535
468,35	0,501
468,56	0,519
468,77	0,639
468,98	0,551
469,19	0,612
469,40	0,565
469,61	0,766
469,82	0,438
470,03	0,780
470,24	0,727
470,45	0,651
470,66	0,667
470,87	0,495
471,08	0,894
471,29	0,704
471,50	0,616
471,71	0,698
471,92	0,757
472,13	0,938
472,34	0,657
472,55	0,684
472,76	0,659
472,97	0,837
473,18	0,550
473,39	0,827
473,60	0,784
473,81	0,745
474,01	0,758
474,22	0,739
474,43	0,976
474,64	0,682
474,85	0,438
475,06	0,644
475,27	0,714
475,48	0,808
475,69	0,683
475,90	0,901
476,11	0,785
476,32	0,722
476,53	0,807
476,74	0,997
476,95	0,698
477,16	0,711
477,37	0,917
477,58	0,745
477,79	0,915
478,00	0,870
478,21	0,665
478,41	1,097
478,62	0,701
478,83	0,975
479,04	0,968
479,25	0,696
479,46	0,588
479,67	1,131
479,88	0,881
480,09	0,750
480,30	0,979
480,51	0,900
480,72	0,831
480,93	0,995
481,14	0,824
481,34	0,897
481,55	0,846
481,76	0,766
481,97	1,010
482,18	0,774
482,39	1,034
482,60	0,895
482,81	0,892
483,02	0,918
483,23	0,992
483,44	1,131
483,65	1,067
483,85	0,969
484,06	1,028
484,27	0,924
484,48	1,190
484,69	1,397
484,90	1,404
485,11	1,176
485,32	1,204
485,53	1,525
485,73	1,848
485,94	2,422
486,15	3,248
486,36	4,058
486,57	5,396
486,78	6,957
486,99	8,635
487,20	10,833
487,41	13,062
487,61	15,628
487,82	18,040
488,03	21,160
488,24	24,379
488,45	27,385
488,66	30,263
488,87	33,308
489,08	36,601
489,28	39,557
489,49	42,501
489,70	45,292
489,91	48,552
490,12	51,418
490,33	54,745
490,54	57,932
490,74	61,712
490,95	63,759
491,16	67,051
491,37	70,032
491,58	72,546
491,79	75,338
492,00	77,271
492,20	79,307
492,41	80,187
492,62	81,234
492,83	82,329
493,04	83,738
493,25	84,070
493,45	83,489
493,66	83,395
493,87	84,559
494,08	83,786
494,29	83,832
494,50	85,619
494,70	85,431
494,91	85,901
495,12	85,184
495,33	86,813
495,54	86,545
495,75	86,128
495,95	86,528
496,16	87,035
496,37	86,644
496,58	87,016
496,79	86,892
496,99	87,006
497,20	87,854
497,41	86,559
497,62	87,112
497,83	88,198
498,04	86,972
498,24	88,324
498,45	88,645
498,66	89,590
498,87	89,644
499,08	90,055
499,28	92,219
499,49	92,068
499,70	92,169
499,91	92,377
500,12	92,035
500,32	92,920
500,53	92,865
500,74	93,115
500,95	92,267
501,15	92,450
501,36	92,630
501,57	93,097
501,78	92,275
501,99	92,302
502,19	91,608
502,40	91,010
502,61	92,152
502,82	91,423
503,02	91,926
503,23	91,869
503,44	92,507
503,65	91,894
503,86	91,205
504,06	92,304
504,27	92,519
504,48	93,866
504,69	93,739
504,89	94,464
505,10	94,869
505,31	95,079
505,52	94,320
505,72	96,081
505,93	95,938
506,14	96,706
506,35	96,278
506,55	96,086
506,76	96,064
506,97	96,438
507,18	96,488
507,38	96,339
507,59	95,727
507,80	95,987
508,01	94,620
508,21	94,096
508,42	94,496
508,63	94,815
508,84	93,876
509,04	93,381
509,25	94,174
509,46	93,384
509,67	92,213
509,87	93,621
510,08	93,883
510,29	93,071
510,49	93,537
510,70	93,436
510,91	93,335
511,12	93,767
511,32	93,512
511,53	92,625
511,74	92,334
511,94	93,410
512,15	93,484
512,36	94,098
512,57	92,796
512,77	93,854
512,98	93,142
513,19	92,840
513,39	92,768
513,60	91,814
513,81	92,205
514,01	91,788
514,22	90,610
514,43	90,216
514,64	89,728
514,84	89,512
515,05	89,520
515,26	88,845
515,46	90,352
515,67	89,994
515,88	88,601
516,08	90,256
516,29	90,554
516,50	90,183
516,70	90,354
516,91	90,690
517,12	90,166
517,32	91,561
517,53	91,374
517,74	90,753
517,95	90,862
518,15	90,420
518,36	90,880
518,57	90,221
518,77	91,153
518,98	89,567
519,19	89,011
519,39	88,443
519,60	87,578
519,80	88,032
520,01	88,044
520,22	87,837
520,42	88,412
520,63	88,088
520,84	88,849
521,04	89,637
521,25	89,342
521,46	90,115
521,66	90,993
521,87	92,361
522,08	92,719
522,28	93,161
522,49	93,436
522,70	93,892
522,90	95,612
523,11	95,674
523,31	95,809
523,52	96,234
523,73	96,626
523,93	96,004
524,14	95,891
524,35	95,337
524,55	94,801
524,76	94,676
524,97	94,805
525,17	93,455
525,38	92,684
525,58	92,451
525,79	92,155
526,00	92,191
526,20	91,276
526,41	90,360
526,61	90,853
526,82	89,338
527,03	87,682
527,23	85,727
527,44	85,966
527,64	84,135
527,85	82,193
528,06	79,914
528,26	77,746
528,47	76,180
528,68	73,840
528,88	71,919
529,09	69,331
529,29	68,257
529,50	67,250
529,70	65,844
529,91	63,658
530,12	62,783
530,32	60,501
530,53	59,425
530,73	57,695
530,94	56,788
531,15	54,674
531,35	52,247
531,56	50,761
531,76	48,290
531,97	46,170
532,17	44,016
532,38	40,630
532,59	39,029
532,79	35,687
533,00	32,750
533,20	30,369
533,41	26,746
533,61	24,575
533,82	21,298
534,03	17,555
534,23	15,397
534,44	12,783
534,64	10,119
534,85	8,219
535,05	6,425
535,26	4,943
535,46	3,904
535,67	2,978
535,88	2,356
536,08	1,789
536,29	1,751
536,49	1,592
536,70	1,322
536,90	1,263
537,11	1,119
537,31	1,101
537,52	0,978
537,72	1,118
537,93	1,067
538,13	1,073
538,34	1,218
538,55	1,160
538,75	0,933
538,96	1,165
539,16	0,940
539,37	1,008
539,57	1,032
539,78	1,101
539,98	1,083
540,19	1,005
540,39	0,892
540,60	1,020
540,80	1,108
541,01	0,965
541,21	1,010
541,42	0,995
541,62	0,941
541,83	0,971
542,03	1,266
542,24	0,628
542,44	0,882
542,65	0,836
542,85	1,067
543,06	0,824
543,26	0,759
543,47	0,993
543,67	1,050
543,88	1,063
544,08	0,928
544,29	1,097
544,49	1,011
544,70	1,127
544,90	0,981
545,11	0,731
545,31	0,948
545,52	0,945
545,72	1,131
545,93	0,747
546,13	1,137
546,34	0,837
546,54	0,830
546,75	0,977
546,95	1,020
547,15	0,870
547,36	0,890
547,56	1,117
547,77	0,817
547,97	0,939
548,18	0,876
548,38	0,831
548,59	0,888
548,79	0,841
549,00	0,848
549,20	0,955
549,41	0,893
549,61	1,006
549,81	0,845
550,02	1,161
550,22	0,855
550,43	0,937
550,63	0,979
550,84	0,926
551,04	1,052
551,25	0,916
551,45	0,905
551,65	0,792
551,86	1,017
552,06	1,000
552,27	0,830
552,47	0,923
552,68	0,990
552,88	0,887
553,08	0,761
553,29	0,947
553,49	0,773
553,70	1,059
553,90	0,634
554,11	0,780
554,31	0,838
554,51	0,953
554,72	0,835
554,92	0,979
555,13	1,046
555,33	0,957
555,53	1,020
555,74	0,901
555,94	0,965
556,15	0,918
556,35	0,860
556,56	0,945
556,76	0,851
556,96	0,977
557,17	1,021
557,37	1,028
557,58	1,029
557,78	1,000
557,98	0,799
558,19	0,975
558,39	1,017
558,59	0,969
558,80	1,000
559,00	1,055
559,21	1,033
559,41	0,778
559,61	0,845
559,82	1,041
560,02	1,023
560,23	1,159
560,43	1,020
560,63	1,182
560,84	1,097
561,04	1,036
561,24	1,220
561,45	1,150
561,65	1,432
561,85	1,801
562,06	1,800
562,26	2,117
562,47	2,693
562,67	3,130
562,87	3,981
563,08	4,995
563,28	6,066
563,48	7,636
563,69	9,463
563,89	11,841
564,09	13,965
564,30	17,790
564,50	21,058
564,70	25,489
564,91	29,673
565,11	33,418
565,31	37,989
565,52	42,650
565,72	47,946
565,92	52,617
566,13	56,269
566,33	60,375
566,53	64,365
566,74	67,781
566,94	69,509
567,14	71,271
567,35	72,576
567,55	74,325
567,75	75,686
567,96	75,377
568,16	75,843
568,36	76,201
568,57	76,247
568,77	76,737
568,97	76,888
569,18	77,526
569,38	78,530
569,58	77,148
569,79	78,567
569,99	79,533
570,19	80,155
570,39	82,190
570,60	81,812
570,80	83,732
571,00	85,558
571,21	84,921
571,41	87,383
571,61	88,462
571,82	90,201
572,02	90,653
572,22	92,558
572,42	92,187
572,63	92,734
572,83	93,483
573,03	94,242
573,24	94,102
573,44	93,442
573,64	91,953
573,84	92,419
574,05	93,134
574,25	93,134
574,45	91,820
574,66	91,122
574,86	93,048
575,06	92,456
575,26	91,369
575,47	93,101
575,67	92,646
575,87	93,955
576,07	94,455
576,28	94,673
576,48	94,473
576,68	94,373
576,88	94,412
577,09	95,013
577,29	95,505
577,49	96,705
577,69	96,646
577,90	95,589
578,10	95,768
578,30	96,041
578,50	96,520
578,71	95,618
578,91	96,373
579,11	96,367
579,31	96,410
579,52	97,082
579,72	95,262
579,92	94,391
580,12	95,820
580,33	96,534
580,53	95,120
580,73	96,082
580,93	95,100
581,13	95,059
581,34	95,302
581,54	94,631
581,74	95,460
581,94	96,186
582,15	95,153
582,35	94,859
582,55	95,709
582,75	94,883
582,95	95,416
583,16	95,099
583,36	94,831
583,56	94,882
583,76	94,475
583,96	94,785
584,17	95,070
584,37	96,050
584,57	94,648
584,77	94,931
584,97	95,521
585,18	94,936
585,38	95,247
585,58	94,697
585,78	94,844
585,98	94,896
586,19	94,824
586,39	95,538
586,59	95,300
586,79	95,470
586,99	96,077
587,20	96,156
587,40	96,026
587,60	95,879
587,80	96,765
588,00	95,570
588,20	95,314
588,41	96,570
588,61	96,598
588,81	95,822
589,01	96,303
589,21	95,113
589,41	95,325
589,62	95,305
589,82	96,630
590,02	94,467
590,22	96,098
590,42	95,890
590,62	94,394
590,83	93,829
591,03	94,485
591,23	93,859
591,43	93,617
591,63	93,373
591,83	93,338
592,03	91,532
592,24	91,577
592,44	91,533
592,64	91,152
592,84	91,661
593,04	90,219
593,24	89,788
593,44	90,435
593,65	90,148
593,85	91,056
594,05	89,777
594,25	88,721
594,45	88,879
594,65	88,685
594,85	89,333
595,06	88,592
595,26	87,900
595,46	87,647
595,66	86,993
595,86	86,333
596,06	85,159
596,26	84,615
596,46	84,506
596,66	82,517
596,87	82,703
597,07	82,401
597,27	81,237
597,47	81,315
597,67	79,931
597,87	78,937
598,07	77,606
598,27	77,029
598,47	76,101
598,67	75,246
598,88	74,721
599,08	73,141
599,28	71,943
599,48	70,502
599,68	69,045
599,88	68,436
600,08	67,132
600,28	65,576
600,48	64,379
600,68	62,536
600,88	61,556
601,09	59,730
601,29	57,230
601,49	57,198
601,69	55,944
601,89	54,342
602,09	52,980
602,29	51,411
602,49	50,035
602,69	48,383
602,89	47,525
603,09	44,961
603,29	43,814
603,49	41,248
603,69	38,661
603,90	35,709
604,10	34,205
604,30	31,936
604,50	29,863
604,70	27,361
604,90	25,496
605,10	22,785
605,30	20,126
605,50	17,847
605,70	15,591
605,90	13,531
606,10	10,957
606,30	9,347
606,50	8,081
606,70	6,305
606,90	4,999
607,10	3,994
607,30	3,200
607,50	2,503
607,70	2,068
607,90	1,514
608,10	1,244
608,30	1,115
608,50	1,297
608,70	1,056
608,90	0,889
609,11	0,948
609,31	1,018
609,51	0,920
609,71	0,860
609,91	0,711
610,11	0,751
610,31	0,636
610,51	0,999
610,71	0,661
610,91	0,661
611,11	0,835
611,31	0,769
611,51	0,625
611,71	0,732
611,91	0,639
612,11	0,965
612,31	0,919
612,51	0,711
612,71	0,705
612,91	0,662
613,11	0,796
613,31	0,814
613,51	0,636
613,71	0,590
613,91	0,694
614,11	0,657
614,31	0,794
614,50	0,716
614,70	0,867
614,90	0,684
615,10	0,767
615,30	0,683
615,50	0,501
615,70	0,667
615,90	0,778
616,10	0,700
616,30	0,715
616,50	0,767
616,70	0,651
616,90	0,531
617,10	0,648
617,30	0,701
617,50	0,698
617,70	0,677
617,90	0,727
618,10	0,615
618,30	0,619
618,50	0,642
618,70	0,536
618,90	0,372
619,10	0,640
619,30	0,605
619,49	0,439
619,69	0,583
619,89	0,678
620,09	0,579
620,29	0,839
620,49	0,695
620,69	0,777
620,89	0,774
621,09	0,641
621,29	0,700
621,49	0,595
621,69	0,696
621,89	0,763
622,09	0,660
622,29	0,621
622,48	0,555
622,68	0,418
622,88	0,588
623,08	0,740
623,28	0,712
623,48	0,551
623,68	0,551
623,88	0,750
624,08	0,755
624,28	0,387
624,48	0,693
624,67	0,702
624,87	0,495
625,07	0,425
625,27	0,567
625,47	0,707
625,67	0,847
625,87	0,557
626,07	0,580
626,27	0,636
626,47	0,491
626,66	0,699
626,86	0,560
627,06	0,482
627,26	0,604
627,46	0,545
627,66	0,630
627,86	0,608
628,06	0,572
628,25	0,562
628,45	0,636
628,65	0,553
628,85	0,676
629,05	0,704
629,25	0,611
629,45	0,509
629,65	0,575
629,84	0,521
630,04	0,466
630,24	0,662
630,44	0,538
630,64	0,639
630,84	0,598
631,04	0,692
631,23	0,471
631,43	0,664
631,63	0,612
631,83	0,576
632,03	0,603
632,23	0,559
632,42	0,531
632,62	0,762
632,82	0,595
633,02	0,590
633,22	0,573
633,42	0,745
633,62	0,686
633,81	0,765
634,01	0,605
634,21	0,721
634,41	0,745
634,61	0,641
634,80	0,780
635,00	0,586
635,20	0,769
635,40	0,841
635,60	0,862
635,80	0,624
635,99	0,869
636,19	0,719
636,39	0,952
636,59	0,750
636,79	0,816
636,98	0,975
637,18	0,895
637,38	1,137
637,58	0,897
637,78	1,059
637,97	1,087
638,17	1,273
638,37	1,284
638,57	1,301
638,77	1,487
638,96	1,609
639,16	1,833
639,36	2,208
639,56	2,602
639,76	2,934
639,95	3,259
640,15	4,198
640,35	5,059
640,55	5,925
640,75	7,081
640,94	8,910
641,14	10,820
641,34	12,623
641,54	14,905
641,73	17,111
641,93	19,846
642,13	22,919
642,33	25,482
642,53	29,401
642,72	32,965
642,92	35,741
643,12	38,913
643,32	43,263
643,51	46,381
643,71	48,518
643,91	52,198
644,11	54,612
644,30	56,377
644,50	59,643
644,70	61,956
644,90	64,364
645,09	65,773
645,29	66,533
645,49	67,394
645,69	68,739
645,88	70,838
646,08	70,926
646,28	71,889
646,48	72,930
646,67	73,535
646,87	74,740
647,07	75,509
647,26	76,059
647,46	76,582
647,66	77,305
647,86	79,513
648,05	79,388
648,25	80,839
648,45	81,352
648,65	82,174
648,84	84,061
649,04	84,589
649,24	85,436
649,43	84,993
649,63	88,316
649,83	88,276
650,03	89,978
650,22	91,273
650,42	91,434
650,62	94,066
650,81	93,239
651,01	94,023
651,21	94,718
651,40	95,686
651,60	95,177
651,80	96,763
652,00	95,086
652,19	94,876
652,39	97,741
652,59	95,054
652,78	96,320
652,98	97,666
653,18	96,072
653,37	96,424
653,57	95,169
653,77	96,037
653,96	97,251
654,16	96,755
654,36	98,868
654,55	97,848
654,75	95,809
654,95	96,597
655,14	95,332
655,34	97,001
655,54	95,622
655,73	95,421
655,93	96,686
656,13	95,093
656,32	94,226
656,52	96,383
656,72	95,627
656,91	94,341
657,11	94,660
657,31	92,962
657,50	94,897
657,70	94,003
657,90	93,853
658,09	93,176
658,29	94,866
658,49	93,688
658,68	92,961
658,88	93,133
659,07	92,431
659,27	90,647
659,47	93,460
659,66	93,202
659,86	93,418
660,06	92,968
660,25	91,744
660,45	93,480
660,64	92,470
660,84	90,612
661,04	91,876
661,23	90,861
661,43	91,638
661,63	92,509
661,82	91,101
662,02	92,169
662,21	90,953
662,41	92,194
662,61	91,857
662,80	91,274
663,00	90,888
663,19	91,275
663,39	91,064
663,59	90,890
663,78	90,583
663,98	89,520
664,17	90,271
664,37	89,614
664,57	89,608
664,76	88,598
664,96	87,980
665,15	86,664
665,35	86,671
665,55	85,481
665,74	85,952
665,94	84,953
666,13	85,104
666,33	84,323
666,53	84,387
666,72	82,369
666,92	81,340
667,11	82,466
667,31	80,906
667,50	80,917
667,70	78,706
667,90	77,575
668,09	78,004
668,29	76,293
668,48	75,730
668,68	73,256
668,87	73,214
669,07	72,187
669,26	70,345
669,46	69,693
669,66	67,456
669,85	66,853
670,05	64,853
670,24	63,316
670,44	63,719
670,63	62,244
670,83	61,309
671,02	60,828
671,22	59,158
671,42	57,407
671,61	57,123
671,81	56,509
672,00	54,487
672,20	53,755
672,39	51,923
672,59	50,598
672,78	49,734
672,98	48,100
673,17	46,518
673,37	43,699
673,56	42,672
673,76	40,928
673,95	39,426
674,15	37,569
674,34	36,211
674,54	34,873
674,73	33,845
674,93	33,360
675,13	31,458
675,32	31,032
675,52	30,419
675,71	30,171
675,91	29,729
676,10	29,438
676,30	28,167
676,49	28,139
676,69	27,903
676,88	27,409
677,08	25,825
677,27	25,189
677,47	23,361
677,66	22,390
677,86	21,073
678,05	19,774
678,24	18,156
678,44	17,313
678,63	15,940
678,83	15,305
679,02	14,451
679,22	13,332
679,41	13,584
679,61	12,907
679,80	12,671
680,00	12,067
680,19	12,134
680,39	11,566
680,58	10,771
680,78	10,002
680,97	9,356
681,17	8,524
681,36	7,435
681,56	6,712
681,75	5,744
681,94	4,794
682,14	4,153
682,33	3,468
682,53	2,902
682,72	1,958
682,92	2,064
683,11	1,520
683,31	1,016
683,50	1,127
683,69	0,889
683,89	0,769
684,08	0,828
684,28	0,548
684,47	0,733
684,67	0,883
684,86	0,236
685,06	0,460
685,25	0,554
685,44	0,480
685,64	0,301
685,83	0,662
686,03	0,451
686,22	0,422
686,42	0,415
686,61	0,447
686,80	0,540
687,00	0,579
687,19	0,755
687,39	0,492
687,58	0,319
687,77	0,259
687,97	0,568
688,16	0,310
688,36	0,203
688,55	0,481
688,74	0,601
688,94	0,250
689,13	0,614
689,33	0,307
689,52	0,493
689,71	0,502
689,91	0,382
690,10	0,428
690,30	0,480
690,49	0,571
690,68	0,574
690,88	0,519
691,07	0,383
691,27	0,338
691,46	0,417
691,65	0,411
691,85	0,411
692,04	0,363
692,23	0,280
692,43	0,351
692,62	0,586
692,82	0,510
693,01	0,332
693,20	0,361
693,40	0,481
693,59	0,439
693,78	0,464
693,98	0,478
694,17	0,360
694,36	0,613
694,56	0,500
694,75	0,260
694,94	0,465
695,14	0,349
695,33	0,357
695,53	0,447
695,72	0,590
695,91	0,363
696,11	0,401
696,30	0,261
696,49	0,285
696,69	0,437
696,88	0,549
697,07	0,405
697,27	0,546
697,46	0,386
697,65	0,249
697,85	0,257
698,04	0,766
698,23	0,517
698,43	0,793
698,62	0,329
698,81	0,460
699,01	1,150
699,20	0,564
699,39	0,903
699,58	0,656
699,78	0,738
699,97	0,736
700,16	0,691
700,36	0,530
700,55	1,002
700,74	0,782
700,94	0,785
701,13	0,919
701,32	1,264
701,52	1,356
701,71	1,304
701,90	0,861
702,09	1,542
702,29	1,017
702,48	1,278
702,67	1,492
702,87	1,036
703,06	1,411
703,25	1,500
703,44	0,657
703,64	2,237
703,83	1,365
704,02	1,113
704,22	1,054
704,41	1,218
704,60	1,767
704,79	1,809
704,99	1,623
705,18	1,544
705,37	1,513
705,56	1,898
705,76	2,054
705,95	1,733
706,14	2,144
706,33	2,519
706,53	3,028
706,72	1,994
706,91	2,953
707,11	2,303
707,30	3,917
707,49	2,642
707,68	2,064
707,88	2,609
708,07	1,912
708,26	2,181
708,45	2,392
708,64	2,915
708,84	3,875
709,03	3,630
709,22	1,655
709,41	2,012
709,61	3,546
709,80	3,403
709,99	3,665
710,18	3,759
710,38	4,049
710,57	2,231
710,76	1,320
710,95	4,033
711,14	5,344
711,34	4,480
711,53	5,124
711,72	3,035
711,91	3,885
712,11	5,916
712,30	5,109
712,49	3,184
712,68	3,841
712,87	6,226
713,07	5,611
713,26	4,979
713,45	5,966
713,64	3,519
713,83	3,844
714,03	4,264
714,22	4,004
714,41	5,629
714,60	5,453
714,79	3,441
714,99	4,134
715,18	3,335
715,37	7,190
715,56	5,996
715,75	6,485
715,94	4,802
716,14	4,840
716,33	4,095
716,52	3,545
716,71	6,648
716,90	5,552
717,10	7,561
717,29	3,600
717,48	7,787
717,67	4,393
717,86	5,253
718,05	3,297
718,24	6,231
718,44	8,420
718,63	4,359
718,82	8,123
719,01	6,051
719,20	5,515
719,39	7,880
719,59	2,971
719,78	6,428
719,97	8,229
720,16	7,128
720,35	5,829
720,54	7,052
720,73	5,861
720,93	6,237
721,12	4,649
721,31	8,621
721,50	5,045
721,69	3,838
721,88	5,958
722,07	6,728
722,27	7,480
722,46	5,650
722,65	6,132
722,84	6,829
723,03	5,137
723,22	10,298
723,41	7,161
723,60	10,359
723,79	8,287
723,99	8,935
724,18	10,027
724,37	11,349
724,56	8,385
724,75	10,606
724,94	10,985
725,13	13,149
725,32	5,513
725,51	9,842
725,71	8,712
725,90	6,385
726,09	13,387
726,28	11,277
726,47	9,180
726,66	8,093
726,85	10,656
727,04	7,996
727,23	13,718
727,42	13,854
727,61	9,630
727,81	11,887
728,00	13,604
728,19	9,153
728,38	7,451
728,57	13,417
728,76	13,048
728,95	11,161
729,14	7,248
729,33	11,306
729,52	5,849
729,71	11,596
729,90	10,677
730,09	6,659
730,28	13,741
730,48	5,568
730,67	13,906
730,86	7,214
731,05	12,150
731,24	7,589
731,43	9,811
731,62	14,411
731,81	8,767
732,00	10,928
732,19	6,769
732,38	11,387
732,57	14,578
732,76	14,524
732,95	11,067
733,14	7,282
733,33	9,203
733,52	17,070
733,71	9,451
733,90	17,095
734,09	11,985
734,28	19,724
734,47	11,184
734,66	15,332
734,85	14,326
735,04	11,035
735,23	15,476
735,42	14,986
735,61	20,800
735,81	15,724
736,00	20,181
736,19	13,905
736,38	10,519
736,57	12,396
736,76	13,023
736,95	15,000
737,14	16,261
737,33	16,854
737,52	14,027
737,71	9,615
737,90	17,398
738,09	17,178
738,28	12,759
738,47	14,869
738,66	18,437
738,85	11,340
739,04	21,732
739,22	11,655
739,41	21,452
739,60	13,043
739,79	11,986
739,98	8,348
740,17	20,748
740,36	23,214
740,55	25,750
740,74	23,652
740,93	14,024
741,12	13,603
741,31	16,728
741,50	13,183
741,69	19,259
741,88	15,200
742,07	22,202
742,26	10,112
742,45	16,008
742,64	22,842
742,83	10,638
743,02	13,333
743,21	19,115
743,40	18,042
743,59	15,574
743,78	21,616
743,97	28,571
744,16	16,851
744,34	13,386
744,53	18,852
744,72	33,264
744,91	11,368
745,10	15,645
745,29	21,277
745,48	15,264
745,67	20,774
745,86	8,685
746,05	23,059
746,24	26,144
746,43	25,532
746,62	16,359
746,81	20,776
747,00	24,843
747,18	31,209
747,37	16,418
747,56	15,281
747,75	22,976
747,94	30,416
748,13	24,429
748,32	28,846
748,51	20,993
748,70	22,782
748,89	22,222
749,08	25,714
749,26	20,048
749,45	26,353
749,64	19,107
749,83	17,812
750,02	21,547
750,21	29,326
750,40	31,510
750,59	30,896
750,78	27,811
750,96	24,302
751,15	24,863
751,34	29,581
751,53	30,296
751,72	25,606
751,91	21,918
752,10	18,210
752,29	28,531
752,47	26,966
752,66	27,887
752,85	18,266
753,04	32,492
753,23	15,563
753,42	27,660
753,61	28,758
753,80	24,661
753,98	30,877
754,17	21,779
754,36	33,333
754,55	20,376
754,74	39,306
754,93	28,530
755,12	38,133
755,30	18,006
755,49	25,688
755,68	41,499
755,87	26,727
756,06	29,050
756,25	32,063
756,43	23,103
756,62	36,202
756,81	34,983
757,00	29,855
757,19	27,740
757,38	35,016
757,56	24,839
757,75	32,026
757,94	30,915
758,13	25,649
758,32	28,030
758,51	36,397
758,69	30,400
758,88	34,234
759,07	29,391
759,26	9,767
759,45	48,035
759,63	35,688
759,82	36,700
760,01	25,084
760,20	32,296
760,39	32,463
760,57	44,628
760,76	36,937
760,95	30,556
761,14	23,673
761,33	30,938
761,51	35,125
761,70	46,552
761,89	32,377
762,08	55,349
762,27	43,223
762,45	33,463
762,64	29,670
762,83	43,363
763,02	43,256
763,21	34,483
763,39	39,184
763,58	41,132
763,77	34,363
763,96	62,651
764,14	37,500
764,33	51,648
764,52	58,798
764,71	62,332
764,89	45,588
765,08	43,103
765,27	35,316
765,46	41,304
765,65	25,328
765,83	34,199
766,02	22,128
766,21	53,039
766,40	34,286
766,58	38,618
766,77	36,816
766,96	61,364
767,15	57,005
767,33	39,766
767,52	40,244
767,71	72,609
767,90	32,022
768,08	43,580
768,27	57,000
768,46	48,047
768,64	70,984
768,83	32,812
769,02	49,000
769,21	28,384
769,39	48,256
769,58	45,665
769,77	59,004
769,96	41,885
770,14	42,177
770,33	38,318
770,52	41,799
770,70	66,000
770,89	64,430
771,08	52,542
771,27	73,196
771,45	50,000
771,64	80,208
771,83	63,084
772,01	51,807
772,20	73,367
772,39	12,000
772,57	42,636
772,76	33,333
772,95	63,121
773,14	74,194
773,32	68,387
773,51	56,716
773,70	56,875
773,88	67,760
774,07	49,215
774,26	32,624
774,44	42,073
774,63	55,838
774,82	60,976
775,00	67,333
775,19	50,400
775,38	53,179
775,56	54,687
775,75	71,084
775,94	70,886
776,12	40,331
776,31	43,529
776,50	77,841
776,68	71,579
776,87	60,795
777,06	85,517
777,24	73,333
777,43	66,667
777,62	84,559
777,80	66,216
777,99	49,714
778,18	62,376
778,36	86,400
778,55	69,421
778,74	78,472
778,92	63,905
779,11	79,167
779,29	50,314
779,48	25,850
779,67	48,837
779,85	62,602
780,04	76,757
780,23	55,396
780,41	83,594
780,60	5,789
780,79	64,972
780,97	68,421
781,16	52,727
781,34	86,598
781,53	82,906
781,72	105,109
781,90	63,281
782,09	54,194
782,28	82,482
782,46	65,926
782,65	67,857
782,83	116,854
783,02	77,500
783,21	99,333
783,39	92,174
783,58	68,639
783,76	83,240
783,95	64,848
784,14	89,404
784,32	75,839
784,51	74,138
784,69	93,220
784,88	99,099
785,06	73,109
785,25	80,255
785,44	91,367
785,62	90,714
785,81	128,169
785,99	109,353
786,18	92,568
786,37	50,370
786,55	76,147
786,74	100,658
786,92	60,156
787,11	55,833
787,29	58,209
787,48	76,000
787,67	122,892
787,85	76,724
788,04	72,277
788,22	93,443
788,41	55,294
788,59	121,101
788,78	81,212
788,96	74,528
789,15	137,895
789,34	85,455
789,52	62,832
789,71	82,171
789,89	144,681
790,08	78,767
790,26	41,429
790,45	84,091
790,63	77,778
790,82	96,970
791,00	69,444
791,19	43,011
791,38	100,694
791,56	106,140
791,75	113,761
791,93	101,149
792,12	73,964
792,30	106,400
792,49	81,513
792,67	82,090
792,86	78,295
793,04	79,439
793,23	70,000
793,41	91,139
793,60	79,798
793,78	118,421
793,97	82,051
794,15	87,273
794,34	85,714
794,52	85,714
794,71	127,160
794,89	84,444
795,08	131,068
795,26	95,000
795,45	108,955
795,63	98,485
795,82	92,523
796,00	91,743
796,19	75,000
796,37	86,861
796,56	111,828
796,74	109,735
796,93	102,247
797,11	87,342
797,30	87,500
797,48	100,000
797,67	122,500
797,85	104,082
798,04	82,292
798,22	88,889
798,41	116,667
798,59	117,895
798,77	110,769
798,96	74,194
799,14	127,586
799,33	104,580
799,51	73,846
799,70	73,826
799,88	101,515
800,07	91,447
800,25	55,172
800,44	101,010
800,62	128,235
800,80	108,696
800,99	134,921
801,17	65,517
801,36	91,724
801,54	98,958
801,73	107,071
801,91	94,262
802,10	90,476
802,28	114,953
802,46	80,247
802,65	79,310
802,83	140,449
803,02	125,263
803,20	82,031
803,39	62,069
803,57	65,060
803,75	58,784
803,94	65,546
804,12	70,833
804,31	106,195
804,49	81,731
804,67	82,400
804,86	73,214
805,04	93,919
805,23	86,207
805,41	124,590
805,59	77,049
805,78	87,121
805,96	97,436
806,15	87,500
806,33	98,319
806,51	93,805
806,70	196,667
806,88	100,813
807,07	42,857
807,25	73,585
807,43	90,728
807,62	73,171
807,80	68,817
807,99	108,730
808,17	94,326
808,35	88,596
808,54	116,129
808,72	88,000
808,90	106,579
809,09	113,333
809,27	108,108
809,46	120,536
809,64	78,431
809,82	63,218
810,01	96,970
810,19	91,000
810,37	40,769
810,56	108,537
810,74	93,377
810,92	92,424
811,11	98,039
811,29	84,397
811,48	134,343
811,66	123,256
811,84	104,587
812,03	72,727
812,21	128,205
812,39	77,119
812,58	86,275
812,76	79,439
812,94	127,333
813,13	65,873
813,31	63,333
813,49	164,130
813,68	72,174
813,86	126,531
814,04	102,913
814,23	124,242
814,41	72,794
814,59	79,661
814,78	77,941
814,96	87,387
815,14	124,444
815,33	74,638
815,51	48,889
815,69	109,877
815,87	86,957
816,06	99,375
816,24	100,000
816,42	37,821
816,61	78,814
816,79	118,072
816,97	69,369
817,16	70,968
817,34	91,724
817,52	91,724
817,70	136,508
817,89	57,025
818,07	38,793
818,25	91,892
818,44	80,814
818,62	94,828
818,80	93,007
818,98	100,952
819,17	80,000
819,35	53,529
819,53	93,069
819,72	64,535
819,90	68,263
820,08	38,312
820,26	134,211
820,45	101,807
820,63	77,604
820,81	67,114
820,99	86,466
821,18	41,481
821,36	87,143
821,54	33,721
821,73	56,216
821,91	59,043
822,09	68,824
822,27	66,497
822,46	65,625
822,64	82,119
822,82	59,512
823,00	87,387
823,19	53,030
823,37	82,857
823,55	65,882
823,73	71,333
823,91	61,326
824,10	89,385
824,28	73,333
824,46	55,814
824,64	80,392
824,83	73,171
825,01	44,203
825,19	83,429
825,37	70,312
825,56	73,125
825,74	80,952
825,92	65,169
826,10	80,124
826,28	93,960
826,47	43,902
826,65	62,838
826,83	48,387
827,01	60,606
827,19	60,759
827,38	80,829
827,56	58,173
827,74	39,431
827,92	71,707
828,10	61,413
828,29	61,429
828,47	65,351
828,65	58,919
828,83	56,061
829,01	46,667
829,20	39,873
829,38	49,378
829,56	53,846
829,74	86,364
829,92	54,124
830,10	48,649
830,29	65,405
830,47	51,563
830,65	42,411
830,83	69,714
831,01	39,583
831,20	39,604
831,38	53,659
831,56	38,057
831,74	74,857
831,92	69,318
832,10	71,818
832,29	61,137
832,47	47,788
832,65	75,745
832,83	59,070
833,01	39,130
833,19	51,584
833,37	48,889
833,56	53,991
833,74	66,397
833,92	38,496
834,10	57,868
834,28	51,538
834,46	45,329
834,64	44,922
834,83	36,177
835,01	57,198
835,19	39,336
835,37	52,191
835,55	52,708
835,73	61,765
835,91	62,934
836,09	38,174
836,28	52,290
836,46	35,439
836,64	58,607
836,82	29,104
837,00	37,415
837,18	47,826
837,36	47,594
837,54	31,818
837,72	28,287
837,91	45,382
838,09	44,800
838,27	54,945
838,45	56,634
838,63	31,525
838,81	40,461
838,99	39,373
839,17	53,398
839,35	35,556
839,53	41,946
839,72	33,051
839,90	30,091
840,08	41,026
840,26	44,479
840,44	36,111
840,62	32,323
840,80	33,642
840,98	40,483
841,16	15,658
841,34	32,754
841,52	23,962
841,70	31,650
841,89	46,129
842,07	32,162
842,25	28,896
842,43	34,516
842,61	40,751
842,79	42,988
842,97	16,463
843,15	33,238
843,33	35,392
843,51	32,697
843,69	28,056
843,87	26,954
844,05	36,119
844,23	32,703
844,41	22,111
844,59	34,375
844,77	19,597
844,95	33,738
845,13	30,055
845,31	24,581
845,50	37,887
845,68	29,275
845,86	31,604
846,04	21,235
846,22	37,947
846,40	17,585
846,58	21,448
846,76	11,721
846,94	27,644
847,12	32,227
847,30	23,502
847,48	41,007
847,66	27,317
847,84	20,812
848,02	27,235
848,20	28,035
848,38	25,840
848,56	27,097
848,74	20,248
848,92	18,580
849,10	28,795
849,28	27,887
849,46	21,495
849,64	21,905
849,82	19,712
850,00	19,097
850,18	34,642
850,36	30,482
850,54	20,852
850,72	25,364
850,90	19,951
851,08	13,580
851,26	28,340
851,44	21,285
851,62	24,724
851,80	19,682
851,98	29,424
852,16	25,926
852,34	29,222
852,52	21,670
852,70	11,847
852,87	22,857
853,05	23,848
853,23	22,941
853,41	19,223
853,59	24,151
853,77	19,841
853,95	25,636
854,13	21,165
854,31	24,084
854,49	15,832
854,67	22,180
854,85	23,652
855,03	14,751
855,21	22,504
855,39	20,638
855,57	28,080
855,75	18,887
855,93	21,378
856,11	29,665
856,28	24,306
856,46	17,157
856,64	23,948
856,82	14,834
857,00	21,972
857,18	18,310
857,36	13,445
857,54	17,905
857,72	16,361
857,90	14,003
858,08	15,278
858,26	12,844
858,44	16,149
858,61	18,544
858,79	21,860
858,97	21,633
859,15	16,286
859,33	11,810
859,51	13,578
859,69	14,435
859,87	16,252
860,05	16,318
860,23	9,697
860,40	13,825
860,58	21,839
860,76	19,492
860,94	16,336
861,12	16,856
861,30	19,836
861,48	11,190
861,66	20,951
861,84	18,296
862,01	20,187
862,19	17,209
862,37	17,930
862,55	16,295
862,73	16,984
862,91	13,341
863,09	16,255
863,27	10,864
863,44	11,391
863,62	18,934
863,80	12,361
863,98	17,241
864,16	11,467
864,34	11,948
864,52	11,390
864,69	15,783
864,87	15,614
865,05	12,870
865,23	15,097
865,41	12,872
865,59	13,350
865,76	12,920
865,94	9,469
866,12	11,438
866,30	11,288
866,48	12,469
866,66	14,317
866,83	11,379
867,01	16,168
867,19	16,461
867,37	8,043
867,55	13,721
867,73	12,073
867,90	11,957
868,08	12,963
868,26	9,350
868,44	7,189
868,62	12,539
868,79	6,061
868,97	15,245
869,15	12,208
869,33	5,623
869,51	12,845
869,69	11,053
869,86	11,077
870,04	11,323
870,22	8,637
870,40	12,121
870,57	13,500
870,75	17,529
870,93	14,048
871,11	10,783
871,29	13,313
871,46	10,373
871,64	9,891
871,82	11,610
872,00	8,210
872,18	11,436
872,35	11,319
872,53	11,248
872,71	4,235
872,89	8,156
873,06	11,255
873,24	11,397
873,42	6,900
873,60	6,428
873,77	10,765
873,95	8,918
874,13	7,692
874,31	7,932
874,49	10,462
874,66	9,450
874,84	7,282
875,02	11,310
875,20	6,612
875,37	7,240
875,55	7,282
875,73	6,212
875,91	6,719
876,08	9,395
876,26	8,077
876,44	7,508
876,61	6,183
876,79	8,489
876,97	8,405
877,15	12,595
877,32	8,425
877,50	8,709
877,68	6,143
877,86	8,071
878,03	7,368
878,21	7,153
878,39	7,704
878,56	7,375
878,74	8,315
878,92	7,270
879,10	7,249
879,27	11,442
879,45	8,774
879,63	6,827
879,80	8,770
879,98	6,975
880,16	7,070
880,34	5,334
880,51	8,638
880,69	8,323
880,87	3,093
881,04	7,221
881,22	5,731
881,40	3,766
881,57	6,658
881,75	7,015
881,93	5,793
882,10	4,741
882,28	6,036
882,46	8,262
882,63	7,224
882,81	5,287
882,99	5,607
883,16	7,126
883,34	5,072
883,52	3,157
883,69	8,156
883,87	5,390
884,05	4,255
884,22	6,368
884,40	5,404
884,58	5,251
884,75	2,930
884,93	6,492
885,11	4,897
885,28	6,787
885,46	6,637
885,64	5,236
885,81	5,377
885,99	4,407
886,17	5,072
886,34	5,087
886,52	5,489
886,70	4,957
886,87	7,613
887,05	5,640
887,22	4,818
887,40	5,474
887,58	5,572
887,75	5,484
887,93	5,000
888,11	3,707
888,28	3,177
888,46	4,844
888,63	5,438
888,81	5,566
888,99	3,460
889,16	2,948
889,34	4,583
889,51	5,002
889,69	2,539
889,87	4,511
890,04	1,749
890,22	5,317
890,39	1,769
890,57	4,508
890,75	4,062
890,92	3,255
891,10	6,789
891,27	3,596
891,45	5,000
891,63	5,247
891,80	4,136
891,98	5,355
892,15	3,596
892,33	3,396
892,51	4,908
892,68	3,174
892,86	3,773
893,03	4,566
893,21	5,609
893,38	3,614
893,56	5,567
893,74	4,938
893,91	5,045
894,09	5,052
894,26	4,310
894,44	4,526
894,61	5,711
894,79	3,859
894,96	3,840
895,14	3,321
895,32	4,074
895,49	3,411
895,67	3,503
895,84	4,088
896,02	4,706
896,19	2,889
896,37	6,098
896,54	3,719
896,72	4,237
896,89	5,090
897,07	3,819
897,25	4,992
897,42	3,170
897,60	3,721
897,77	5,563
897,95	4,948
898,12	2,937
898,30	2,460
898,47	3,162
898,65	4,620
898,82	3,466
899,00	4,152
899,17	3,298
899,35	4,378
899,52	2,599
899,70	2,455
899,87	2,686
900,05	4,835
900,22	3,058
900,40	3,098
900,57	3,982
900,75	2,770
900,92	3,666
901,10	4,483
901,27	4,119
901,45	4,030
901,62	3,294
901,80	3,775
901,97	3,512
902,15	4,612
902,32	4,576
902,50	3,707
902,67	1,977
902,85	3,138
903,02	5,276
903,20	3,346
903,37	3,573
903,54	3,997
903,72	3,356
903,89	3,691
904,07	2,902
904,24	2,729
904,42	2,029
904,59	2,239
904,77	2,012
904,94	1,720
905,12	1,616
905,29	3,033
905,47	2,984
905,64	2,884
905,81	3,264
905,99	2,889
906,16	3,945
906,34	3,651
906,51	3,529
906,69	3,074
906,86	3,559
907,03	3,605
907,21	1,741
907,38	2,211
907,56	3,616
907,73	3,795
907,91	4,285
908,08	3,998
908,25	1,890
908,43	2,800
908,60	2,763
908,78	4,167
908,95	2,997
909,13	1,909
909,30	1,125
909,47	2,615
909,65	4,284
909,82	4,499
910,00	2,537
910,17	1,950
910,34	2,771
910,52	1,968
910,69	3,965
910,87	3,776
911,04	2,175
911,21	4,020
911,39	3,847
911,56	2,101
911,73	2,563
911,91	2,498
912,08	3,203
912,26	1,591
912,43	3,201
912,60	2,255
912,78	3,280
912,95	2,542
913,13	2,355
913,30	2,713
913,47	3,034
913,65	2,878
913,82	2,629
913,99	2,732
914,17	2,221
914,34	3,555
914,51	3,882
914,69	3,287
914,86	3,880
915,03	3,451
915,21	2,734
915,38	1,935
915,56	2,472
915,73	2,264
915,90	3,801
916,08	2,951
916,25	1,994
916,42	2,022
916,60	2,885
916,77	2,028
916,94	3,002
917,12	3,944
917,29	2,447
917,46	1,273
917,64	2,072
917,81	2,257
917,98	1,975
918,16	2,565
918,33	1,803
918,50	2,673
918,67	2,215
918,85	2,913
919,02	2,753
919,19	2,676
919,37	1,747
919,54	2,858
919,71	2,898
919,89	1,374
920,06	2,000
920,23	2,450
920,41	3,427
920,58	2,286
920,75	2,879
920,92	2,272
921,10	1,815
921,27	1,622
921,44	3,463
921,62	2,113
921,79	2,733
921,96	2,235
922,13	1,491
922,31	1,847
922,48	1,779
922,65	2,030
922,82	2,272
923,00	2,361
923,17	1,518
923,34	2,738
923,52	1,997
923,69	1,864
923,86	2,296
924,03	2,143
924,21	2,369
924,38	2,934
924,55	3,149
924,72	3,767
924,90	2,253
925,07	2,442
925,24	2,398
925,41	1,911
925,59	2,109
925,76	1,513
925,93	1,475
926,10	2,141
926,28	2,735
926,45	2,389
926,62	2,539
926,79	1,986
926,96	2,378
927,14	2,824
927,31	1,504
927,48	2,348
927,65	2,067
927,83	1,389
928,00	1,740
928,17	2,230
928,34	2,224
928,51	1,640
928,69	1,912
928,86	1,692
929,03	2,775
929,20	2,590
929,37	2,527
929,55	2,677
929,72	2,247
929,89	2,300
930,06	2,024
930,23	2,263
930,41	1,837
930,58	2,158
930,75	2,293
930,92	1,094
931,09	1,834
931,27	2,135
931,44	2,415
931,61	2,189
931,78	1,863
931,95	0,919
932,12	1,941
932,30	2,142
932,47	2,584
932,64	1,578
932,81	1,922
932,98	1,253
933,16	1,475
933,33	1,751
933,50	2,544
933,67	3,287
933,84	1,736
934,01	1,486
934,18	1,992
934,36	2,004
934,53	1,016
934,70	2,090
934,87	2,279
935,04	2,149
935,21	1,181
935,38	2,132
935,56	1,513
935,73	1,690
935,90	0,884
936,07	1,624
936,24	2,143
936,41	2,195
936,58	0,496
936,76	2,193
936,93	1,013
937,10	1,676
937,27	1,539
937,44	2,135
937,61	2,422
937,78	1,745
937,95	1,957
938,13	1,141
938,30	1,834
938,47	1,845
938,64	1,929
938,81	2,075
938,98	2,119
939,15	1,678
939,32	1,501
939,49	2,108
939,66	1,750
939,84	2,627
940,01	2,762
940,18	1,972
940,35	1,398
940,52	1,078
940,69	2,808
940,86	1,491
941,03	1,822
941,20	2,362
941,37	2,613
941,54	0,791
941,71	0,277
941,89	2,120
942,06	0,993
942,23	1,800
942,40	2,365
942,57	1,987
942,74	1,529
942,91	0,909
943,08	2,313
943,25	1,038
943,42	1,682
943,59	2,317
943,76	2,740
943,93	1,932
944,10	0,974
944,27	2,056
944,44	2,545
944,61	1,359
944,79	1,029
944,96	2,893
945,13	1,974
945,30	0,594
945,47	2,685
945,64	2,537
945,81	2,870
945,98	2,815
946,15	2,141
946,32	2,091
946,49	2,497
946,66	3,005
946,83	2,654
947,00	2,120
947,17	2,341
947,34	2,366
947,51	2,159
947,68	3,401
947,85	1,289
948,02	2,831
948,19	3,938
948,36	1,804
948,53	3,005
948,70	3,781
948,87	3,253
949,04	2,269
949,21	2,451
949,38	2,936
949,55	2,332
949,72	3,260
949,89	3,203
950,06	1,506
950,23	4,470
950,40	4,084
950,57	2,981
950,74	3,731
950,91	3,541
951,08	2,730
951,25	2,792
951,42	4,806
951,59	2,681
951,76	3,983
951,93	4,000
952,10	3,018
952,27	3,189
952,44	2,193
952,61	2,455
952,77	2,301
952,94	5,768
953,11	5,898
953,28	5,026
953,45	4,327
953,62	3,277
953,79	3,539
953,96	5,550
954,13	3,777
954,30	6,256
954,47	5,463
954,64	4,258
954,81	2,753
954,98	4,576
955,15	5,590
955,32	4,527
955,49	4,020
955,65	6,099
955,82	7,036
955,99	7,553
956,16	8,607
956,33	5,927
956,50	6,745
956,67	7,073
956,84	5,926
957,01	6,864
957,18	6,761
957,35	4,736
957,52	6,628
957,68	8,500
957,85	9,702
958,02	8,786
958,19	9,138
958,36	13,475
958,53	11,060
958,70	9,412
958,87	9,687
959,04	11,953
959,21	14,747
959,37	12,987
959,54	13,120
959,71	10,588
959,88	8,562
960,05	10,817
960,22	6,272
960,39	8,000
960,56	8,734
960,72	11,418
960,89	19,011
961,06	12,994
961,23	17,176
961,40	15,152
961,57	14,265
961,74	13,133
961,90	17,344
962,07	15,221
962,24	18,537
962,41	13,735
962,58	19,105
962,75	18,584
962,92	22,056
963,08	16,909
963,25	13,153
963,42	15,459
963,59	19,421
963,76	22,022
963,93	20,824
964,10	23,983
964,26	26,316
964,43	21,447
964,60	21,503
964,77	32,289
964,94	21,023
965,10	26,190
965,27	34,726
965,44	27,792
965,61	28,375
965,78	22,364
965,95	37,126
966,11	35,294
966,28	40,520
966,45	38,006
966,62	33,846
966,79	35,510
966,95	37,015
967,12	29,022
967,29	28,819
967,46	35,985
967,63	38,113
967,79	56,757
967,96	52,381
968,13	24,000
968,30	43,952
968,47	46,048
968,63	56,306
968,80	56,422
968,97	64,904
969,14	50,000
969,31	59,444
969,47	57,647
969,64	61,111
969,81	55,440
969,98	65,385
970,14	55,828
970,31	55,346
970,48	35,833
970,65	58,580
970,81	59,589
970,98	91,971
971,15	98,980
971,32	71,094
971,48	112,925
971,65	58,462
971,82	75,490
971,99	98,851
972,15	92,254
972,32	103,604
972,49	93,706
972,66	128,182
972,82	110,465
972,99	97,561
973,16	78,161
973,33	75,893
973,49	106,316
973,66	106,452
973,83	97,087
974,00	126,744
974,16	137,255
974,33	80,702
974,50	67,368
974,67	130,526
974,83	115,476
975,00	109,474
975,17	90,110
975,33	97,753
975,50	195,522
975,67	222,449
975,84	161,194
976,00	150,562
976,17	132,787
976,34	78,000
976,50	152,809
976,67	100,971
976,84	3200,000
977,00	191,837
977,17	135,556
977,34	193,407
977,50	140,299
977,67	203,571
977,84	206,452
978,01	170,213
978,17	600,000
978,34	225,000
978,51	258,824
978,67	173,684
978,84	96,094
979,01	400,000
979,17	189,744
979,34	132,877
979,51	244,898
979,67	177,778
979,84	214,286
980,01	288,889
980,17	253,521
980,34	344,444
980,51	173,913
980,67	147,059
980,84	380,000
981,01	635,000
981,17	568,000
981,34	1111,111
981,50	225,000
981,67	247,458
981,84	4900,000
982,00	340,000
982,17	228,571
982,34	178,889
982,50	466,667
982,67	178,125
982,84	2540,000
983,00	766,667
983,17	182,090
983,33	148,276
983,50	1820,000
983,67	-248,276
983,83	360,606
984,00	-1685,714
984,17	622,222
984,33	-5900,000
984,50	371,429
984,66	417,391
984,83	138,961
985,00	-416,667
985,16	531,034
985,33	741,176
985,49	555,556
985,66	420,588
985,83	265,217
985,99	343,590
986,16	-2475,000
986,32	771,429
986,49	8500,000
986,66	427,273
986,82	941,667
986,99	243,396
987,15	-426,316
987,32	-117,857
987,49	198,000
987,65	5800,000
987,82	300,000
987,98	291,837
988,15	376,667
988,31	1010,000
988,48	-1816,667
988,65	307,143
988,81	397,222
988,98	314,634
989,14	304,762
989,31	500,000
989,47	358,824
989,64	-892,308
989,80	518,750
989,97	413,514
990,14	-226,087
990,30	-181,818
990,47	273,469
990,63	361,111
990,80	172,000
990,96	-400,000
991,13	356,250
991,29	413,793
991,46	0,000
991,62	-807,692
991,79	925,000
991,95	11700,000
992,12	-1040,000
992,29	-593,750
992,45	175,294
992,62	306,977
992,78	256,818
992,95	-666,667
993,11	510,714
993,28	1380,000
993,44	-980,000
993,61	-581,250
993,77	-1925,000
993,94	-4333,333
994,10	-117,333
994,27	805,263
994,43	362,791
994,60	0,000
994,76	3975,000
994,93	440,000
995,09	-664,706
995,26	1155,556
995,42	276,471
995,59	566,667
995,75	907,692
995,92	2157,143
996,08	380,556
996,25	-962,500
996,41	-6200,000
996,58	586,667
996,74	272,727
996,91	455,172
997,07	0,000
997,23	11400,000
997,40	-14800,000
997,56	-1015,385
997,73	-837,500
997,89	323,684
998,06	907,692
998,22	-472,222
998,39	596,000
998,55	1588,889
998,72	-1562,500
998,88	-193,333
999,05	-97,436
999,21	423,810
999,37	-526,667
999,54	-800,000
999,70	-323,333
999,87	831,250
1000,03	374,359
1000,20	239,583
1000,36	0,000
1000,52	516,667
1000,69	-395,238
1000,85	-1220,000
1001,02	-320,833
1001,18	1775,000
1001,35	961,538
1001,51	594,118
1001,67	-892,308
1001,84	-1580,000
1002,00	318,919
1002,17	918,182
1002,33	-2025,000
1002,50	452,381
1002,66	-646,154
1002,82	342,500
1002,99	828,571
1003,15	-1442,857
1003,32	-1036,364
1003,48	410,714
1003,64	773,333
1003,81	470,370
1003,97	-5550,000
1004,14	1036,364
1004,30	313,333
1004,46	-640,000
1004,63	1000,000
1004,79	308,333
1004,95	913,333
1005,12	5900,000
1005,28	637,931
1005,45	335,135
1005,61	368,966
1005,77	-229,167
1005,94	-228,571
1006,10	-6000,000
1006,26	884,615
1006,43	-465,385
1006,59	-1127,273
1006,76	907,143
1006,92	1300,000
1007,08	7900,000
1007,25	-340,741
1007,41	572,414
1007,57	3550,000
1007,74	990,000
1007,90	-389,655
1008,06	197,826
1008,23	770,588
1008,39	-325,000
1008,55	-430,769
1008,72	-1814,286
1008,88	0,000
1009,04	280,488
1009,21	-226,316
1009,37	-758,333
1009,53	264,286
1009,70	2633,333
1009,86	-621,429
1010,02	3000,000
1010,19	809,091
1010,35	230,882
1010,51	-4800,000
1010,68	-1612,500
1010,84	-211,364
1011,00	643,750
1011,17	-422,727
1011,33	0,000
1011,49	-926,667
1011,66	800,000
1011,82	412,903
1011,98	750,000
1012,14	-727,273
1012,31	433,333
1012,47	0,000
1012,63	1933,333
1012,80	735,714
1012,96	-693,750
1013,12	-1500,000
1013,29	761,111
1013,45	326,829
1013,61	5166,667
1013,77	-155,357
1013,94	2040,000
1014,10	186,441
1014,26	-2375,000
1014,43	-320,000
1014,59	605,000
1014,75	-405,556
1014,91	-680,000
1015,08	208,333
1015,24	10400,000
1015,40	547,059
1015,56	-10300,000
1015,73	257,143
1015,89	945,455
1016,05	3550,000
1016,21	-1400,000
1016,38	747,368
1016,54	1130,769
1016,70	-3766,667
1016,86	409,375
1017,03	918,750
1017,19	-669,231
1017,35	-641,176
1017,51	-2140,000
1017,68	-690,000
1017,84	-1371,429
1018,00	300,000
1018,16	557,692
1018,33	-1400,000
1018,49	-983,333
1018,65	-264,865
1018,81	266,667
1018,97	-1200,000
1019,14	-3400,000
1019,30	-323,077
1019,46	0,000
1019,62	-294,118
1019,79	-4000,000
1019,95	1133,333
1020,11	6850,000
1020,27	-381,481
1020,43	-415,385
1020,60	1800,000
1020,76	844,444
1020,92	726,667
1021,08	770,000
1021,24	1060,000
1021,41	1122,222
1021,57	1662,500
1021,73	800,000
1021,89	2280,000
1022,05	-367,857
1022,21	675,000
1022,38	-625,000
1022,54	-2566,667
1022,70	297,778
1022,86	-1637,500
1023,02	508,333
1023,19	2720,000
1023,35	3366,667
1023,51	483,333
1023,67	388,889
1023,83	-550,000
1023,99	389,474
1024,16	-415,385
1024,32	-1088,889
1024,48	-990,000
1024,64	314,286
1024,80	313,043
1024,96	348,718
1025,12	571,429
1025,29	461,905
1025,45	363,158
1025,61	700,000
1025,77	-2040,000
1025,93	-7400,000
1026,09	-1557,143
1026,26	775,000
1026,42	718,750
1026,58	409,091
1026,74	1933,333
1026,90	376,000
1027,06	328,571
1027,22	950,000
1027,38	248,077
1027,55	3500,000
1027,71	1633,333
1027,87	-260,000
1028,03	1290,000
1028,19	403,125
1028,35	725,000
1028,51	1760,000
1028,67	875,000
1028,83	-1625,000
1029,00	-276,190
1029,16	970,000
1029,32	-296,429
1029,48	222,222
1029,64	291,667
1029,80	4500,000
1029,96	526,667
1030,12	569,565
1030,28	-3333,333
1030,44	-661,538
1030,61	-308,333
1030,77	-154,286
1030,93	-500,000
1031,09	2166,667
1031,25	-6300,000
1031,41	-220,000
1031,57	350,000
1031,73	818,750
1031,89	-1363,636
1032,05	-414,815
1032,21	918,182
1032,37	-148,148
1032,53	-985,714
1032,69	-450,000
1032,86	370,370
1033,02	-292,500
1033,18	-668,750
1033,34	478,947
1033,50	-5100,000
1033,66	-190,244
1033,82	600,000
1033,98	-392,593
1034,14	162,821
1034,30	309,677
1034,46	-3033,333
1034,62	675,000
1034,78	-604,762
1034,94	186,842
1035,10	-484,615
1035,26	-155,814
1035,42	-137,931
1035,58	-511,111
1035,74	791,667
1035,90	-784,615
1036,06	-1516,667
1036,22	1083,333
1036,38	-735,294
1036,54	-583,333
1036,70	-209,091
1036,86	8500,000
1037,02	411,111
1037,18	826,316
1037,34	136,190
1037,50	-204,878
1037,66	-582,353
1037,82	2640,000
1037,98	-492,593
1038,14	-376,000
1038,30	-1325,000
1038,46	-592,857
1038,62	534,783
1038,78	-3000,000
1038,94	-542,105
1039,10	350,000
1039,26	440,741
1039,42	-741,667
1039,58	1014,286
1039,74	-536,842
1039,90	412,500
1040,06	-423,077
>>>>>End Processed Spectral Data<<<<<
