SpectraSuite Data File
++++++++++++++++++++++++++++++++++++
Date: Wed Feb 01 15:54:15 EET 2017
User: optolab
Dark Spectrum Present: Yes
Reference Spectrum Present: Yes
Number of Sampled Component Spectra: 1
Spectrometers: USB4C02475
Integration Time (usec): 100000 (USB4C02475)
Spectra Averaged: 1 (USB4C02475)
Boxcar Smoothing: 0 (USB4C02475)
Correct for Electrical Dark: No (USB4C02475)
Strobe/Lamp Enabled: No (USB4C02475)
Correct for Detector Non-linearity: No (USB4C02475)
Correct for Stray Light: No (USB4C02475)
Number of Pixels in Processed Spectrum: 3648
>>>>>Begin Processed Spectral Data<<<<<
344,91	4850,000
345,13	4850,000
345,35	4850,000
345,57	0,000
345,79	394,737
346,00	-1511,111
346,22	-1900,000
346,44	405,882
346,66	-612,500
346,87	-6700,000
347,09	381,818
347,31	-231,818
347,53	-323,077
347,74	236,923
347,96	478,788
348,18	542,105
348,40	393,548
348,61	1170,588
348,83	347,619
349,05	184,314
349,27	-4200,000
349,48	646,154
349,70	-375,862
349,92	422,581
350,14	237,736
350,35	312,000
350,57	2875,000
350,79	552,000
351,01	-900,000
351,22	229,630
351,44	815,385
351,66	-460,000
351,87	-480,952
352,09	244,231
352,31	244,262
352,53	251,563
352,74	433,333
352,96	251,948
353,18	742,105
353,40	296,000
353,61	253,333
353,83	429,412
354,05	1127,273
354,26	1950,000
354,48	248,000
354,70	236,364
354,92	-289,655
355,13	208,081
355,35	352,273
355,57	687,500
355,78	172,289
356,00	-3150,000
356,22	319,231
356,44	6900,000
356,65	340,909
356,87	480,769
357,09	487,500
357,30	240,000
357,52	298,276
357,74	770,000
357,95	356,410
358,17	173,770
358,39	229,032
358,60	497,297
358,82	466,667
359,04	470,370
359,26	434,286
359,47	9500,000
359,69	302,500
359,91	518,182
360,12	666,667
360,34	575,000
360,56	-170,370
360,77	3025,000
360,99	785,714
361,21	282,000
361,42	5700,000
361,64	244,898
361,86	241,538
362,07	-577,419
362,29	185,333
362,51	-705,882
362,72	500,000
362,94	385,294
363,16	272,093
363,37	-757,143
363,59	592,308
363,81	361,364
364,02	800,000
364,24	562,500
364,46	3300,000
364,67	1054,545
364,89	2028,571
365,11	235,714
365,32	379,310
365,54	311,111
365,76	318,367
365,97	370,588
366,19	148,276
366,41	618,182
366,62	307,407
366,84	227,907
367,05	302,041
367,27	1266,667
367,49	-830,769
367,70	623,529
367,92	329,508
368,14	233,333
368,35	-8500,000
368,57	476,000
368,79	420,690
369,00	302,174
369,22	-1375,000
369,43	209,412
369,65	308,065
369,87	381,081
370,08	181,928
370,30	308,929
370,51	252,459
370,73	248,889
370,95	206,452
371,16	278,571
371,38	343,333
371,60	1725,000
371,81	175,000
372,03	840,000
372,24	380,000
372,46	200,000
372,68	182,857
372,89	369,697
373,11	376,923
373,32	261,364
373,54	-661,538
373,76	1084,615
373,97	573,333
374,19	490,909
374,40	309,375
374,62	-4100,000
374,84	4050,000
375,05	485,714
375,27	278,000
375,48	-11700,000
375,70	164,000
375,92	255,357
376,13	431,250
376,35	193,151
376,56	793,750
376,78	225,000
376,99	435,714
377,21	231,250
377,43	236,364
377,64	195,652
377,86	475,862
378,07	335,897
378,29	-1262,500
378,51	435,484
378,72	314,583
378,94	-977,778
379,15	309,091
379,37	652,941
379,58	172,308
379,80	760,000
380,01	968,750
380,23	317,647
380,45	2320,000
380,66	3900,000
380,88	236,364
381,09	258,571
381,31	186,667
381,52	205,882
381,74	1111,111
381,95	550,000
382,17	469,231
382,39	523,810
382,60	169,388
382,82	315,385
383,03	269,231
383,25	296,774
383,46	340,909
383,68	492,593
383,89	495,000
384,11	496,774
384,32	-2933,333
384,54	516,667
384,76	-3066,667
384,97	351,515
385,19	358,621
385,40	300,000
385,62	210,526
385,83	264,286
386,05	272,549
386,26	314,000
386,48	195,402
386,69	206,250
386,91	450,000
387,12	189,831
387,34	236,207
387,55	235,484
387,77	415,625
387,98	519,231
388,20	172,826
388,41	323,529
388,63	8800,000
388,84	242,623
389,06	328,571
389,27	626,316
389,49	336,111
389,70	271,429
389,92	286,667
390,13	197,959
390,35	307,843
390,56	251,852
390,78	514,815
390,99	770,000
391,21	500,000
391,42	277,778
391,64	260,976
391,85	255,172
392,07	170,455
392,28	158,667
392,50	287,879
392,71	-1037,500
392,93	211,538
393,14	444,444
393,36	291,837
393,57	144,361
393,79	1033,333
394,00	400,000
394,22	145,205
394,43	209,639
394,65	237,209
394,86	1037,500
395,08	642,857
395,29	226,415
395,50	376,923
395,72	661,111
395,93	828,571
396,15	204,225
396,36	180,882
396,58	280,000
396,79	230,000
397,01	238,000
397,22	263,889
397,44	181,818
397,65	221,053
397,87	269,048
398,08	228,571
398,29	371,875
398,51	194,643
398,72	251,220
398,94	233,846
399,15	385,714
399,37	187,719
399,58	186,813
399,80	513,636
400,01	205,556
400,22	276,190
400,44	186,420
400,65	439,286
400,87	200,000
401,08	112,857
401,30	302,174
401,51	182,456
401,72	373,077
401,94	184,810
402,15	540,000
402,37	161,345
402,58	683,333
402,80	194,286
403,01	205,634
403,22	909,091
403,44	243,478
403,65	214,286
403,87	174,286
404,08	389,744
404,30	149,412
404,51	-2366,667
404,72	178,571
404,94	116,667
405,15	146,000
405,37	202,532
405,58	167,059
405,79	178,049
406,01	273,171
406,22	210,345
406,44	221,277
406,65	198,246
406,86	145,833
407,08	96,203
407,29	118,447
407,51	142,683
407,72	156,481
407,93	161,957
408,15	114,530
408,36	262,791
408,58	147,423
408,79	86,667
409,00	145,833
409,22	203,175
409,43	116,456
409,64	93,168
409,86	105,031
410,07	91,538
410,29	91,045
410,50	107,801
410,71	86,607
410,93	68,790
411,14	104,651
411,35	100,595
411,57	69,737
411,78	93,750
412,00	97,452
412,21	85,161
412,42	90,476
412,64	71,674
412,85	66,495
413,06	60,366
413,28	61,712
413,49	72,512
413,70	63,406
413,92	65,217
414,13	61,826
414,34	60,920
414,56	56,294
414,77	108,439
414,98	71,812
415,20	62,630
415,41	63,456
415,63	71,642
415,84	62,222
416,05	67,308
416,27	66,150
416,48	62,360
416,69	71,018
416,91	61,081
417,12	81,283
417,33	74,526
417,55	68,209
417,76	78,439
417,97	78,631
418,19	65,805
418,40	86,170
418,61	81,667
418,83	85,818
419,04	86,278
419,25	91,589
419,46	93,684
419,68	109,524
419,89	99,255
420,10	101,361
420,32	97,758
420,53	102,408
420,74	105,210
420,96	105,000
421,17	97,921
421,38	94,124
421,60	99,227
421,81	105,353
422,02	98,642
422,23	95,775
422,45	89,604
422,66	88,358
422,87	92,066
423,09	92,295
423,30	93,487
423,51	96,299
423,73	94,524
423,94	92,087
424,15	91,565
424,36	97,890
424,58	93,562
424,79	88,445
425,00	97,523
425,22	95,060
425,43	93,096
425,64	88,441
425,85	86,779
426,07	91,965
426,28	89,758
426,49	91,564
426,71	89,647
426,92	85,885
427,13	84,659
427,34	87,817
427,56	89,920
427,77	85,725
427,98	87,413
428,19	87,930
428,41	87,546
428,62	88,581
428,83	86,949
429,04	88,196
429,26	92,431
429,47	89,385
429,68	91,525
429,89	89,615
430,11	89,968
430,32	91,626
430,53	90,820
430,74	90,632
430,96	91,353
431,17	91,923
431,38	91,917
431,59	89,856
431,81	93,512
432,02	90,650
432,23	91,639
432,44	90,223
432,66	89,392
432,87	91,868
433,08	89,111
433,29	89,786
433,51	87,793
433,72	92,272
433,93	89,035
434,14	88,184
434,35	93,330
434,57	90,461
434,78	94,047
434,99	92,294
435,20	90,505
435,42	89,600
435,63	89,884
435,84	92,633
436,05	87,930
436,26	87,361
436,48	87,117
436,69	87,608
436,90	86,830
437,11	82,996
437,32	83,268
437,54	82,514
437,75	80,360
437,96	78,777
438,17	78,333
438,38	77,883
438,60	78,989
438,81	77,213
439,02	78,517
439,23	74,842
439,44	73,758
439,66	75,031
439,87	74,000
440,08	74,735
440,29	74,562
440,50	73,393
440,72	74,114
440,93	74,698
441,14	73,978
441,35	74,697
441,56	73,508
441,77	74,617
441,99	75,252
442,20	75,932
442,41	74,783
442,62	76,680
442,83	77,349
443,04	77,149
443,26	78,492
443,47	78,493
443,68	77,881
443,89	77,340
444,10	77,558
444,31	77,614
444,53	74,778
444,74	74,209
444,95	71,950
445,16	70,193
445,37	66,975
445,58	65,458
445,80	63,038
446,01	60,112
446,22	58,249
446,43	54,347
446,64	50,861
446,85	48,644
447,06	44,477
447,28	40,358
447,49	37,740
447,70	34,802
447,91	31,749
448,12	28,383
448,33	25,663
448,54	22,848
448,76	21,193
448,97	19,143
449,18	16,908
449,39	15,747
449,60	13,884
449,81	12,239
450,02	10,671
450,23	8,936
450,45	7,518
450,66	6,329
450,87	5,246
451,08	3,877
451,29	3,313
451,50	2,333
451,71	1,935
451,92	1,548
452,13	0,955
452,35	1,466
452,56	1,293
452,77	1,309
452,98	1,121
453,19	0,943
453,40	0,633
453,61	1,201
453,82	0,834
454,03	1,111
454,25	1,264
454,46	1,254
454,67	1,316
454,88	1,156
455,09	1,068
455,30	1,015
455,51	0,953
455,72	1,106
455,93	0,966
456,14	1,009
456,35	1,332
456,56	1,012
456,78	0,937
456,99	1,055
457,20	1,190
457,41	0,936
457,62	1,103
457,83	0,850
458,04	1,017
458,25	0,825
458,46	0,846
458,67	1,106
458,88	1,063
459,09	0,783
459,30	0,762
459,51	0,749
459,73	0,735
459,94	1,017
460,15	0,840
460,36	0,587
460,57	0,668
460,78	0,683
460,99	0,635
461,20	0,680
461,41	0,592
461,62	0,620
461,83	0,781
462,04	0,743
462,25	0,776
462,46	0,662
462,67	0,457
462,88	0,775
463,09	0,647
463,30	0,729
463,51	0,655
463,72	0,807
463,93	0,612
464,15	0,518
464,36	0,676
464,57	0,627
464,78	0,604
464,99	0,644
465,20	0,555
465,41	0,615
465,62	0,689
465,83	0,525
466,04	0,751
466,25	0,529
466,46	0,571
466,67	0,602
466,88	0,526
467,09	0,669
467,30	0,400
467,51	0,695
467,72	0,508
467,93	0,685
468,14	0,572
468,35	0,577
468,56	0,527
468,77	0,719
468,98	0,698
469,19	0,575
469,40	0,621
469,61	0,654
469,82	0,493
470,03	0,536
470,24	0,807
470,45	0,710
470,66	0,690
470,87	0,574
471,08	0,712
471,29	0,609
471,50	0,659
471,71	0,660
471,92	0,841
472,13	0,632
472,34	0,731
472,55	0,821
472,76	0,808
472,97	0,693
473,18	0,622
473,39	0,767
473,60	0,808
473,81	0,680
474,01	0,854
474,22	0,760
474,43	1,005
474,64	0,694
474,85	0,682
475,06	0,728
475,27	0,905
475,48	0,726
475,69	0,675
475,90	0,773
476,11	0,886
476,32	0,744
476,53	1,008
476,74	0,922
476,95	0,938
477,16	0,898
477,37	0,794
477,58	0,951
477,79	1,085
478,00	0,945
478,21	0,759
478,41	1,062
478,62	0,750
478,83	1,133
479,04	1,240
479,25	0,924
479,46	1,021
479,67	1,193
479,88	1,301
480,09	1,080
480,30	1,705
480,51	1,805
480,72	1,914
480,93	2,711
481,14	2,869
481,34	3,805
481,55	4,645
481,76	5,718
481,97	6,657
482,18	7,903
482,39	9,699
482,60	10,879
482,81	12,782
483,02	14,652
483,23	17,097
483,44	18,975
483,65	21,466
483,85	24,104
484,06	26,545
484,27	29,407
484,48	32,289
484,69	34,364
484,90	37,002
485,11	40,287
485,32	42,055
485,53	45,434
485,73	48,552
485,94	51,664
486,15	55,404
486,36	57,979
486,57	60,827
486,78	63,154
486,99	66,274
487,20	68,204
487,41	70,616
487,61	71,401
487,82	73,461
488,03	74,807
488,24	75,547
488,45	76,450
488,66	77,277
488,87	78,468
489,08	78,178
489,28	78,674
489,49	79,531
489,70	79,202
489,91	79,196
490,12	79,544
490,33	78,845
490,54	79,517
490,74	79,306
490,95	77,425
491,16	77,906
491,37	76,982
491,58	76,485
491,79	76,843
492,00	77,625
492,20	77,199
492,41	77,747
492,62	77,738
492,83	79,529
493,04	80,062
493,25	81,047
493,45	82,025
493,66	82,421
493,87	83,936
494,08	84,137
494,29	84,843
494,50	86,256
494,70	86,913
494,91	88,193
495,12	88,319
495,33	89,429
495,54	88,897
495,75	88,911
495,95	89,414
496,16	89,579
496,37	90,246
496,58	90,144
496,79	89,941
496,99	89,996
497,20	90,427
497,41	89,841
497,62	89,754
497,83	89,472
498,04	87,455
498,24	88,586
498,45	88,536
498,66	88,418
498,87	88,772
499,08	88,646
499,28	90,371
499,49	89,339
499,70	89,457
499,91	89,887
500,12	89,739
500,32	90,292
500,53	91,414
500,74	90,782
500,95	91,063
501,15	91,420
501,36	92,172
501,57	92,927
501,78	92,515
501,99	91,598
502,19	91,832
502,40	91,332
502,61	91,241
502,82	91,559
503,02	91,182
503,23	90,835
503,44	91,608
503,65	90,426
503,86	90,146
504,06	90,226
504,27	90,095
504,48	90,501
504,69	90,690
504,89	89,137
505,10	90,145
505,31	91,577
505,52	91,155
505,72	91,838
505,93	91,739
506,14	92,045
506,35	92,009
506,55	90,958
506,76	90,772
506,97	91,659
507,18	91,766
507,38	91,958
507,59	90,768
507,80	90,353
508,01	89,707
508,21	88,799
508,42	88,795
508,63	88,274
508,84	88,278
509,04	88,034
509,25	87,722
509,46	86,335
509,67	86,467
509,87	86,518
510,08	87,542
510,29	86,886
510,49	86,534
510,70	87,288
510,91	87,201
511,12	86,704
511,32	87,009
511,53	86,725
511,74	86,043
511,94	85,982
512,15	84,542
512,36	85,534
512,57	85,319
512,77	85,683
512,98	84,633
513,19	84,273
513,39	83,645
513,60	83,484
513,81	83,863
514,01	82,871
514,22	83,237
514,43	82,602
514,64	82,773
514,84	82,883
515,05	83,062
515,26	83,600
515,46	84,888
515,67	84,528
515,88	85,461
516,08	87,114
516,29	86,874
516,50	87,657
516,70	89,105
516,91	89,088
517,12	90,485
517,32	91,262
517,53	90,806
517,74	91,812
517,95	92,220
518,15	92,118
518,36	92,432
518,57	92,444
518,77	93,119
518,98	92,601
519,19	91,260
519,39	91,976
519,60	91,258
519,80	90,856
520,01	90,222
520,22	89,100
520,42	88,371
520,63	86,807
520,84	85,265
521,04	83,836
521,25	82,112
521,46	80,197
521,66	79,333
521,87	77,337
522,08	74,959
522,28	73,337
522,49	71,515
522,70	69,651
522,90	67,718
523,11	66,153
523,31	63,888
523,52	62,289
523,73	60,388
523,93	58,366
524,14	56,836
524,35	54,479
524,55	53,330
524,76	51,383
524,97	49,246
525,17	48,671
525,38	46,907
525,58	45,553
525,79	43,597
526,00	42,530
526,20	40,750
526,41	39,341
526,61	38,676
526,82	36,230
527,03	34,519
527,23	33,113
527,44	30,577
527,64	29,509
527,85	26,711
528,06	25,076
528,26	23,085
528,47	20,420
528,68	18,086
528,88	16,000
529,09	13,405
529,29	11,735
529,50	9,758
529,70	7,991
529,91	6,081
530,12	4,947
530,32	3,563
530,53	3,078
530,73	2,591
530,94	2,082
531,15	1,804
531,35	1,271
531,56	1,225
531,76	1,121
531,97	1,089
532,17	0,929
532,38	0,895
532,59	0,914
532,79	0,955
533,00	0,961
533,20	0,893
533,41	0,719
533,61	0,944
533,82	0,942
534,03	0,698
534,23	1,098
534,44	0,842
534,64	0,852
534,85	0,939
535,05	0,869
535,26	0,718
535,46	0,888
535,67	0,777
535,88	0,739
536,08	0,740
536,29	0,874
536,49	0,984
536,70	0,885
536,90	0,933
537,11	0,931
537,31	0,764
537,52	0,766
537,72	0,853
537,93	0,921
538,13	0,797
538,34	1,047
538,55	0,817
538,75	0,732
538,96	1,010
539,16	0,795
539,37	0,846
539,57	0,649
539,78	0,935
539,98	0,853
540,19	0,836
540,39	0,722
540,60	0,915
540,80	0,891
541,01	0,694
541,21	0,912
541,42	0,935
541,62	0,817
541,83	0,859
542,03	0,892
542,24	0,676
542,44	0,951
542,65	0,788
542,85	1,019
543,06	0,832
543,26	0,675
543,47	0,709
543,67	0,886
543,88	0,991
544,08	0,694
544,29	0,912
544,49	0,810
544,70	0,941
544,90	0,885
545,11	0,711
545,31	0,964
545,52	0,719
545,72	0,905
545,93	0,500
546,13	1,042
546,34	0,642
546,54	0,819
546,75	0,827
546,95	0,820
547,15	0,810
547,36	0,850
547,56	1,063
547,77	0,876
547,97	0,761
548,18	0,780
548,38	0,948
548,59	0,833
548,79	0,762
549,00	0,710
549,20	0,792
549,41	0,814
549,61	0,704
549,81	0,758
550,02	0,904
550,22	0,929
550,43	0,748
550,63	0,885
550,84	0,738
551,04	0,754
551,25	0,959
551,45	0,936
551,65	0,890
551,86	0,986
552,06	0,763
552,27	0,818
552,47	0,888
552,68	0,940
552,88	0,690
553,08	0,818
553,29	0,939
553,49	0,862
553,70	0,862
553,90	0,835
554,11	0,818
554,31	0,938
554,51	1,035
554,72	1,004
554,92	1,447
555,13	1,268
555,33	1,363
555,53	1,511
555,74	1,625
555,94	1,803
556,15	1,982
556,35	2,465
556,56	3,104
556,76	3,541
556,96	4,022
557,17	5,190
557,37	6,242
557,58	7,782
557,78	8,957
557,98	10,960
558,19	13,000
558,39	15,594
558,59	18,034
558,80	21,054
559,00	23,966
559,21	27,260
559,41	31,410
559,61	34,651
559,82	39,115
560,02	43,100
560,23	46,361
560,43	50,910
560,63	53,586
560,84	56,646
561,04	59,715
561,24	60,817
561,45	63,529
561,65	65,567
561,85	66,226
562,06	67,364
562,26	68,341
562,47	69,250
562,67	70,015
562,87	70,580
563,08	70,618
563,28	70,126
563,48	70,938
563,69	71,185
563,89	72,658
564,09	73,862
564,30	74,418
564,50	76,118
564,70	78,440
564,91	79,288
565,11	80,315
565,31	81,910
565,52	83,180
565,72	85,453
565,92	86,698
566,13	87,741
566,33	88,374
566,53	89,839
566,74	90,506
566,94	89,596
567,14	90,302
567,35	89,270
567,55	89,753
567,75	90,657
567,96	89,565
568,16	89,070
568,36	88,607
568,57	89,060
568,77	88,668
568,97	87,957
569,18	88,159
569,38	89,666
569,58	87,846
569,79	88,814
569,99	89,111
570,19	89,286
570,39	90,495
570,60	89,302
570,80	89,825
571,00	91,102
571,21	90,184
571,41	91,750
571,61	92,402
571,82	93,050
572,02	92,193
572,22	93,407
572,42	93,790
572,63	92,950
572,83	94,422
573,03	94,701
573,24	95,100
573,44	94,885
573,64	94,574
573,84	95,011
574,05	95,859
574,25	96,645
574,45	94,889
574,66	94,824
574,86	95,849
575,06	94,588
575,26	94,948
575,47	95,207
575,67	94,997
575,87	97,069
576,07	95,589
576,28	95,911
576,48	95,408
576,68	94,720
576,88	93,430
577,09	95,071
577,29	94,106
577,49	95,958
577,69	94,544
577,90	93,992
578,10	94,000
578,30	93,718
578,50	94,508
578,71	94,748
578,91	94,401
579,11	95,424
579,31	94,412
579,52	96,029
579,72	93,947
579,92	93,031
580,12	94,654
580,33	95,227
580,53	94,392
580,73	95,294
580,93	94,489
581,13	95,114
581,34	94,828
581,54	94,616
581,74	94,966
581,94	94,319
582,15	94,400
582,35	93,192
582,55	93,507
582,75	93,917
582,95	93,565
583,16	93,222
583,36	93,411
583,56	92,211
583,76	91,903
583,96	91,554
584,17	91,307
584,37	90,524
584,57	89,885
584,77	88,021
584,97	89,164
585,18	88,638
585,38	87,759
585,58	87,299
585,78	86,695
585,98	86,626
586,19	85,983
586,39	85,552
586,59	85,383
586,79	85,859
586,99	85,658
587,20	85,566
587,40	85,299
587,60	84,913
587,80	84,963
588,00	84,842
588,20	83,467
588,41	84,264
588,61	82,640
588,81	82,389
589,01	81,620
589,21	80,165
589,41	78,938
589,62	77,493
589,82	76,378
590,02	74,280
590,22	74,494
590,42	73,278
590,62	72,086
590,83	70,075
591,03	69,470
591,23	68,045
591,43	66,987
591,63	66,037
591,83	64,470
592,03	62,815
592,24	61,676
592,44	60,432
592,64	58,414
592,84	57,585
593,04	56,016
593,24	53,797
593,44	52,900
593,65	51,547
593,85	50,165
594,05	48,732
594,25	47,435
594,45	46,343
594,65	45,308
594,85	44,779
595,06	44,108
595,26	43,213
595,46	42,831
595,66	42,120
595,86	42,070
596,06	41,390
596,26	40,797
596,46	39,981
596,66	39,148
596,87	38,867
597,07	38,077
597,27	36,897
597,47	35,232
597,67	33,821
597,87	32,027
598,07	29,651
598,27	27,954
598,47	26,213
598,67	23,723
598,88	22,716
599,08	20,391
599,28	18,414
599,48	16,382
599,68	14,856
599,88	13,029
600,08	11,105
600,28	9,797
600,48	8,155
600,68	7,079
600,88	6,009
601,09	4,739
601,29	4,079
601,49	3,372
601,69	2,748
601,89	2,042
602,09	1,559
602,29	1,672
602,49	1,288
602,69	1,148
602,89	0,974
603,09	1,009
603,29	0,940
603,49	0,764
603,69	0,791
603,90	0,770
604,10	0,719
604,30	0,815
604,50	0,697
604,70	0,666
604,90	0,492
605,10	0,712
605,30	0,443
605,50	0,513
605,70	0,565
605,90	0,683
606,10	0,434
606,30	0,645
606,50	0,815
606,70	0,616
606,90	0,644
607,10	0,702
607,30	0,490
607,50	0,556
607,70	0,700
607,90	0,555
608,10	0,420
608,30	0,508
608,50	0,781
608,70	0,584
608,90	0,526
609,11	0,618
609,31	0,695
609,51	0,573
609,71	0,731
609,91	0,542
610,11	0,611
610,31	0,596
610,51	0,660
610,71	0,511
610,91	0,574
611,11	0,600
611,31	0,559
611,51	0,550
611,71	0,618
611,91	0,632
612,11	0,500
612,31	0,749
612,51	0,610
612,71	0,598
612,91	0,564
613,11	0,671
613,31	0,849
613,51	0,648
613,71	0,519
613,91	0,706
614,11	0,410
614,31	0,564
614,50	0,509
614,70	0,555
614,90	0,550
615,10	0,602
615,30	0,479
615,50	0,509
615,70	0,542
615,90	0,633
616,10	0,731
616,30	0,653
616,50	0,631
616,70	0,554
616,90	0,629
617,10	0,695
617,30	0,598
617,50	0,670
617,70	0,465
617,90	0,664
618,10	0,592
618,30	0,682
618,50	0,638
618,70	0,658
618,90	0,456
619,10	0,527
619,30	0,530
619,49	0,570
619,69	0,627
619,89	0,374
620,09	0,714
620,29	0,724
620,49	0,695
620,69	0,492
620,89	0,524
621,09	0,547
621,29	0,597
621,49	0,489
621,69	0,591
621,89	0,636
622,09	0,640
622,29	0,601
622,48	0,540
622,68	0,347
622,88	0,534
623,08	0,486
623,28	0,643
623,48	0,435
623,68	0,496
623,88	0,619
624,08	0,739
624,28	0,356
624,48	0,509
624,67	0,625
624,87	0,586
625,07	0,490
625,27	0,537
625,47	0,726
625,67	0,627
625,87	0,572
626,07	0,609
626,27	0,490
626,47	0,554
626,66	0,725
626,86	0,612
627,06	0,463
627,26	0,534
627,46	0,394
627,66	0,470
627,86	0,586
628,06	0,523
628,25	0,434
628,45	0,662
628,65	0,435
628,85	0,640
629,05	0,624
629,25	0,629
629,45	0,502
629,65	0,446
629,84	0,635
630,04	0,606
630,24	0,607
630,44	0,519
630,64	0,733
630,84	0,833
631,04	0,874
631,23	0,861
631,43	0,964
631,63	1,076
631,83	1,232
632,03	1,554
632,23	1,832
632,42	2,067
632,62	2,608
632,82	2,891
633,02	3,605
633,22	4,380
633,42	5,211
633,62	5,777
633,81	7,102
634,01	8,236
634,21	10,369
634,41	11,688
634,61	13,161
634,80	15,073
635,00	17,054
635,20	19,730
635,40	21,577
635,60	24,322
635,80	26,934
635,99	29,689
636,19	31,829
636,39	34,915
636,59	37,318
636,79	39,633
636,98	42,641
637,18	45,354
637,38	47,032
637,58	49,603
637,78	51,159
637,97	53,123
638,17	55,360
638,37	55,996
638,57	57,275
638,77	58,923
638,96	60,124
639,16	61,715
639,36	62,440
639,56	63,454
639,76	65,133
639,95	66,705
640,15	66,042
640,35	67,384
640,55	68,760
640,75	70,200
640,94	72,012
641,14	72,577
641,34	72,764
641,54	73,979
641,73	75,283
641,93	76,128
642,13	80,274
642,33	80,424
642,53	81,305
642,72	82,840
642,92	84,632
643,12	85,957
643,32	85,804
643,51	88,195
643,71	88,868
643,91	89,886
644,11	90,457
644,30	91,055
644,50	92,893
644,70	92,639
644,90	94,059
645,09	94,682
645,29	93,074
645,49	94,905
645,69	94,433
645,88	94,901
646,08	95,034
646,28	96,695
646,48	95,436
646,67	95,482
646,87	95,365
647,07	96,089
647,26	96,207
647,46	96,431
647,66	95,481
647,86	96,556
648,05	95,719
648,25	96,837
648,45	96,144
648,65	95,624
648,84	95,631
649,04	96,606
649,24	94,338
649,43	95,445
649,63	96,016
649,83	94,239
650,03	95,622
650,22	94,124
650,42	93,960
650,62	95,162
650,81	94,693
651,01	93,599
651,21	92,701
651,40	93,472
651,60	94,444
651,80	93,279
652,00	92,160
652,19	91,822
652,39	94,041
652,59	91,607
652,78	92,542
652,98	94,019
653,18	93,917
653,37	93,660
653,57	93,756
653,77	92,910
653,96	93,543
654,16	92,863
654,36	93,757
654,55	91,889
654,75	91,432
654,95	90,158
655,14	90,393
655,34	91,539
655,54	87,215
655,73	86,272
655,93	88,186
656,13	85,477
656,32	84,564
656,52	84,188
656,72	83,606
656,91	82,540
657,11	81,048
657,31	78,972
657,50	79,348
657,70	77,589
657,90	76,558
658,09	76,031
658,29	77,502
658,49	74,193
658,68	74,836
658,88	72,696
659,07	71,078
659,27	70,895
659,47	70,772
659,66	68,439
659,86	68,091
660,06	67,527
660,25	66,781
660,45	65,447
660,64	64,722
660,84	62,059
661,04	62,650
661,23	60,803
661,43	60,071
661,63	59,181
661,82	58,791
662,02	57,155
662,21	56,820
662,41	55,330
662,61	54,868
662,80	55,434
663,00	54,993
663,19	53,524
663,39	53,818
663,59	53,431
663,78	52,214
663,98	51,644
664,17	52,844
664,37	51,824
664,57	50,534
664,76	50,856
664,96	49,745
665,15	47,130
665,35	47,059
665,55	45,113
665,74	43,092
665,94	42,390
666,13	39,402
666,33	37,540
666,53	36,279
666,72	33,387
666,92	31,640
667,11	30,967
667,31	27,879
667,50	27,725
667,70	25,484
667,90	24,263
668,09	23,156
668,29	22,647
668,48	21,828
668,68	20,769
668,87	20,375
669,07	21,073
669,26	20,181
669,46	20,489
669,66	20,839
669,85	20,864
670,05	20,545
670,24	20,770
670,44	20,489
670,63	20,597
670,83	19,592
671,02	19,139
671,22	19,189
671,42	18,304
671,61	17,908
671,81	16,647
672,00	16,164
672,20	15,502
672,39	14,501
672,59	14,123
672,78	13,505
672,98	13,609
673,17	12,540
673,37	12,168
673,56	12,036
673,76	11,628
673,95	11,398
674,15	10,368
674,34	10,569
674,54	9,646
674,73	8,861
674,93	8,620
675,13	7,271
675,32	6,862
675,52	6,027
675,71	5,173
675,91	4,414
676,10	3,221
676,30	2,791
676,49	2,444
676,69	2,162
676,88	1,964
677,08	1,571
677,27	1,119
677,47	1,200
677,66	1,046
677,86	0,846
678,05	1,081
678,24	0,674
678,44	1,038
678,63	0,750
678,83	0,624
679,02	0,758
679,22	0,567
679,41	0,607
679,61	0,738
679,80	0,482
680,00	0,811
680,19	0,736
680,39	0,765
680,58	0,604
680,78	0,457
680,97	0,523
681,17	0,802
681,36	0,502
681,56	0,848
681,75	0,607
681,94	0,674
682,14	0,757
682,33	0,541
682,53	0,892
682,72	0,666
682,92	0,794
683,11	0,623
683,31	0,281
683,50	0,593
683,69	0,474
683,89	0,611
684,08	0,522
684,28	0,256
684,47	0,584
684,67	0,452
684,86	0,367
685,06	0,415
685,25	0,554
685,44	0,320
685,64	0,530
685,83	0,608
686,03	0,247
686,22	0,345
686,42	0,463
686,61	0,433
686,80	0,526
687,00	0,527
687,19	0,640
687,39	0,414
687,58	0,305
687,77	0,277
687,97	0,528
688,16	0,292
688,36	0,295
688,55	0,238
688,74	0,583
688,94	0,369
689,13	0,480
689,33	0,414
689,52	0,396
689,71	0,439
689,91	0,286
690,10	0,399
690,30	0,335
690,49	0,403
690,68	0,332
690,88	0,584
691,07	0,306
691,27	0,346
691,46	0,296
691,65	0,601
691,85	0,382
692,04	0,303
692,23	0,336
692,43	0,330
692,62	0,582
692,82	0,603
693,01	0,304
693,20	0,486
693,40	0,282
693,59	0,583
693,78	0,351
693,98	0,304
694,17	0,167
694,36	0,570
694,56	0,483
694,75	0,247
694,94	0,442
695,14	0,514
695,33	0,292
695,53	0,559
695,72	0,552
695,91	0,446
696,11	0,461
696,30	0,491
696,49	0,410
696,69	0,474
696,88	0,538
697,07	0,333
697,27	0,434
697,46	0,468
697,65	0,376
697,85	0,593
698,04	0,408
698,23	0,490
698,43	0,605
698,62	0,378
698,81	0,431
699,01	0,656
699,20	0,503
699,39	0,809
699,58	0,785
699,78	0,738
699,97	0,494
700,16	0,888
700,36	0,685
700,55	0,881
700,74	0,763
700,94	1,202
701,13	0,940
701,32	1,128
701,52	1,066
701,71	1,090
701,90	1,222
702,09	1,611
702,29	1,186
702,48	1,265
702,67	1,377
702,87	1,009
703,06	1,575
703,25	1,243
703,44	0,986
703,64	1,784
703,83	1,226
704,02	1,844
704,22	1,120
704,41	1,585
704,60	1,616
704,79	0,790
704,99	1,819
705,18	1,673
705,37	2,183
705,56	2,324
705,76	2,647
705,95	1,330
706,14	0,625
706,33	2,156
706,53	3,114
706,72	1,117
706,91	2,495
707,11	2,937
707,30	2,812
707,49	2,691
707,68	1,158
707,88	2,533
708,07	2,672
708,26	2,474
708,45	2,936
708,64	2,173
708,84	3,033
709,03	3,572
709,22	2,437
709,41	3,639
709,61	3,455
709,80	4,135
709,99	3,102
710,18	3,855
710,38	3,120
710,57	2,334
710,76	2,748
710,95	3,060
711,14	4,988
711,34	3,978
711,53	4,063
711,72	4,908
711,91	3,108
712,11	5,027
712,30	6,733
712,49	4,756
712,68	3,800
712,87	5,464
713,07	6,090
713,26	4,120
713,45	5,015
713,64	3,385
713,83	5,007
714,03	6,557
714,22	3,813
714,41	4,878
714,60	7,303
714,79	3,245
714,99	4,429
715,18	0,821
715,37	6,430
715,56	6,465
715,75	5,439
715,94	4,175
716,14	4,682
716,33	6,412
716,52	5,432
716,71	5,475
716,90	6,062
717,10	5,799
717,29	4,457
717,48	7,319
717,67	2,441
717,86	4,821
718,05	2,038
718,24	8,149
718,44	5,570
718,63	3,578
718,82	9,887
719,01	6,987
719,20	3,349
719,39	5,707
719,59	4,321
719,78	6,360
719,97	8,926
720,16	8,156
720,35	4,635
720,54	6,982
720,73	5,647
720,93	7,455
721,12	5,240
721,31	5,819
721,50	7,270
721,69	7,096
721,88	9,729
722,07	4,434
722,27	6,098
722,46	5,327
722,65	7,032
722,84	9,812
723,03	5,137
723,22	8,367
723,41	8,762
723,60	11,195
723,79	8,761
723,99	6,357
724,18	8,505
724,37	7,155
724,56	12,756
724,75	10,250
724,94	11,421
725,13	11,332
725,32	6,749
725,51	7,733
725,71	7,386
725,90	7,230
726,09	11,680
726,28	13,420
726,47	8,105
726,66	10,233
726,85	4,303
727,04	9,969
727,23	7,058
727,42	12,293
727,61	3,492
727,81	11,992
728,00	9,340
728,19	9,954
728,38	6,048
728,57	14,885
728,76	13,466
728,95	10,714
729,14	7,248
729,33	13,282
729,52	12,148
729,71	16,762
729,90	15,385
730,09	11,215
730,28	15,012
730,48	10,441
730,67	13,664
730,86	9,701
731,05	13,201
731,24	11,138
731,43	10,440
731,62	19,048
731,81	11,436
732,00	8,005
732,19	11,239
732,38	9,948
732,57	13,488
732,76	10,952
732,95	6,933
733,14	8,062
733,33	11,126
733,52	17,797
733,71	7,152
733,90	19,794
734,09	11,735
734,28	13,793
734,47	13,816
734,66	13,840
734,85	9,929
735,04	16,213
735,23	16,931
735,42	11,816
735,61	15,467
735,81	14,897
736,00	18,373
736,19	15,385
736,38	10,222
736,57	18,524
736,76	11,783
736,95	10,758
737,14	13,222
737,33	17,657
737,52	14,178
737,71	9,615
737,90	10,287
738,09	14,110
738,28	15,949
738,47	14,052
738,66	9,219
738,85	16,323
739,04	20,034
739,22	14,020
739,41	16,774
739,60	13,211
739,79	10,274
739,98	14,156
740,17	20,748
740,36	23,214
740,55	20,811
740,74	17,739
740,93	17,683
741,12	20,772
741,31	14,154
741,50	15,443
741,69	11,111
741,88	15,800
742,07	15,704
742,26	11,423
742,45	15,217
742,64	25,000
742,83	10,426
743,02	16,216
743,21	15,091
743,40	18,234
743,59	19,262
743,78	20,087
743,97	27,256
744,16	11,530
744,34	22,638
744,53	14,754
744,72	27,651
744,91	16,421
745,10	25,370
745,29	14,657
745,48	18,787
745,67	19,959
745,86	19,718
746,05	15,525
746,24	18,301
746,43	24,823
746,62	12,442
746,81	17,123
747,00	15,866
747,18	26,374
747,37	15,778
747,56	18,202
747,75	22,976
747,94	28,665
748,13	18,493
748,32	23,504
748,51	24,379
748,70	30,216
748,89	22,705
749,08	12,286
749,26	22,434
749,45	27,529
749,64	29,777
749,83	23,155
750,02	19,061
750,21	31,378
750,40	23,177
750,59	32,075
750,78	20,710
750,96	29,609
751,15	25,956
751,34	24,869
751,53	31,773
751,72	26,146
751,91	30,137
752,10	12,654
752,29	35,311
752,47	14,888
752,66	36,056
752,85	22,291
753,04	28,707
753,23	20,530
753,42	29,179
753,61	22,222
753,80	29,810
753,98	35,439
754,17	28,528
754,36	37,006
754,55	21,003
754,74	35,260
754,93	22,767
755,12	21,067
755,30	31,025
755,49	40,367
755,68	35,447
755,87	18,619
756,06	42,458
756,25	24,127
756,43	26,207
756,62	38,279
756,81	21,452
757,00	34,493
757,19	36,986
757,38	28,707
757,56	42,258
757,75	39,216
757,94	39,117
758,13	26,948
758,32	30,303
758,51	33,088
758,69	20,000
758,88	34,535
759,07	20,430
759,26	38,140
759,45	25,328
759,63	36,803
759,82	37,710
760,01	30,100
760,20	47,860
760,39	43,657
760,57	53,306
760,76	27,477
760,95	29,167
761,14	26,531
761,33	37,812
761,51	30,108
761,70	48,621
761,89	34,426
762,08	47,907
762,27	44,689
762,45	46,304
762,64	30,403
762,83	17,699
763,02	28,837
763,21	45,690
763,39	43,265
763,58	46,415
763,77	45,174
763,96	57,430
764,14	45,417
764,33	34,799
764,52	45,923
764,71	37,220
764,89	32,353
765,08	40,517
765,27	56,877
765,46	44,565
765,65	42,795
765,83	53,247
766,02	28,511
766,21	39,779
766,40	53,333
766,58	41,870
766,77	40,796
766,96	66,364
767,15	42,512
767,33	28,070
767,52	39,024
767,71	39,565
767,90	40,449
768,08	35,019
768,27	34,000
768,46	37,891
768,64	74,093
768,83	44,792
769,02	49,500
769,21	38,865
769,39	54,070
769,58	44,509
769,77	62,835
769,96	45,550
770,14	36,054
770,33	44,860
770,52	54,497
770,70	34,667
770,89	59,732
771,08	47,034
771,27	62,371
771,45	46,053
771,64	73,438
771,83	62,150
772,01	35,542
772,20	62,312
772,39	33,333
772,57	27,132
772,76	23,704
772,95	58,865
773,14	70,430
773,32	59,355
773,51	61,692
773,70	76,250
773,88	75,410
774,07	52,880
774,26	38,298
774,44	34,146
774,63	74,112
774,82	45,732
775,00	45,333
775,19	63,200
775,38	68,786
775,56	45,833
775,75	75,301
775,94	78,481
776,12	61,326
776,31	51,765
776,50	42,045
776,68	64,737
776,87	69,886
777,06	62,759
777,24	51,667
777,43	58,974
777,62	72,059
777,80	77,027
777,99	70,286
778,18	70,792
778,36	58,400
778,55	71,901
778,74	73,611
778,92	75,740
779,11	113,333
779,29	56,604
779,48	83,673
779,67	47,287
779,85	73,984
780,04	80,000
780,23	62,590
780,41	60,938
780,60	29,474
780,79	79,661
780,97	72,368
781,16	64,242
781,34	60,825
781,53	66,667
781,72	78,102
781,90	52,344
782,09	81,290
782,28	102,190
782,46	54,074
782,65	65,714
782,83	43,820
783,02	92,500
783,21	90,000
783,39	82,609
783,58	79,882
783,76	79,888
783,95	77,576
784,14	77,483
784,32	85,906
784,51	91,379
784,69	88,983
784,88	98,198
785,06	54,622
785,25	87,261
785,44	93,525
785,62	80,714
785,81	125,352
785,99	93,525
786,18	77,027
786,37	74,074
786,55	51,376
786,74	57,237
786,92	77,344
787,11	89,167
787,29	88,806
787,48	76,667
787,67	91,566
787,85	87,931
788,04	65,347
788,22	50,820
788,41	55,294
788,59	115,596
788,78	82,424
788,96	92,453
789,15	130,526
789,34	73,636
789,52	65,487
789,71	58,915
789,89	168,085
790,08	82,877
790,26	117,143
790,45	91,667
790,63	88,889
790,82	101,212
791,00	56,250
791,19	68,817
791,38	77,083
791,56	86,842
791,75	122,018
791,93	120,690
792,12	77,515
792,30	88,000
792,49	75,630
792,67	80,597
792,86	89,922
793,04	78,505
793,23	49,167
793,41	78,481
793,60	108,081
793,78	102,632
793,97	107,692
794,15	79,091
794,34	87,912
794,52	96,104
794,71	124,691
794,89	67,778
795,08	107,767
795,26	62,778
795,45	141,791
795,63	115,909
795,82	106,542
796,00	95,413
796,19	105,833
796,37	97,810
796,56	155,914
796,74	92,920
796,93	108,989
797,11	113,924
797,30	118,333
797,48	92,414
797,67	106,667
797,85	84,694
798,04	133,333
798,22	111,905
798,41	126,471
798,59	94,737
798,77	132,308
798,96	100,000
799,14	90,517
799,33	99,237
799,51	79,231
799,70	87,919
799,88	122,727
800,07	64,474
800,25	90,345
800,44	85,859
800,62	103,529
800,80	104,348
800,99	128,571
801,17	81,034
801,36	76,552
801,54	120,833
801,73	86,869
801,91	111,475
802,10	97,619
802,28	117,757
802,46	98,765
802,65	87,356
802,83	138,202
803,02	94,737
803,20	108,594
803,39	72,414
803,57	115,663
803,75	83,108
803,94	95,798
804,12	57,500
804,31	100,000
804,49	102,885
804,67	93,600
804,86	83,036
805,04	104,054
805,23	85,517
805,41	78,689
805,59	71,311
805,78	78,788
805,96	68,590
806,15	85,938
806,33	90,756
806,51	90,265
806,70	175,000
806,88	80,488
807,07	65,079
807,25	59,748
807,43	92,053
807,62	91,057
807,80	125,806
807,99	64,286
808,17	80,851
808,35	91,228
808,54	116,129
808,72	76,000
808,90	89,474
809,09	113,333
809,27	83,784
809,46	104,464
809,64	81,373
809,82	89,655
810,01	83,333
810,19	108,000
810,37	74,615
810,56	86,585
810,74	76,821
810,92	101,515
811,11	194,118
811,29	81,560
811,48	91,919
811,66	89,147
811,84	134,862
812,03	63,636
812,21	67,949
812,39	83,898
812,58	100,000
812,76	115,888
812,94	88,000
813,13	79,365
813,31	65,000
813,49	107,609
813,68	100,870
813,86	96,939
814,04	106,796
814,23	77,778
814,41	44,853
814,59	71,751
814,78	87,500
814,96	63,063
815,14	116,667
815,33	100,000
815,51	66,667
815,69	70,370
815,87	78,261
816,06	62,500
816,24	90,066
816,42	46,795
816,61	69,492
816,79	126,506
816,97	90,991
817,16	47,097
817,34	95,862
817,52	97,931
817,70	115,873
817,89	92,562
818,07	82,759
818,25	85,586
818,44	63,953
818,62	51,724
818,80	101,399
818,98	89,524
819,17	69,231
819,35	75,294
819,53	123,762
819,72	52,907
819,90	86,228
820,08	41,558
820,26	107,895
820,45	70,482
820,63	59,896
820,81	85,235
820,99	101,504
821,18	60,741
821,36	79,524
821,54	68,605
821,73	78,919
821,91	53,191
822,09	65,882
822,27	71,066
822,46	61,250
822,64	54,967
822,82	64,390
823,00	36,036
823,19	42,424
823,37	85,000
823,55	66,471
823,73	77,333
823,91	51,381
824,10	86,592
824,28	83,704
824,46	29,651
824,64	70,098
824,83	84,553
825,01	72,464
825,19	60,571
825,37	71,354
825,56	73,125
825,74	72,381
825,92	53,933
826,10	53,416
826,28	61,074
826,47	66,667
826,65	68,919
826,83	56,989
827,01	76,515
827,19	90,506
827,38	68,912
827,56	66,346
827,74	63,415
827,92	73,659
828,10	66,848
828,29	71,905
828,47	71,491
828,65	52,973
828,83	49,495
829,01	73,333
829,20	45,570
829,38	53,942
829,56	43,725
829,74	81,818
829,92	59,278
830,10	68,018
830,29	31,892
830,47	69,792
830,65	45,536
830,83	53,143
831,01	22,917
831,20	40,099
831,38	46,341
831,56	62,753
831,74	71,429
831,92	38,068
832,10	75,909
832,29	49,763
832,47	49,115
832,65	63,404
832,83	43,256
833,01	34,783
833,19	50,679
833,37	50,741
833,56	59,624
833,74	44,939
833,92	47,345
834,10	45,685
834,28	28,846
834,46	55,363
834,64	42,187
834,83	45,734
835,01	63,035
835,19	35,071
835,37	46,215
835,55	44,404
835,73	47,426
835,91	40,541
836,09	28,216
836,28	50,382
836,46	44,561
836,64	49,180
836,82	38,060
837,00	52,721
837,18	45,455
837,36	42,246
837,54	40,909
837,72	37,450
837,91	45,783
838,09	44,000
838,27	50,916
838,45	48,544
838,63	23,729
838,81	53,618
838,99	32,056
839,17	42,071
839,35	50,000
839,53	40,268
839,72	31,356
839,90	19,453
840,08	36,538
840,26	39,748
840,44	30,247
840,62	39,731
840,80	30,864
840,98	30,514
841,16	17,438
841,34	33,623
841,52	28,754
841,70	29,630
841,89	39,677
842,07	29,730
842,25	30,195
842,43	32,581
842,61	42,091
842,79	32,317
842,97	27,134
843,15	42,120
843,33	34,679
843,51	41,050
843,69	37,222
843,87	30,189
844,05	20,755
844,23	43,514
844,41	22,613
844,59	21,875
844,77	22,767
844,95	25,485
845,13	35,519
845,31	43,855
845,50	25,515
845,68	25,648
845,86	36,557
846,04	19,506
846,22	23,628
846,40	18,635
846,58	23,056
846,76	29,177
846,94	31,971
847,12	20,142
847,30	24,885
847,48	24,700
847,66	20,976
847,84	27,157
848,02	28,274
848,20	37,969
848,38	25,630
848,56	28,172
848,74	29,959
848,92	13,987
849,10	27,679
849,28	24,619
849,46	17,523
849,64	22,857
849,82	21,635
850,00	20,123
850,18	20,554
850,36	21,711
850,54	23,767
850,72	24,116
850,90	27,007
851,08	24,691
851,26	28,543
851,44	19,880
851,62	20,088
851,80	16,501
851,98	36,214
852,16	31,893
852,34	27,894
852,52	21,471
852,70	15,663
852,87	23,810
853,05	20,240
853,23	24,314
853,41	17,178
853,59	20,755
853,77	22,222
853,95	19,492
854,13	19,417
854,31	21,117
854,49	21,443
854,67	17,669
854,85	19,826
855,03	15,709
855,21	20,812
855,39	20,638
855,57	22,283
855,75	18,212
855,93	21,025
856,11	26,954
856,28	18,924
856,46	15,850
856,64	19,903
856,82	14,136
857,00	25,260
857,18	20,657
857,36	17,983
857,54	17,230
857,72	24,207
857,90	16,310
858,08	18,056
858,26	13,150
858,44	14,907
858,61	26,343
858,79	17,984
858,97	15,903
859,15	16,134
859,33	18,712
859,51	16,134
859,69	16,369
859,87	14,641
860,05	17,852
860,23	10,455
860,40	9,677
860,58	16,236
860,76	22,034
860,94	11,450
861,12	14,731
861,30	16,142
861,48	16,147
861,66	15,899
861,84	24,441
862,01	18,850
862,19	15,447
862,37	16,035
862,55	11,560
862,73	14,402
862,91	11,383
863,09	17,425
863,27	10,446
863,44	8,212
863,62	10,098
863,80	10,012
863,98	13,282
864,16	11,837
864,34	15,844
864,52	9,226
864,69	14,337
864,87	12,872
865,05	11,197
865,23	11,957
865,41	13,230
865,59	15,451
865,76	9,044
865,94	10,739
866,12	12,458
866,30	13,006
866,48	10,848
866,66	15,510
866,83	10,613
867,01	16,886
867,19	14,782
867,37	9,244
867,55	11,855
867,73	12,870
867,90	9,541
868,08	12,527
868,26	7,298
868,44	8,691
868,62	10,136
868,79	10,173
868,97	12,260
869,15	6,900
869,33	8,379
869,51	13,694
869,69	8,029
869,86	13,231
870,04	10,899
870,22	9,781
870,40	9,899
870,57	11,000
870,75	10,536
870,93	8,533
871,11	10,478
871,29	11,992
871,46	10,070
871,64	10,880
871,82	10,927
872,00	13,749
872,18	11,894
872,35	8,913
872,53	11,342
872,71	5,679
872,89	12,604
873,06	8,672
873,24	10,662
873,42	6,900
873,60	3,857
873,77	10,142
873,95	9,001
874,13	8,318
874,31	8,556
874,49	12,293
874,66	6,701
874,84	6,483
875,02	10,090
875,20	8,512
875,37	5,963
875,55	5,758
875,73	8,628
875,91	8,828
876,08	7,006
876,26	9,076
876,44	8,786
876,61	9,618
876,79	7,477
876,97	8,091
877,15	9,160
877,32	6,142
877,50	8,709
877,68	9,910
877,86	7,302
878,03	8,749
878,21	5,678
878,39	6,519
878,56	6,858
878,74	5,857
878,92	5,490
879,10	8,210
879,27	5,409
879,45	10,047
879,63	9,036
879,80	7,002
879,98	5,694
880,16	6,866
880,34	4,794
880,51	9,236
880,69	9,149
880,87	6,323
881,04	7,544
881,22	9,289
881,40	2,650
881,57	3,601
881,75	7,398
881,93	4,213
882,10	8,905
882,28	4,543
882,46	6,548
882,63	7,601
882,81	7,816
882,99	4,486
883,16	7,898
883,34	8,934
883,52	4,884
883,69	3,901
883,87	8,200
884,05	3,310
884,22	4,819
884,40	6,528
884,58	3,631
884,75	5,196
884,93	6,702
885,11	5,822
885,28	7,115
885,46	6,470
885,64	5,497
885,81	5,957
885,99	5,458
886,17	4,276
886,34	5,401
886,52	3,004
886,70	4,957
886,87	6,422
887,05	5,539
887,22	5,279
887,40	5,727
887,58	4,328
887,75	6,830
887,93	6,598
888,11	2,076
888,28	4,694
888,46	2,966
888,63	6,845
888,81	3,853
888,99	1,422
889,16	4,184
889,34	4,537
889,51	5,002
889,69	2,022
889,87	3,665
890,04	3,408
890,22	4,889
890,39	3,273
890,57	6,805
890,75	6,627
890,92	3,299
891,10	5,167
891,27	5,329
891,45	5,250
891,63	4,900
891,80	4,092
891,98	6,517
892,15	4,230
892,33	3,899
892,51	3,869
892,68	2,556
892,86	4,091
893,03	5,313
893,21	5,211
893,38	5,010
893,56	5,403
893,74	6,133
893,91	4,966
894,09	4,972
894,26	3,683
894,44	3,394
894,61	5,987
894,79	3,330
894,96	4,916
895,14	4,350
895,32	4,564
895,49	4,729
895,67	3,893
895,84	4,608
896,02	3,416
896,19	3,111
896,37	5,350
896,54	3,314
896,72	4,827
896,89	5,312
897,07	2,892
897,25	4,917
897,42	3,907
897,60	3,184
897,77	5,703
897,95	4,589
898,12	1,592
898,30	3,163
898,47	3,270
898,65	2,709
898,82	2,642
899,00	4,396
899,17	3,229
899,35	3,257
899,52	2,703
899,70	2,732
899,87	3,000
900,05	5,178
900,22	2,818
900,40	3,098
900,57	3,778
900,75	2,147
900,92	2,467
901,10	3,680
901,27	3,612
901,45	4,559
901,62	3,025
901,80	4,112
901,97	3,891
902,15	4,514
902,32	4,178
902,50	3,033
902,67	4,121
902,85	2,429
903,02	5,214
903,20	2,476
903,37	3,272
903,54	4,630
903,72	2,402
903,89	3,428
904,07	4,076
904,24	2,859
904,42	2,662
904,59	3,327
904,77	4,349
904,94	2,077
905,12	2,868
905,29	3,161
905,47	4,716
905,64	3,201
905,81	3,606
905,99	2,826
906,16	4,634
906,34	3,841
906,51	2,946
906,69	3,011
906,86	2,637
907,03	3,025
907,21	2,016
907,38	2,457
907,56	2,621
907,73	5,191
907,91	2,700
908,08	4,760
908,25	2,012
908,43	2,708
908,60	2,132
908,78	4,048
908,95	3,926
909,13	3,550
909,30	1,824
909,47	3,261
909,65	3,039
909,82	3,146
910,00	1,604
910,17	3,505
910,34	3,001
910,52	3,531
910,69	3,540
910,87	2,975
911,04	2,344
911,21	3,327
911,39	3,150
911,56	3,025
911,73	3,105
911,91	2,942
912,08	3,621
912,26	1,675
912,43	1,724
912,60	3,260
912,78	2,542
912,95	4,145
913,13	3,212
913,30	3,166
913,47	3,847
913,65	2,612
913,82	2,576
913,99	1,918
914,17	2,221
914,34	2,370
914,51	3,650
914,69	3,211
914,86	3,109
915,03	2,601
915,21	2,430
915,38	1,477
915,56	3,253
915,73	2,315
915,90	3,051
916,08	3,249
916,25	2,310
916,42	2,022
916,60	2,212
916,77	2,078
916,94	3,197
917,12	3,356
917,29	3,058
917,46	2,276
917,64	2,001
917,81	2,593
917,98	1,951
918,16	3,294
918,33	2,657
918,50	2,263
918,67	2,001
918,85	2,771
919,02	2,611
919,19	3,537
919,37	2,030
919,54	2,378
919,71	4,255
919,89	1,946
920,06	1,296
920,23	1,951
920,41	2,406
920,58	1,924
920,75	2,452
920,92	1,431
921,10	1,927
921,27	1,371
921,44	2,784
921,62	0,867
921,79	3,149
921,96	1,637
922,13	2,118
922,31	1,649
922,48	2,278
922,65	1,490
922,82	2,572
923,00	2,533
923,17	2,159
923,34	1,995
923,52	1,117
923,69	2,245
923,86	2,022
924,03	1,543
924,21	1,692
924,38	3,354
924,55	2,771
924,72	2,916
924,90	2,042
925,07	2,297
925,24	2,209
925,41	2,556
925,59	1,925
925,76	1,937
925,93	1,620
926,10	3,314
926,28	2,796
926,45	2,695
926,62	2,355
926,79	2,805
926,96	1,646
927,14	2,765
927,31	2,058
927,48	2,207
927,65	1,605
927,83	1,389
928,00	1,799
928,17	2,754
928,34	1,529
928,51	2,154
928,69	2,517
928,86	1,711
929,03	2,604
929,20	2,551
929,37	2,147
929,55	1,739
929,72	2,746
929,89	1,993
930,06	1,566
930,23	2,185
930,41	2,220
930,58	2,349
930,75	1,831
930,92	0,943
931,09	1,223
931,27	1,833
931,44	2,075
931,61	3,141
931,78	1,748
931,95	1,188
932,12	1,904
932,30	2,009
932,47	3,534
932,64	2,423
932,81	1,828
932,98	1,195
933,16	1,419
933,33	2,020
933,50	1,833
933,67	2,817
933,84	1,549
934,01	1,743
934,18	2,364
934,36	0,909
934,53	1,524
934,70	2,561
934,87	1,999
935,04	2,223
935,21	1,772
935,38	1,470
935,56	1,310
935,73	1,436
935,90	1,197
936,07	2,011
936,24	2,106
936,41	2,287
936,58	0,551
936,76	2,230
936,93	0,736
937,10	2,082
937,27	1,649
937,44	1,205
937,61	2,329
937,78	2,835
937,95	1,510
938,13	1,777
938,30	1,632
938,47	2,265
938,64	1,873
938,81	1,427
938,98	2,193
939,15	1,848
939,32	1,577
939,49	2,182
939,66	2,692
939,84	1,632
940,01	1,822
940,18	1,933
940,35	1,858
940,52	0,693
940,69	2,412
940,86	2,052
941,03	1,764
941,20	1,920
941,37	2,556
941,54	0,988
941,71	0,910
941,89	1,825
942,06	1,787
942,23	2,581
942,40	2,042
942,57	2,538
942,74	1,932
942,91	1,530
943,08	2,953
943,25	1,619
943,42	1,324
943,59	1,758
943,76	3,271
943,93	1,554
944,10	1,461
944,27	2,056
944,44	1,872
944,61	0,669
944,79	1,947
944,96	2,514
945,13	1,189
945,30	1,963
945,47	2,685
945,64	2,722
945,81	2,983
945,98	3,210
946,15	2,759
946,32	2,353
946,49	3,025
946,66	2,783
946,83	2,034
947,00	2,246
947,17	2,835
947,34	2,366
947,51	1,954
947,68	4,702
947,85	2,336
948,02	2,395
948,19	3,316
948,36	4,190
948,53	2,170
948,70	3,555
948,87	4,852
949,04	2,681
949,21	2,839
949,38	3,595
949,55	3,301
949,72	3,106
949,89	4,420
950,06	2,358
950,23	3,840
950,40	3,822
950,57	2,575
950,74	5,285
950,91	4,538
951,08	4,150
951,25	5,476
951,42	4,365
951,59	3,852
951,76	4,338
951,93	4,667
952,10	4,925
952,27	4,583
952,44	5,356
952,61	4,952
952,77	4,176
952,94	5,546
953,11	6,168
953,28	5,258
953,45	6,773
953,62	6,410
953,79	5,978
953,96	8,301
954,13	4,190
954,30	5,197
954,47	7,338
954,64	5,162
954,81	7,978
954,98	8,092
955,15	5,813
955,32	5,420
955,49	7,538
955,65	10,145
955,82	7,970
955,99	7,152
956,16	12,812
956,33	7,113
956,50	6,598
956,67	7,003
956,84	7,333
957,01	4,602
957,18	8,544
957,35	7,764
957,52	8,473
957,68	11,167
957,85	12,255
958,02	13,351
958,19	12,272
958,36	15,514
958,53	10,783
958,70	9,864
958,87	12,329
959,04	13,047
959,21	13,535
959,37	12,662
959,54	13,010
959,71	9,412
959,88	15,807
960,05	15,563
960,22	8,047
960,39	14,800
960,56	6,835
960,72	11,543
960,89	21,926
961,06	18,344
961,23	14,410
961,40	15,007
961,57	12,696
961,74	7,911
961,90	18,750
962,07	21,461
962,24	19,024
962,41	16,583
962,58	21,170
962,75	19,646
962,92	25,794
963,08	17,273
963,25	21,081
963,42	24,638
963,59	22,107
963,76	23,820
963,93	20,366
964,10	23,555
964,26	28,289
964,43	33,075
964,60	33,420
964,77	29,639
964,94	19,034
965,10	30,952
965,27	30,548
965,44	29,351
965,61	29,201
965,78	44,089
965,95	30,838
966,11	35,294
966,28	22,305
966,45	33,645
966,62	31,692
966,79	47,347
966,95	34,328
967,12	37,224
967,29	23,958
967,46	51,136
967,63	41,132
967,79	51,802
967,96	35,931
968,13	39,500
968,30	52,419
968,47	48,797
968,63	62,162
968,80	65,596
968,97	41,827
969,14	43,023
969,31	48,333
969,47	68,824
969,64	58,081
969,81	40,415
969,98	71,978
970,14	65,031
970,31	62,264
970,48	52,500
970,65	71,598
970,81	64,384
970,98	61,314
971,15	62,245
971,32	53,906
971,48	87,075
971,65	29,231
971,82	83,333
971,99	128,736
972,15	82,394
972,32	79,279
972,49	86,713
972,66	118,182
972,82	95,349
972,99	75,610
973,16	118,391
973,33	96,429
973,49	109,474
973,66	97,849
973,83	113,592
974,00	144,186
974,16	135,294
974,33	133,333
974,50	60,000
974,67	122,105
974,83	121,429
975,00	122,105
975,17	81,319
975,33	117,978
975,50	173,134
975,67	261,224
975,84	177,612
976,00	135,955
976,17	180,328
976,34	84,000
976,50	133,708
976,67	88,350
976,84	2500,000
977,00	204,082
977,17	142,222
977,34	142,857
977,50	110,448
977,67	244,643
977,84	206,452
978,01	231,915
978,17	200,000
978,34	297,222
978,51	167,647
978,67	152,632
978,84	105,469
979,01	305,405
979,17	94,872
979,34	103,425
979,51	279,592
979,67	169,136
979,84	273,469
980,01	264,444
980,17	273,239
980,34	318,519
980,51	162,319
980,67	169,412
980,84	356,667
981,01	570,000
981,17	396,000
981,34	1244,444
981,50	176,471
981,67	208,475
981,84	4150,000
982,00	333,333
982,17	230,952
982,34	100,000
982,50	646,667
982,67	175,000
982,84	1400,000
983,00	900,000
983,17	167,164
983,33	177,586
983,50	1200,000
983,67	-386,207
983,83	242,424
984,00	-985,714
984,17	627,778
984,33	-6500,000
984,50	377,143
984,66	250,000
984,83	212,987
985,00	-433,333
985,16	524,138
985,33	770,588
985,49	616,667
985,66	376,471
985,83	482,609
985,99	335,897
986,16	-3650,000
986,32	742,857
986,49	7400,000
986,66	366,667
986,82	941,667
986,99	273,585
987,15	-247,368
987,32	-382,143
987,49	254,000
987,65	5300,000
987,82	291,667
987,98	314,286
988,15	396,667
988,31	920,000
988,48	-2183,333
988,65	354,762
988,81	336,111
988,98	358,537
989,14	430,952
989,31	576,190
989,47	217,647
989,64	-900,000
989,80	856,250
989,97	351,351
990,14	-245,652
990,30	-472,727
990,47	353,061
990,63	277,778
990,80	280,000
990,96	-500,000
991,13	459,375
991,29	534,483
991,46	0,000
991,62	-569,231
991,79	883,333
991,95	14200,000
992,12	-1350,000
992,29	-500,000
992,45	163,529
992,62	260,465
992,78	340,909
992,95	-553,333
993,11	367,857
993,28	1290,000
993,44	-760,000
993,61	-506,250
993,77	-2925,000
993,94	-4033,333
994,10	-130,667
994,27	842,105
994,43	332,558
994,60	0,000
994,76	2300,000
994,93	545,000
995,09	-829,412
995,26	1088,889
995,42	229,412
995,59	523,810
995,75	646,154
995,92	1971,429
996,08	452,778
996,25	-900,000
996,41	-4800,000
996,58	706,667
996,74	288,636
996,91	375,862
997,07	0,000
997,23	11900,000
997,40	-14000,000
997,56	-823,077
997,73	-1150,000
997,89	371,053
998,06	884,615
998,22	-483,333
998,39	512,000
998,55	1233,333
998,72	-1800,000
998,88	-203,333
999,05	-111,538
999,21	340,476
999,37	-686,667
999,54	-766,667
999,70	-296,667
999,87	837,500
1000,03	479,487
1000,20	279,167
1000,36	0,000
1000,52	266,667
1000,69	-590,476
1000,85	-1150,000
1001,02	-412,500
1001,18	2125,000
1001,35	1092,308
1001,51	705,882
1001,67	-830,769
1001,84	-2080,000
1002,00	321,622
1002,17	690,909
1002,33	-1650,000
1002,50	471,429
1002,66	-746,154
1002,82	272,500
1002,99	864,286
1003,15	-1028,571
1003,32	-1200,000
1003,48	325,000
1003,64	940,000
1003,81	477,778
1003,97	-3100,000
1004,14	909,091
1004,30	343,333
1004,46	-546,667
1004,63	1035,714
1004,79	316,667
1004,95	646,667
1005,12	6450,000
1005,28	586,207
1005,45	354,054
1005,61	375,862
1005,77	-247,917
1005,94	-257,143
1006,10	-5100,000
1006,26	946,154
1006,43	-257,692
1006,59	-854,545
1006,76	900,000
1006,92	1477,778
1007,08	10000,000
1007,25	-411,111
1007,41	427,586
1007,57	5850,000
1007,74	1310,000
1007,90	-396,552
1008,06	200,000
1008,23	911,765
1008,39	-750,000
1008,55	-342,308
1008,72	-1400,000
1008,88	0,000
1009,04	324,390
1009,21	-189,474
1009,37	-633,333
1009,53	288,095
1009,70	3800,000
1009,86	-814,286
1010,02	4400,000
1010,19	936,364
1010,35	263,235
1010,51	-6700,000
1010,68	-1325,000
1010,84	-113,636
1011,00	612,500
1011,17	-386,364
1011,33	0,000
1011,49	-740,000
1011,66	892,857
1011,82	496,774
1011,98	864,286
1012,14	-781,818
1012,31	328,205
1012,47	0,000
1012,63	1900,000
1012,80	807,143
1012,96	-731,250
1013,12	-1616,667
1013,29	544,444
1013,45	407,317
1013,61	5000,000
1013,77	-125,000
1013,94	2000,000
1014,10	169,492
1014,26	-3475,000
1014,43	-304,000
1014,59	490,000
1014,75	-500,000
1014,91	-746,667
1015,08	363,889
1015,24	9600,000
1015,40	623,529
1015,56	-14600,000
1015,73	261,905
1015,89	845,455
1016,05	3625,000
1016,21	-700,000
1016,38	657,895
1016,54	900,000
1016,70	-2800,000
1016,86	396,875
1017,03	912,500
1017,19	-646,154
1017,35	-717,647
1017,51	-1460,000
1017,68	-1240,000
1017,84	-2000,000
1018,00	295,238
1018,16	457,692
1018,33	-1285,714
1018,49	-1008,333
1018,65	-235,135
1018,81	243,590
1018,97	-1642,857
1019,14	-2833,333
1019,30	-243,590
1019,46	0,000
1019,62	-529,412
1019,79	-5033,333
1019,95	1150,000
1020,11	6600,000
1020,27	-529,630
1020,43	-373,077
1020,60	2016,667
1020,76	511,111
1020,92	846,667
1021,08	810,000
1021,24	790,000
1021,41	1044,444
1021,57	1475,000
1021,73	746,154
1021,89	2140,000
1022,05	-514,286
1022,21	630,000
1022,38	-433,333
1022,54	-2450,000
1022,70	300,000
1022,86	-1700,000
1023,02	616,667
1023,19	2680,000
1023,35	4200,000
1023,51	487,500
1023,67	414,815
1023,83	-606,250
1023,99	247,368
1024,16	-292,308
1024,32	-1355,556
1024,48	-1100,000
1024,64	335,714
1024,80	617,391
1024,96	294,872
1025,12	471,429
1025,29	542,857
1025,45	371,053
1025,61	627,778
1025,77	-2600,000
1025,93	-8600,000
1026,09	-1400,000
1026,26	816,667
1026,42	843,750
1026,58	312,121
1026,74	1933,333
1026,90	388,000
1027,06	375,000
1027,22	1057,143
1027,38	275,000
1027,55	3033,333
1027,71	1516,667
1027,87	-312,000
1028,03	830,000
1028,19	440,625
1028,35	645,000
1028,51	1400,000
1028,67	841,667
1028,83	-1900,000
1029,00	-216,667
1029,16	1290,000
1029,32	-260,714
1029,48	226,667
1029,64	275,000
1029,80	4000,000
1029,96	846,667
1030,12	604,348
1030,28	-2366,667
1030,44	-846,154
1030,61	-425,000
1030,77	-234,286
1030,93	-773,333
1031,09	1766,667
1031,25	-12600,000
1031,41	-330,000
1031,57	469,231
1031,73	687,500
1031,89	-1363,636
1032,05	-370,370
1032,21	872,727
1032,37	-142,593
1032,53	-1064,286
1032,69	-262,500
1032,86	418,519
1033,02	-190,000
1033,18	-518,750
1033,34	342,105
1033,50	-4950,000
1033,66	-224,390
1033,82	478,261
1033,98	-348,148
1034,14	226,923
1034,30	390,323
1034,46	-2533,333
1034,62	575,000
1034,78	-519,048
1034,94	339,474
1035,10	-600,000
1035,26	-162,791
1035,42	-182,759
1035,58	-388,889
1035,74	1200,000
1035,90	-776,923
1036,06	-1700,000
1036,22	1500,000
1036,38	-735,294
1036,54	-508,333
1036,70	-187,879
1036,86	8400,000
1037,02	616,667
1037,18	842,105
1037,34	171,429
1037,50	-121,951
1037,66	-429,412
1037,82	2560,000
1037,98	-329,630
1038,14	-284,000
1038,30	-1600,000
1038,46	-907,143
1038,62	747,826
1038,78	-3166,667
1038,94	-394,737
1039,10	409,091
1039,26	422,222
1039,42	-841,667
1039,58	885,714
1039,74	-578,947
1039,90	250,000
1040,06	-350,000
>>>>>End Processed Spectral Data<<<<<
