SpectraSuite Data File
++++++++++++++++++++++++++++++++++++
Date: Wed Feb 01 15:57:53 EET 2017
User: optolab
Dark Spectrum Present: Yes
Reference Spectrum Present: Yes
Number of Sampled Component Spectra: 1
Spectrometers: USB4C02475
Integration Time (usec): 100000 (USB4C02475)
Spectra Averaged: 1 (USB4C02475)
Boxcar Smoothing: 0 (USB4C02475)
Correct for Electrical Dark: No (USB4C02475)
Strobe/Lamp Enabled: No (USB4C02475)
Correct for Detector Non-linearity: No (USB4C02475)
Correct for Stray Light: No (USB4C02475)
Number of Pixels in Processed Spectrum: 3648
>>>>>Begin Processed Spectral Data<<<<<
344,91	3050,000
345,13	3050,000
345,35	3050,000
345,57	0,000
345,79	457,895
346,00	-1700,000
346,22	-1742,857
346,44	317,647
346,66	-379,167
346,87	-11800,000
347,09	312,121
347,31	-422,727
347,53	-307,692
347,74	275,385
347,96	515,152
348,18	868,421
348,40	377,419
348,61	888,235
348,83	369,048
349,05	280,392
349,27	-2700,000
349,48	646,154
349,70	-427,586
349,92	348,387
350,14	249,057
350,35	330,000
350,57	2475,000
350,79	444,000
351,01	-990,476
351,22	233,333
351,44	638,462
351,66	-408,000
351,87	-695,238
352,09	265,385
352,31	288,525
352,53	182,813
352,74	433,333
352,96	244,156
353,18	642,105
353,40	312,000
353,61	297,778
353,83	373,529
354,05	1045,455
354,26	1783,333
354,48	256,000
354,70	415,152
354,92	-175,862
355,13	201,010
355,35	363,636
355,57	608,333
355,78	203,614
356,00	-3325,000
356,22	396,154
356,44	5000,000
356,65	363,636
356,87	484,615
357,09	470,833
357,30	264,444
357,52	270,690
357,74	725,000
357,95	300,000
358,17	278,689
358,39	198,387
358,60	335,135
358,82	387,500
359,04	322,222
359,26	405,714
359,47	8400,000
359,69	340,000
359,91	487,879
360,12	466,667
360,34	579,167
360,56	-135,185
360,77	2800,000
360,99	423,810
361,21	284,000
361,42	5300,000
361,64	204,082
361,86	266,154
362,07	-570,968
362,29	201,333
362,51	-564,706
362,72	396,000
362,94	329,412
363,16	318,605
363,37	-878,571
363,59	550,000
363,81	338,636
364,02	905,556
364,24	566,667
364,46	3666,667
364,67	863,636
364,89	2185,714
365,11	187,143
365,32	431,034
365,54	363,889
365,76	348,980
365,97	461,765
366,19	191,379
366,41	613,636
366,62	407,407
366,84	276,744
367,05	297,959
367,27	1850,000
367,49	-653,846
367,70	635,294
367,92	175,410
368,14	233,333
368,35	-11200,000
368,57	428,000
368,79	448,276
369,00	343,478
369,22	-1662,500
369,43	221,176
369,65	303,226
369,87	402,703
370,08	153,012
370,30	251,786
370,51	196,721
370,73	215,556
370,95	295,161
371,16	340,476
371,38	420,000
371,60	1187,500
371,81	245,312
372,03	953,333
372,24	446,667
372,46	224,528
372,68	181,429
372,89	472,727
373,11	538,462
373,32	415,909
373,54	-861,538
373,76	1030,769
373,97	693,333
374,19	604,545
374,40	317,187
374,62	-3100,000
374,84	4825,000
375,05	482,143
375,27	298,000
375,48	-12200,000
375,70	178,667
375,92	258,929
376,13	362,500
376,35	198,630
376,56	1012,500
376,78	262,500
376,99	539,286
377,21	250,000
377,43	193,939
377,64	160,870
377,86	462,069
378,07	284,615
378,29	-975,000
378,51	593,548
378,72	289,583
378,94	-1300,000
379,15	284,848
379,37	735,294
379,58	203,077
379,80	660,000
380,01	656,250
380,23	270,588
380,45	2500,000
380,66	3266,667
380,88	343,182
381,09	201,429
381,31	175,556
381,52	264,706
381,74	1255,556
381,95	604,545
382,17	396,154
382,39	609,524
382,60	204,082
382,82	392,308
383,03	340,385
383,25	383,871
383,46	354,545
383,68	514,815
383,89	520,000
384,11	406,452
384,32	-3200,000
384,54	716,667
384,76	-1600,000
384,97	236,364
385,19	458,621
385,40	292,157
385,62	254,386
385,83	373,810
386,05	272,549
386,26	242,000
386,48	166,667
386,69	266,667
386,91	440,000
387,12	286,441
387,34	239,655
387,55	225,806
387,77	525,000
387,98	434,615
388,20	202,174
388,41	317,647
388,63	9500,000
388,84	196,721
389,06	333,333
389,27	626,316
389,49	436,111
389,70	246,939
389,92	180,000
390,13	263,265
390,35	274,510
390,56	266,667
390,78	522,222
390,99	980,000
391,21	489,474
391,42	271,111
391,64	341,463
391,85	177,586
392,07	227,273
392,28	128,000
392,50	284,848
392,71	-1037,500
392,93	203,846
393,14	405,556
393,36	226,531
393,57	103,759
393,79	877,778
394,00	300,000
394,22	124,658
394,43	172,289
394,65	241,860
394,86	1337,500
395,08	457,143
395,29	160,377
395,50	469,231
395,72	483,333
395,93	500,000
396,15	107,042
396,36	182,353
396,58	253,333
396,79	235,000
397,01	290,000
397,22	308,333
397,44	206,061
397,65	214,035
397,87	269,048
398,08	197,959
398,29	384,375
398,51	167,857
398,72	253,659
398,94	147,692
399,15	340,000
399,37	175,439
399,58	145,055
399,80	500,000
400,01	209,259
400,22	300,000
400,44	200,000
400,65	507,143
400,87	172,059
401,08	182,857
401,30	210,870
401,51	240,351
401,72	242,308
401,94	164,557
402,15	535,000
402,37	140,336
402,58	611,111
402,80	257,143
403,01	191,549
403,22	981,818
403,44	247,826
403,65	201,786
403,87	205,714
404,08	430,769
404,30	145,882
404,51	-3866,667
404,72	178,571
404,94	158,824
405,15	156,000
405,37	139,241
405,58	135,294
405,79	174,390
406,01	282,927
406,22	236,207
406,44	263,830
406,65	215,789
406,86	164,583
407,08	148,101
407,29	132,039
407,51	141,463
407,72	162,037
407,93	147,826
408,15	96,581
408,36	190,698
408,58	144,330
408,79	95,833
409,00	168,750
409,22	126,984
409,43	173,418
409,64	81,988
409,86	86,792
410,07	124,615
410,29	105,970
410,50	131,206
410,71	108,929
410,93	91,083
411,14	173,643
411,35	114,881
411,57	130,263
411,78	107,031
412,00	110,191
412,21	140,645
412,42	84,656
412,64	88,841
412,85	92,784
413,06	117,073
413,28	74,775
413,49	89,573
413,70	85,145
413,92	110,672
414,13	90,041
414,34	90,038
414,56	72,378
414,77	122,785
414,98	81,879
415,20	78,893
415,41	78,754
415,63	76,368
415,84	79,167
416,05	72,253
416,27	83,721
416,48	83,427
416,69	79,867
416,91	81,081
417,12	79,679
417,33	72,421
417,55	79,276
417,76	85,216
417,97	74,066
418,19	72,167
418,40	83,404
418,61	78,333
418,83	69,818
419,04	60,726
419,25	62,928
419,46	64,962
419,68	69,365
419,89	56,632
420,10	61,361
420,32	55,168
420,53	59,316
420,74	57,687
420,96	50,000
421,17	51,617
421,38	47,878
421,60	53,311
421,81	51,822
422,02	52,247
422,23	48,451
422,45	45,722
422,66	42,797
422,87	47,951
423,09	39,079
423,30	47,238
423,51	45,197
423,73	39,985
423,94	40,896
424,15	40,068
424,36	39,873
424,58	38,875
424,79	40,225
425,00	40,000
425,22	37,470
425,43	41,815
425,64	40,484
425,85	43,145
426,07	41,472
426,28	41,225
426,49	43,365
426,71	43,426
426,92	41,549
427,13	42,374
427,34	43,697
427,56	46,379
427,77	42,321
427,98	43,861
428,19	42,149
428,41	42,075
428,62	40,909
428,83	37,627
429,04	38,145
429,26	35,022
429,47	35,805
429,68	30,189
429,89	28,883
430,11	29,263
430,32	26,282
430,53	24,661
430,74	22,483
430,96	20,946
431,17	20,462
431,38	19,751
431,59	17,905
431,81	16,471
432,02	15,197
432,23	13,869
432,44	13,411
432,66	11,777
432,87	11,877
433,08	11,232
433,29	10,895
433,51	8,273
433,72	8,393
433,93	6,988
434,14	7,934
434,35	6,687
434,57	7,586
434,78	6,412
434,99	7,084
435,20	5,910
435,42	4,828
435,63	4,668
435,84	4,517
436,05	4,412
436,26	3,297
436,48	3,139
436,69	2,186
436,90	2,162
437,11	1,868
437,32	2,204
437,54	1,844
437,75	1,305
437,96	2,177
438,17	0,943
438,38	1,948
438,60	1,297
438,81	1,377
439,02	1,379
439,23	1,089
439,44	1,130
439,66	1,314
439,87	1,157
440,08	0,599
440,29	0,778
440,50	0,938
440,72	1,082
440,93	1,097
441,14	1,009
441,35	1,241
441,56	0,625
441,77	1,087
441,99	1,091
442,20	0,603
442,41	0,518
442,62	0,443
442,83	0,747
443,04	0,895
443,26	0,721
443,47	1,008
443,68	0,685
443,89	0,772
444,10	0,738
444,31	0,749
444,53	0,685
444,74	0,613
444,95	0,946
445,16	0,828
445,37	0,761
445,58	0,626
445,80	0,679
446,01	0,565
446,22	0,845
446,43	0,667
446,64	0,829
446,85	0,808
447,06	0,667
447,28	0,643
447,49	0,746
447,70	0,846
447,91	1,049
448,12	0,370
448,33	0,590
448,54	0,687
448,76	0,949
448,97	0,794
449,18	0,660
449,39	0,877
449,60	0,955
449,81	0,752
450,02	0,533
450,23	0,591
450,45	0,757
450,66	0,824
450,87	0,735
451,08	0,696
451,29	1,136
451,50	0,756
451,71	0,914
451,92	0,905
452,13	0,382
452,35	1,142
452,56	0,884
452,77	0,990
452,98	0,665
453,19	0,662
453,40	0,620
453,61	1,046
453,82	0,678
454,03	0,644
454,25	1,290
454,46	0,574
454,67	0,987
454,88	0,997
455,09	0,923
455,30	0,709
455,51	0,731
455,72	0,839
455,93	0,876
456,14	0,991
456,35	1,294
456,56	0,988
456,78	1,016
456,99	0,839
457,20	0,991
457,41	0,789
457,62	0,817
457,83	0,781
458,04	0,720
458,25	0,893
458,46	0,786
458,67	0,894
458,88	0,906
459,09	0,788
459,30	0,809
459,51	0,769
459,73	0,751
459,94	1,167
460,15	0,962
460,36	0,771
460,57	0,843
460,78	0,637
460,99	0,727
461,20	0,788
461,41	0,988
461,62	0,901
461,83	1,158
462,04	1,412
462,25	1,639
462,46	1,743
462,67	1,972
462,88	2,355
463,09	2,699
463,30	2,875
463,51	3,513
463,72	4,203
463,93	4,512
464,15	4,877
464,36	5,723
464,57	6,389
464,78	7,247
464,99	8,029
465,20	8,724
465,41	9,909
465,62	10,920
465,83	12,329
466,04	13,490
466,25	14,707
466,46	16,425
466,67	17,917
466,88	19,410
467,09	21,203
467,30	22,643
467,51	24,715
467,72	26,075
467,93	27,283
468,14	28,995
468,35	31,940
468,56	33,867
468,77	36,166
468,98	38,579
469,19	40,286
469,40	42,288
469,61	44,371
469,82	45,610
470,03	47,735
470,24	48,761
470,45	50,087
470,66	50,995
470,87	52,228
471,08	52,874
471,29	53,084
471,50	53,646
471,71	52,380
471,92	53,830
472,13	52,878
472,34	52,215
472,55	51,861
472,76	50,481
472,97	49,522
473,18	48,245
473,39	47,082
473,60	45,800
473,81	45,885
474,01	44,266
474,22	45,224
474,43	43,555
474,64	44,327
474,85	44,037
475,06	44,628
475,27	45,048
475,48	46,864
475,69	47,231
475,90	49,838
476,11	51,259
476,32	53,688
476,53	55,858
476,74	57,652
476,95	60,666
477,16	62,103
477,37	63,533
477,58	65,476
477,79	66,647
478,00	68,173
478,21	69,512
478,41	69,752
478,62	69,801
478,83	69,996
479,04	70,346
479,25	68,261
479,46	67,784
479,67	67,256
479,88	66,252
480,09	65,587
480,30	64,968
480,51	64,898
480,72	63,744
480,93	63,607
481,14	64,655
481,34	63,711
481,55	65,077
481,76	64,649
481,97	65,743
482,18	67,096
482,39	67,559
482,60	67,871
482,81	68,330
483,02	68,617
483,23	70,251
483,44	70,914
483,65	71,292
483,85	72,698
484,06	73,373
484,27	72,979
484,48	74,084
484,69	74,106
484,90	73,907
485,11	75,124
485,32	75,271
485,53	75,025
485,73	75,925
485,94	75,609
486,15	75,129
486,36	74,102
486,57	74,375
486,78	73,581
486,99	73,623
487,20	72,572
487,41	71,908
487,61	71,766
487,82	71,129
488,03	70,331
488,24	70,415
488,45	70,707
488,66	69,344
488,87	69,417
489,08	67,904
489,28	66,969
489,49	66,652
489,70	65,056
489,91	65,642
490,12	63,721
490,33	63,164
490,54	61,911
490,74	60,496
490,95	59,681
491,16	58,924
491,37	58,715
491,58	58,063
491,79	58,288
492,00	58,088
492,20	58,228
492,41	58,132
492,62	57,768
492,83	57,775
493,04	58,532
493,25	58,897
493,45	58,278
493,66	58,057
493,87	57,930
494,08	58,007
494,29	58,134
494,50	58,764
494,70	59,757
494,91	61,178
495,12	61,522
495,33	61,955
495,54	62,332
495,75	63,188
495,95	63,180
496,16	63,649
496,37	64,308
496,58	64,620
496,79	65,257
496,99	65,210
497,20	65,427
497,41	65,304
497,62	65,152
497,83	64,624
498,04	64,020
498,24	63,707
498,45	62,514
498,66	61,869
498,87	61,185
499,08	60,448
499,28	59,996
499,49	59,209
499,70	57,609
499,91	56,927
500,12	55,313
500,32	54,143
500,53	53,353
500,74	51,988
500,95	51,399
501,15	51,130
501,36	50,211
501,57	49,254
501,78	48,848
501,99	47,625
502,19	46,743
502,40	45,650
502,61	45,734
502,82	44,162
503,02	44,013
503,23	43,182
503,44	42,554
503,65	41,583
503,86	40,525
504,06	39,665
504,27	39,072
504,48	37,998
504,69	36,488
504,89	35,215
505,10	34,177
505,31	33,390
505,52	31,916
505,72	30,773
505,93	29,888
506,14	28,537
506,35	26,787
506,55	25,826
506,76	24,373
506,97	23,756
507,18	22,653
507,38	21,461
507,59	19,838
507,80	18,974
508,01	17,888
508,21	16,291
508,42	15,535
508,63	14,301
508,84	13,192
509,04	12,033
509,25	11,067
509,46	10,189
509,67	9,144
509,87	8,263
510,08	7,473
510,29	6,676
510,49	5,703
510,70	4,768
510,91	4,297
511,12	3,621
511,32	2,949
511,53	2,756
511,74	2,047
511,94	1,923
512,15	1,440
512,36	1,307
512,57	1,083
512,77	0,979
512,98	0,723
513,19	0,581
513,39	0,664
513,60	0,645
513,81	0,744
514,01	0,793
514,22	0,851
514,43	0,948
514,64	0,533
514,84	0,720
515,05	0,569
515,26	0,531
515,46	0,650
515,67	0,397
515,88	0,609
516,08	0,714
516,29	0,705
516,50	0,524
516,70	0,682
516,91	0,760
517,12	0,670
517,32	0,665
517,53	0,504
517,74	0,709
517,95	0,562
518,15	0,799
518,36	0,730
518,57	0,586
518,77	0,453
518,98	0,596
519,19	0,429
519,39	0,525
519,60	0,547
519,80	0,676
520,01	0,501
520,22	0,634
520,42	0,706
520,63	0,636
520,84	0,614
521,04	0,566
521,25	0,941
521,46	0,693
521,66	0,489
521,87	0,549
522,08	0,600
522,28	0,768
522,49	0,457
522,70	0,760
522,90	0,669
523,11	0,549
523,31	0,841
523,52	0,536
523,73	0,585
523,93	0,573
524,14	0,529
524,35	0,577
524,55	0,688
524,76	0,564
524,97	0,692
525,17	0,709
525,38	0,389
525,58	0,927
525,79	0,497
526,00	0,580
526,20	0,702
526,41	0,544
526,61	0,483
526,82	0,703
527,03	0,626
527,23	0,658
527,44	0,684
527,64	0,557
527,85	0,542
528,06	0,698
528,26	0,855
528,47	0,667
528,68	0,562
528,88	0,765
529,09	0,632
529,29	0,692
529,50	0,631
529,70	0,756
529,91	0,751
530,12	0,595
530,32	0,530
530,53	0,733
530,73	0,785
530,94	0,651
531,15	0,977
531,35	0,787
531,56	0,679
531,76	0,712
531,97	0,896
532,17	0,962
532,38	0,963
532,59	1,110
532,79	1,338
533,00	1,364
533,20	1,507
533,41	1,475
533,61	1,681
533,82	2,326
534,03	2,220
534,23	3,106
534,44	3,337
534,64	3,796
534,85	4,293
535,05	4,848
535,26	5,340
535,46	6,368
535,67	7,375
535,88	8,091
536,08	9,242
536,29	10,577
536,49	11,750
536,70	13,330
536,90	15,061
537,11	16,401
537,31	18,072
537,52	20,046
537,72	22,139
537,93	24,122
538,13	25,495
538,34	27,685
538,55	29,803
538,75	31,586
538,96	32,945
539,16	35,420
539,37	37,346
539,57	39,061
539,78	40,702
539,98	42,970
540,19	43,906
540,39	44,996
540,60	45,918
540,80	47,631
541,01	49,433
541,21	50,252
541,42	51,453
541,62	51,864
541,83	53,549
542,03	55,255
542,24	56,672
542,44	58,459
542,65	58,927
542,85	61,262
543,06	61,707
543,26	63,472
543,47	65,699
543,67	66,381
543,88	68,028
544,08	69,369
544,29	70,005
544,49	70,503
544,70	70,480
544,90	70,927
545,11	70,590
545,31	70,121
545,52	69,449
545,72	69,449
545,93	69,599
546,13	68,564
546,34	68,935
546,54	67,068
546,75	66,648
546,95	66,941
547,15	66,808
547,36	66,640
547,56	66,319
547,77	66,832
547,97	67,135
548,18	67,703
548,38	67,906
548,59	68,594
548,79	69,426
549,00	69,786
549,20	70,998
549,41	71,759
549,61	73,212
549,81	73,457
550,02	73,624
550,22	74,674
550,43	75,663
550,63	76,781
550,84	75,865
551,04	77,640
551,25	79,357
551,45	79,126
551,65	79,960
551,86	81,098
552,06	81,518
552,27	81,685
552,47	82,642
552,68	85,031
552,88	83,125
553,08	84,033
553,29	84,620
553,49	84,415
553,70	85,114
553,90	85,236
554,11	85,857
554,31	85,533
554,51	85,581
554,72	86,210
554,92	86,181
555,13	85,768
555,33	86,329
555,53	86,149
555,74	85,189
555,94	85,554
556,15	84,969
556,35	84,248
556,56	83,458
556,76	82,947
556,96	81,832
557,17	80,587
557,37	79,389
557,58	78,876
557,78	77,441
557,98	76,306
558,19	74,068
558,39	73,572
558,59	71,790
558,80	69,679
559,00	69,011
559,21	67,566
559,41	66,398
559,61	64,302
559,82	64,034
560,02	62,790
560,23	61,220
560,43	60,773
560,63	59,320
560,84	58,237
561,04	57,818
561,24	57,888
561,45	56,817
561,65	56,822
561,85	56,133
562,06	55,057
562,26	55,501
562,47	55,363
562,67	55,802
562,87	54,992
563,08	54,503
563,28	53,784
563,48	53,022
563,69	52,624
563,89	51,577
564,09	50,304
564,30	49,951
564,50	49,194
564,70	48,236
564,91	47,234
565,11	45,222
565,31	44,164
565,52	43,175
565,72	42,088
565,92	41,062
566,13	40,316
566,33	39,595
566,53	38,651
566,74	38,283
566,94	37,183
567,14	37,073
567,35	36,288
567,55	36,651
567,75	36,325
567,96	36,556
568,16	36,544
568,36	36,752
568,57	36,205
568,77	35,826
568,97	35,906
569,18	35,261
569,38	35,649
569,58	34,722
569,79	34,281
569,99	34,646
570,19	33,570
570,39	33,776
570,60	32,344
570,80	31,502
571,00	31,315
571,21	30,844
571,41	30,310
571,61	29,424
571,82	29,244
572,02	28,927
572,22	28,677
572,42	28,199
572,63	27,558
572,83	27,282
573,03	27,252
573,24	26,930
573,44	26,692
573,64	26,335
573,84	25,839
574,05	25,390
574,25	25,842
574,45	24,197
574,66	23,894
574,86	23,360
575,06	23,076
575,26	21,782
575,47	21,238
575,67	20,788
575,87	19,578
576,07	18,076
576,28	17,037
576,48	15,559
576,68	14,199
576,88	12,815
577,09	12,005
577,29	10,479
577,49	10,085
577,69	8,693
577,90	7,887
578,10	6,809
578,30	5,988
578,50	5,346
578,71	4,782
578,91	3,882
579,11	3,410
579,31	3,073
579,52	2,530
579,72	2,134
579,92	1,932
580,12	1,611
580,33	1,607
580,53	1,297
580,73	1,073
580,93	0,958
581,13	0,715
581,34	0,754
581,54	0,785
581,74	0,589
581,94	0,811
582,15	0,429
582,35	0,385
582,55	0,724
582,75	0,604
582,95	0,621
583,16	0,413
583,36	0,639
583,56	0,670
583,76	0,335
583,96	0,695
584,17	0,459
584,37	0,583
584,57	0,383
584,77	0,505
584,97	0,531
585,18	0,532
585,38	0,435
585,58	0,495
585,78	0,381
585,98	0,494
586,19	0,611
586,39	0,459
586,59	0,491
586,79	0,386
586,99	0,463
587,20	0,330
587,40	0,513
587,60	0,344
587,80	0,627
588,00	0,509
588,20	0,366
588,41	0,635
588,61	0,405
588,81	0,315
589,01	0,458
589,21	0,470
589,41	0,518
589,62	0,444
589,82	0,423
590,02	0,227
590,22	0,593
590,42	0,344
590,62	0,469
590,83	0,363
591,03	0,501
591,23	0,266
591,43	0,581
591,63	0,475
591,83	0,360
592,03	0,466
592,24	0,481
592,44	0,534
592,64	0,485
592,84	0,539
593,04	0,568
593,24	0,400
593,44	0,478
593,65	0,489
593,85	0,434
594,05	0,287
594,25	0,603
594,45	0,427
594,65	0,441
594,85	0,526
595,06	0,440
595,26	0,682
595,46	0,331
595,66	0,432
595,86	0,622
596,06	0,425
596,26	0,452
596,46	0,283
596,66	0,471
596,87	0,430
597,07	0,465
597,27	0,387
597,47	0,417
597,67	0,529
597,87	0,529
598,07	0,429
598,27	0,486
598,47	0,512
598,67	0,364
598,88	0,449
599,08	0,505
599,28	0,383
599,48	0,471
599,68	0,330
599,88	0,420
600,08	0,631
600,28	0,557
600,48	0,362
600,68	0,466
600,88	0,616
601,09	0,447
601,29	0,536
601,49	0,578
601,69	0,611
601,89	0,466
602,09	0,451
602,29	0,612
602,49	0,612
602,69	0,456
602,89	0,601
603,09	0,547
603,29	0,462
603,49	0,522
603,69	0,641
603,90	0,598
604,10	0,681
604,30	0,732
604,50	0,614
604,70	1,015
604,90	0,704
605,10	0,901
605,30	1,012
605,50	1,197
605,70	1,158
605,90	1,298
606,10	1,635
606,30	1,955
606,50	2,309
606,70	2,382
606,90	2,659
607,10	3,064
607,30	3,511
607,50	3,684
607,70	4,547
607,90	4,889
608,10	5,457
608,30	6,169
608,50	7,054
608,70	7,475
608,90	8,567
609,11	9,695
609,31	10,207
609,51	11,523
609,71	12,491
609,91	13,443
610,11	14,750
610,31	15,736
610,51	17,461
610,71	18,935
610,91	19,795
611,11	21,743
611,31	22,804
611,51	24,840
611,71	25,499
611,91	27,129
612,11	28,532
612,31	29,524
612,51	30,443
612,71	31,687
612,91	32,889
613,11	33,672
613,31	35,160
613,51	35,243
613,71	36,200
613,91	37,097
614,11	38,149
614,31	39,242
614,50	40,154
614,70	41,113
614,90	41,583
615,10	42,809
615,30	43,881
615,50	45,024
615,70	46,700
615,90	48,528
616,10	49,414
616,30	51,364
616,50	52,040
616,70	54,199
616,90	55,907
617,10	57,684
617,30	59,701
617,50	61,905
617,70	63,679
617,90	65,109
618,10	66,206
618,30	68,704
618,50	69,739
618,70	71,498
618,90	72,901
619,10	73,269
619,30	73,982
619,49	75,051
619,69	76,151
619,89	76,312
620,09	77,724
620,29	78,951
620,49	78,076
620,69	77,977
620,89	77,753
621,09	76,907
621,29	77,089
621,49	76,002
621,69	74,911
621,89	74,323
622,09	72,498
622,29	72,493
622,48	71,698
622,68	70,132
622,88	68,893
623,08	67,167
623,28	66,432
623,48	65,393
623,68	65,255
623,88	63,261
624,08	62,645
624,28	62,018
624,48	60,719
624,67	59,522
624,87	58,385
625,07	57,506
625,27	56,639
625,47	56,506
625,67	56,226
625,87	54,928
626,07	53,533
626,27	53,890
626,47	53,948
626,66	53,337
626,86	52,523
627,06	52,326
627,26	51,928
627,46	51,756
627,66	51,387
627,86	50,726
628,06	51,216
628,25	50,243
628,45	51,342
628,65	50,527
628,85	49,585
629,05	50,215
629,25	48,885
629,45	48,899
629,65	49,050
629,84	48,453
630,04	48,780
630,24	48,243
630,44	47,982
630,64	48,094
630,84	48,247
631,04	47,229
631,23	47,602
631,43	47,977
631,63	47,280
631,83	47,836
632,03	46,996
632,23	47,173
632,42	46,958
632,62	47,198
632,82	47,013
633,02	46,564
633,22	47,146
633,42	46,725
633,62	46,729
633,81	47,278
634,01	46,063
634,21	45,471
634,41	46,613
634,61	45,690
634,80	45,468
635,00	44,675
635,20	44,782
635,40	43,515
635,60	42,835
635,80	42,480
635,99	41,692
636,19	41,004
636,39	40,297
636,59	39,654
636,79	39,349
636,98	38,245
637,18	38,198
637,38	36,793
637,58	36,273
637,78	35,772
637,97	34,903
638,17	34,458
638,37	33,503
638,57	33,548
638,77	32,986
638,96	32,590
639,16	31,719
639,36	31,296
639,56	31,824
639,76	30,966
639,95	30,150
640,15	28,877
640,35	28,515
640,55	27,480
640,75	25,674
640,94	25,034
641,14	23,910
641,34	22,491
641,54	21,005
641,73	20,276
641,93	18,835
642,13	17,624
642,33	16,044
642,53	15,399
642,72	13,521
642,92	13,170
643,12	12,061
643,32	11,168
643,51	10,829
643,71	10,030
643,91	10,004
644,11	9,868
644,30	9,245
644,50	9,274
644,70	10,026
644,90	10,150
645,09	11,490
645,29	11,342
645,49	12,235
645,69	13,242
645,88	13,204
646,08	14,045
646,28	14,738
646,48	14,709
646,67	14,934
646,87	14,966
647,07	15,511
647,26	15,427
647,46	15,424
647,66	14,818
647,86	14,571
648,05	13,353
648,25	13,785
648,45	12,982
648,65	12,289
648,84	11,353
649,04	11,262
649,24	10,983
649,43	9,726
649,63	9,763
649,83	8,567
650,03	8,328
650,22	8,195
650,42	7,698
650,62	6,670
650,81	6,810
651,01	5,945
651,21	5,591
651,40	5,316
651,60	4,919
651,80	4,116
652,00	4,049
652,19	2,997
652,39	3,422
652,59	2,887
652,78	2,786
652,98	2,135
653,18	1,624
653,37	1,868
653,57	1,547
653,77	1,212
653,96	1,152
654,16	1,237
654,36	1,115
654,55	1,706
654,75	1,113
654,95	1,412
655,14	0,771
655,34	1,106
655,54	0,663
655,73	0,471
655,93	1,159
656,13	0,582
656,32	0,577
656,52	0,743
656,72	1,098
656,91	1,192
657,11	1,165
657,31	0,678
657,50	1,112
657,70	0,824
657,90	0,732
658,09	0,748
658,29	1,342
658,49	0,913
658,68	0,638
658,88	1,191
659,07	0,759
659,27	0,588
659,47	0,677
659,66	0,348
659,86	0,820
660,06	0,681
660,25	0,397
660,45	0,884
660,64	0,736
660,84	0,853
661,04	0,857
661,23	0,695
661,43	0,863
661,63	0,993
661,82	0,406
662,02	0,724
662,21	0,763
662,41	0,615
662,61	0,927
662,80	0,335
663,00	0,795
663,19	1,176
663,39	1,037
663,59	1,211
663,78	0,403
663,98	0,837
664,17	0,719
664,37	0,997
664,57	0,825
664,76	1,008
664,96	1,065
665,15	0,584
665,35	0,886
665,55	0,539
665,74	0,743
665,94	0,802
666,13	1,182
666,33	0,681
666,53	1,098
666,72	0,707
666,92	0,840
667,11	1,061
667,31	0,625
667,50	0,883
667,70	0,798
667,90	0,862
668,09	0,837
668,29	0,820
668,48	0,759
668,68	0,978
668,87	0,742
669,07	1,041
669,26	1,232
669,46	0,756
669,66	0,886
669,85	0,849
670,05	0,463
670,24	0,925
670,44	0,971
670,63	1,030
670,83	0,804
671,02	1,082
671,22	0,936
671,42	0,656
671,61	0,745
671,81	0,555
672,00	0,884
672,20	0,768
672,39	0,607
672,59	0,396
672,78	0,668
672,98	0,658
673,17	0,690
673,37	0,561
673,56	0,670
673,76	0,586
673,95	0,634
674,15	0,505
674,34	0,621
674,54	0,432
674,73	0,895
674,93	0,664
675,13	0,360
675,32	0,784
675,52	0,998
675,71	0,709
675,91	0,616
676,10	0,514
676,30	0,519
676,49	0,380
676,69	0,701
676,88	0,661
677,08	0,452
677,27	0,596
677,47	0,480
677,66	0,377
677,86	0,622
678,05	0,706
678,24	0,295
678,44	0,582
678,63	0,563
678,83	0,454
679,02	0,720
679,22	0,442
679,41	0,540
679,61	0,369
679,80	0,329
680,00	0,409
680,19	0,507
680,39	0,694
680,58	0,245
680,78	0,258
680,97	0,400
681,17	0,633
681,36	0,491
681,56	0,660
681,75	0,517
681,94	0,543
682,14	0,622
682,33	0,675
682,53	0,654
682,72	0,484
682,92	0,531
683,11	0,553
683,31	0,378
683,50	0,331
683,69	0,335
683,89	0,364
684,08	0,390
684,28	0,334
684,47	0,466
684,67	0,585
684,86	0,131
685,06	0,293
685,25	0,404
685,44	0,455
685,64	0,248
685,83	0,360
686,03	0,160
686,22	0,317
686,42	0,305
686,61	0,405
686,80	0,484
687,00	0,303
687,19	0,645
687,39	0,182
687,58	0,255
687,77	0,209
687,97	0,342
688,16	0,279
688,36	0,203
688,55	0,375
688,74	0,457
688,94	0,224
689,13	0,532
689,33	0,439
689,52	0,354
689,71	0,337
689,91	0,265
690,10	0,395
690,30	0,207
690,49	0,345
690,68	0,384
690,88	0,341
691,07	0,274
691,27	0,383
691,46	0,251
691,65	0,488
691,85	0,539
692,04	0,145
692,23	0,256
692,43	0,298
692,62	0,331
692,82	0,384
693,01	0,312
693,20	0,469
693,40	0,104
693,59	0,538
693,78	0,272
693,98	0,245
694,17	0,505
694,36	0,458
694,56	0,561
694,75	0,287
694,94	0,322
695,14	0,518
695,33	0,297
695,53	0,174
695,72	0,585
695,91	0,334
696,11	0,416
696,30	0,379
696,49	0,384
696,69	0,378
696,88	0,179
697,07	0,216
697,27	0,468
697,46	0,193
697,65	0,400
697,85	0,422
698,04	0,716
698,23	0,445
698,43	0,564
698,62	0,435
698,81	0,259
699,01	1,047
699,20	0,541
699,39	0,576
699,58	0,640
699,78	0,931
699,97	0,277
700,16	1,059
700,36	0,731
700,55	1,096
700,74	0,367
700,94	1,112
701,13	0,836
701,32	0,980
701,52	1,227
701,71	0,865
701,90	0,640
702,09	1,047
702,29	1,295
702,48	1,328
702,67	0,688
702,87	1,211
703,06	1,260
703,25	1,086
703,44	1,057
703,64	1,935
703,83	1,241
704,02	0,859
704,22	1,218
704,41	0,367
704,60	1,919
704,79	1,054
704,99	1,854
705,18	2,298
705,37	1,092
705,56	1,743
705,76	2,647
705,95	1,612
706,14	0,979
706,33	2,818
706,53	2,682
706,72	2,344
706,91	2,381
707,11	2,726
707,30	3,028
707,49	3,449
707,68	1,636
707,88	2,635
708,07	1,441
708,26	2,075
708,45	2,501
708,64	2,750
708,84	3,089
709,03	1,700
709,22	2,016
709,41	3,077
709,61	2,171
709,80	3,562
709,99	2,600
710,18	3,887
710,38	3,452
710,57	1,098
710,76	3,712
710,95	3,199
711,14	3,954
711,34	2,222
711,53	3,843
711,72	3,335
711,91	3,069
712,11	5,414
712,30	4,990
712,49	5,240
712,68	2,630
712,87	4,574
713,07	5,437
713,26	2,790
713,45	5,447
713,64	3,519
713,83	2,146
714,03	5,685
714,22	2,955
714,41	4,221
714,60	4,382
714,79	3,687
714,99	3,986
715,18	4,207
715,37	7,089
715,56	5,370
715,75	5,126
715,94	3,236
716,14	3,577
716,33	3,825
716,52	2,859
716,71	5,196
716,90	5,722
717,10	6,140
717,29	3,429
717,48	5,211
717,67	5,857
717,86	4,388
718,05	2,758
718,24	6,111
718,44	4,275
718,63	3,448
718,82	7,620
719,01	6,675
719,20	5,712
719,39	5,639
719,59	4,659
719,78	5,277
719,97	7,531
720,16	3,907
720,35	8,357
720,54	9,379
720,73	5,933
720,93	5,591
721,12	3,026
721,31	6,034
721,50	8,531
721,69	6,517
721,88	7,089
722,07	5,734
722,27	4,959
722,46	4,600
722,65	4,824
722,84	8,399
723,03	8,305
723,22	7,804
723,41	6,824
723,60	8,438
723,79	8,998
723,99	7,904
724,18	10,027
724,37	10,526
724,56	8,921
724,75	7,843
724,94	12,816
725,13	16,176
725,32	7,319
725,51	12,214
725,71	5,682
725,90	11,080
726,09	11,051
726,28	9,786
726,47	9,180
726,66	7,907
726,85	9,734
727,04	6,646
727,23	8,847
727,42	11,902
727,61	6,455
727,81	8,551
728,00	9,746
728,19	8,810
728,38	9,179
728,57	12,264
728,76	10,334
728,95	12,723
729,14	6,908
729,33	15,587
729,52	14,623
729,71	15,155
729,90	9,185
730,09	7,360
730,28	8,891
730,48	12,645
730,67	9,794
730,86	7,090
731,05	11,682
731,24	11,628
731,43	9,182
731,62	11,779
731,81	9,022
732,00	11,309
732,19	8,557
732,38	7,068
732,57	11,717
732,76	15,119
732,95	9,200
733,14	8,973
733,33	9,341
733,52	17,312
733,71	13,921
733,90	13,753
734,09	7,990
734,28	14,621
734,47	11,447
734,66	10,448
734,85	12,057
735,04	14,033
735,23	13,889
735,42	10,951
735,61	17,600
735,81	16,414
736,00	18,373
736,19	19,379
736,38	12,000
736,57	16,295
736,76	11,473
736,95	13,636
737,14	17,021
737,33	12,360
737,52	14,178
737,71	15,705
737,90	15,582
738,09	18,712
738,28	14,354
738,47	16,993
738,66	20,937
738,85	11,340
739,04	17,317
739,22	7,601
739,41	16,935
739,60	13,378
739,79	15,925
739,98	13,612
740,17	18,197
740,36	19,286
740,55	22,399
740,74	15,130
740,93	12,805
741,12	18,750
741,31	17,279
741,50	10,734
741,69	13,519
741,88	13,600
742,07	16,245
742,26	15,918
742,45	12,055
742,64	22,122
742,83	8,511
743,02	18,559
743,21	22,938
743,40	14,779
743,59	18,443
743,78	21,179
743,97	26,128
744,16	9,756
744,34	24,606
744,53	19,467
744,72	30,146
744,91	13,684
745,10	23,044
745,29	19,385
745,48	15,656
745,67	28,513
745,86	15,962
746,05	23,059
746,24	23,965
746,43	32,151
746,62	10,138
746,81	16,895
747,00	17,954
747,18	27,033
747,37	13,646
747,56	17,079
747,75	28,228
747,94	26,258
748,13	27,397
748,32	23,504
748,51	27,991
748,70	27,578
748,89	26,087
749,08	12,286
749,26	21,241
749,45	27,529
749,64	24,069
749,83	25,191
750,02	33,978
750,21	16,422
750,40	15,885
750,59	24,292
750,78	26,627
750,96	29,609
751,15	25,956
751,34	28,796
751,53	36,207
751,72	25,337
751,91	23,562
752,10	12,037
752,29	22,599
752,47	27,528
752,66	34,930
752,85	17,337
753,04	27,760
753,23	9,603
753,42	32,219
753,61	14,706
753,80	23,577
753,98	22,456
754,17	32,822
754,36	31,638
754,55	20,376
754,74	43,353
754,93	22,190
755,12	25,867
755,30	26,593
755,49	37,003
755,68	31,988
755,87	24,324
756,06	24,022
756,25	26,667
756,43	17,586
756,62	31,751
756,81	23,432
757,00	32,754
757,19	34,589
757,38	31,230
757,56	26,129
757,75	26,471
757,94	29,968
758,13	37,338
758,32	34,470
758,51	34,926
758,69	36,800
758,88	35,435
759,07	39,427
759,26	37,209
759,45	40,175
759,63	34,944
759,82	22,222
760,01	22,408
760,20	54,086
760,39	45,896
760,57	39,669
760,76	42,793
760,95	37,500
761,14	43,265
761,33	32,813
761,51	44,803
761,70	42,069
761,89	31,557
762,08	42,791
762,27	39,927
762,45	37,354
762,64	31,502
762,83	46,903
763,02	44,186
763,21	28,017
763,39	42,857
763,58	44,528
763,77	31,274
763,96	60,241
764,14	45,833
764,33	35,531
764,52	59,227
764,71	29,596
764,89	42,157
765,08	35,776
765,27	52,416
765,46	43,478
765,65	38,428
765,83	43,723
766,02	34,894
766,21	73,481
766,40	37,143
766,58	35,772
766,77	46,766
766,96	57,273
767,15	38,164
767,33	39,766
767,52	42,683
767,71	59,565
767,90	30,899
768,08	50,584
768,27	35,000
768,46	42,187
768,64	54,922
768,83	45,833
769,02	54,000
769,21	43,668
769,39	55,814
769,58	45,665
769,77	66,284
769,96	64,921
770,14	36,054
770,33	55,140
770,52	47,090
770,70	48,000
770,89	63,758
771,08	40,678
771,27	60,309
771,45	44,298
771,64	67,187
771,83	68,224
772,01	47,590
772,20	69,347
772,39	46,000
772,57	51,163
772,76	42,963
772,95	57,447
773,14	67,742
773,32	59,355
773,51	40,796
773,70	68,125
773,88	74,317
774,07	68,586
774,26	46,809
774,44	53,049
774,63	62,437
774,82	70,732
775,00	74,000
775,19	61,600
775,38	60,694
775,56	61,979
775,75	66,867
775,94	64,557
776,12	32,044
776,31	65,294
776,50	57,386
776,68	58,421
776,87	56,818
777,06	85,517
777,24	68,889
777,43	59,615
777,62	83,824
777,80	78,378
777,99	55,429
778,18	64,356
778,36	99,200
778,55	86,777
778,74	75,694
778,92	84,024
779,11	64,167
779,29	59,748
779,48	51,020
779,67	75,194
779,85	73,171
780,04	51,351
780,23	54,676
780,41	71,094
780,60	54,737
780,79	64,972
780,97	76,316
781,16	25,455
781,34	89,691
781,53	85,470
781,72	62,044
781,90	57,031
782,09	62,581
782,28	116,058
782,46	76,296
782,65	65,714
782,83	53,933
783,02	71,250
783,21	94,000
783,39	76,522
783,58	56,805
783,76	74,302
783,95	58,788
784,14	52,318
784,32	76,510
784,51	61,207
784,69	89,831
784,88	100,000
785,06	86,555
785,25	69,427
785,44	55,396
785,62	81,429
785,81	138,028
785,99	100,000
786,18	81,757
786,37	74,074
786,55	50,459
786,74	55,263
786,92	77,344
787,11	62,500
787,29	81,343
787,48	46,000
787,67	108,434
787,85	125,000
788,04	74,257
788,22	98,361
788,41	69,412
788,59	121,101
788,78	84,242
788,96	64,151
789,15	108,421
789,34	83,636
789,52	80,531
789,71	81,395
789,89	151,064
790,08	97,945
790,26	67,143
790,45	55,303
790,63	71,296
790,82	71,515
791,00	83,333
791,19	88,172
791,38	91,667
791,56	75,439
791,75	106,422
791,93	97,701
792,12	49,704
792,30	86,400
792,49	59,664
792,67	86,567
792,86	71,318
793,04	71,963
793,23	63,333
793,41	106,329
793,60	108,081
793,78	91,228
793,97	117,949
794,15	99,091
794,34	90,110
794,52	151,948
794,71	148,148
794,89	103,333
795,08	108,738
795,26	80,556
795,45	117,910
795,63	128,788
795,82	94,393
796,00	64,220
796,19	105,000
796,37	71,533
796,56	111,828
796,74	77,876
796,93	70,787
797,11	112,658
797,30	80,000
797,48	91,034
797,67	110,000
797,85	100,000
798,04	102,083
798,22	112,698
798,41	94,118
798,59	97,895
798,77	123,077
798,96	86,022
799,14	95,690
799,33	87,023
799,51	70,769
799,70	67,114
799,88	100,000
800,07	82,895
800,25	59,310
800,44	104,040
800,62	91,765
800,80	123,188
800,99	157,143
801,17	77,586
801,36	63,448
801,54	110,417
801,73	89,899
801,91	79,508
802,10	89,286
802,28	104,673
802,46	109,877
802,65	98,851
802,83	140,449
803,02	105,263
803,20	89,063
803,39	63,793
803,57	104,819
803,75	75,676
803,94	98,319
804,12	73,333
804,31	110,619
804,49	124,038
804,67	67,200
804,86	71,429
805,04	100,676
805,23	93,103
805,41	102,459
805,59	89,344
805,78	84,848
805,96	83,333
806,15	82,031
806,33	101,681
806,51	79,646
806,70	196,667
806,88	106,504
807,07	98,413
807,25	89,937
807,43	108,609
807,62	87,805
807,80	116,129
807,99	111,905
808,17	103,546
808,35	91,228
808,54	98,925
808,72	85,600
808,90	132,895
809,09	60,833
809,27	103,604
809,46	112,500
809,64	88,235
809,82	78,161
810,01	84,091
810,19	119,000
810,37	75,385
810,56	100,000
810,74	68,212
810,92	92,424
811,11	107,843
811,29	71,631
811,48	98,990
811,66	100,775
811,84	108,257
812,03	88,182
812,21	75,641
812,39	95,763
812,58	63,725
812,76	82,243
812,94	88,667
813,13	84,921
813,31	88,333
813,49	153,261
813,68	57,391
813,86	55,102
814,04	127,184
814,23	142,424
814,41	72,059
814,59	85,311
814,78	63,971
814,96	85,586
815,14	112,222
815,33	81,159
815,51	68,889
815,69	75,309
815,87	98,261
816,06	90,000
816,24	98,675
816,42	51,923
816,61	94,068
816,79	128,916
816,97	82,883
817,16	50,323
817,34	86,207
817,52	111,724
817,70	123,810
817,89	66,116
818,07	59,483
818,25	72,973
818,44	75,000
818,62	72,414
818,80	76,923
818,98	85,714
819,17	73,846
819,35	61,765
819,53	73,267
819,72	77,326
819,90	59,281
820,08	53,896
820,26	95,614
820,45	101,205
820,63	78,646
820,81	67,114
820,99	74,436
821,18	54,074
821,36	78,095
821,54	79,070
821,73	83,243
821,91	54,787
822,09	70,000
822,27	31,472
822,46	49,375
822,64	76,159
822,82	62,439
823,00	54,955
823,19	34,091
823,37	82,143
823,55	62,941
823,73	59,333
823,91	51,934
824,10	73,184
824,28	77,778
824,46	48,837
824,64	54,902
824,83	56,911
825,01	57,246
825,19	78,286
825,37	44,792
825,56	69,375
825,74	63,810
825,92	48,876
826,10	61,491
826,28	66,443
826,47	70,732
826,65	73,649
826,83	84,946
827,01	31,818
827,19	90,506
827,38	60,104
827,56	47,596
827,74	58,130
827,92	62,927
828,10	66,848
828,29	70,000
828,47	64,912
828,65	56,757
828,83	56,061
829,01	56,000
829,20	44,304
829,38	50,207
829,56	63,158
829,74	84,848
829,92	65,979
830,10	66,667
830,29	64,865
830,47	67,187
830,65	34,821
830,83	44,000
831,01	34,167
831,20	56,436
831,38	56,585
831,56	60,729
831,74	66,857
831,92	58,523
832,10	53,182
832,29	58,768
832,47	55,752
832,65	62,979
832,83	53,488
833,01	41,502
833,19	51,584
833,37	45,185
833,56	52,113
833,74	56,680
833,92	40,265
834,10	63,959
834,28	49,615
834,46	41,869
834,64	39,844
834,83	35,154
835,01	54,086
835,19	29,858
835,37	43,426
835,55	50,542
835,73	43,750
835,91	40,541
836,09	46,058
836,28	46,183
836,46	46,316
836,64	79,508
836,82	33,955
837,00	49,320
837,18	40,316
837,36	36,364
837,54	39,394
837,72	36,255
837,91	46,586
838,09	28,400
838,27	47,985
838,45	50,809
838,63	32,881
838,81	47,697
838,99	40,418
839,17	46,602
839,35	42,593
839,53	47,315
839,72	35,169
839,90	29,179
840,08	33,333
840,26	40,379
840,44	13,889
840,62	48,485
840,80	36,420
840,98	22,054
841,16	33,452
841,34	30,435
841,52	24,281
841,70	24,579
841,89	44,194
842,07	29,730
842,25	24,026
842,43	38,710
842,61	42,895
842,79	37,805
842,97	28,354
843,15	33,811
843,33	25,653
843,51	34,606
843,69	33,056
843,87	28,571
844,05	25,067
844,23	35,946
844,41	24,623
844,59	32,102
844,77	22,767
844,95	30,340
845,13	28,689
845,31	29,888
845,50	32,990
845,68	22,280
845,86	28,302
846,04	31,852
846,22	30,310
846,40	19,948
846,58	21,180
846,76	28,928
846,94	26,683
847,12	23,697
847,30	36,175
847,48	33,813
847,66	32,683
847,84	17,259
848,02	34,096
848,20	23,841
848,38	22,899
848,56	32,258
848,74	24,587
848,92	18,163
849,10	28,125
849,28	34,858
849,46	22,196
849,64	12,143
849,82	20,192
850,00	15,811
850,18	22,864
850,36	23,465
850,54	16,592
850,72	25,988
850,90	26,034
851,08	19,547
851,26	27,530
851,44	19,478
851,62	23,400
851,80	22,863
851,98	26,543
852,16	24,280
852,34	32,258
852,52	23,658
852,70	16,466
852,87	20,000
853,05	30,261
853,23	29,412
853,41	19,018
853,59	20,755
853,77	25,397
853,95	24,576
854,13	18,835
854,31	26,178
854,49	16,032
854,67	24,248
854,85	16,870
855,03	15,326
855,21	18,443
855,39	22,483
855,57	21,739
855,75	16,863
855,93	12,544
856,11	23,126
856,28	19,618
856,46	16,667
856,64	18,285
856,82	17,801
857,00	20,242
857,18	20,501
857,36	20,504
857,54	21,622
857,72	16,361
857,90	16,804
858,08	14,815
858,26	14,220
858,44	12,888
858,61	13,345
858,79	24,496
858,97	20,201
859,15	16,743
859,33	14,417
859,51	19,968
859,69	15,030
859,87	18,741
860,05	21,757
860,23	10,758
860,40	19,508
860,58	13,937
860,76	18,220
860,94	9,160
861,12	14,023
861,30	14,090
861,48	14,873
861,66	14,264
861,84	18,017
862,01	17,246
862,19	13,686
862,37	15,889
862,55	14,206
862,73	19,022
862,91	14,076
863,09	17,555
863,27	15,320
863,44	14,040
863,62	15,708
863,80	6,304
863,98	12,005
864,16	10,727
864,34	11,429
864,52	11,390
864,69	18,795
864,87	12,992
865,05	7,465
865,23	15,700
865,41	15,137
865,59	15,204
865,76	9,044
865,94	11,778
866,12	14,496
866,30	8,344
866,48	12,095
866,66	15,184
866,83	7,549
867,01	14,132
867,19	11,982
867,37	13,205
867,55	16,026
867,73	12,756
867,90	14,855
868,08	15,468
868,26	9,464
868,44	10,300
868,62	13,689
868,79	9,524
868,97	13,326
869,15	11,040
869,33	8,600
869,51	16,030
869,69	8,655
869,86	10,359
870,04	13,545
870,22	11,342
870,40	8,687
870,57	14,100
870,75	10,249
870,93	13,736
871,11	10,173
871,29	7,012
871,46	10,473
871,64	9,990
871,82	10,829
872,00	8,605
872,18	13,724
872,35	12,478
872,53	9,924
872,71	5,967
872,89	11,677
873,06	11,162
873,24	11,581
873,42	10,125
873,60	4,408
873,77	10,231
873,95	7,349
874,13	8,855
874,31	8,021
874,49	11,683
874,66	10,911
874,84	6,750
875,02	10,171
875,20	9,421
875,37	4,089
875,55	4,149
875,73	10,526
875,91	10,156
876,08	8,041
876,26	5,079
876,44	9,345
876,61	6,260
876,79	10,592
876,97	10,919
877,15	11,527
877,32	7,480
877,50	5,882
877,68	7,944
877,86	6,072
878,03	7,751
878,21	7,006
878,39	8,519
878,56	9,735
878,74	6,435
878,92	7,196
879,10	6,657
879,27	6,103
879,45	10,717
879,63	6,158
879,80	6,866
879,98	4,484
880,16	6,934
880,34	6,617
880,51	8,372
880,69	6,607
880,87	6,392
881,04	5,416
881,22	9,289
881,40	4,672
881,57	5,774
881,75	7,015
881,93	5,676
882,10	5,701
882,28	6,409
882,46	6,916
882,63	8,480
882,81	8,678
882,99	6,231
883,16	6,473
883,34	8,818
883,52	4,646
883,69	6,797
883,87	5,963
884,05	5,024
884,22	4,590
884,40	5,993
884,58	4,637
884,75	6,136
884,93	8,063
885,11	5,876
885,28	5,638
885,46	5,187
885,64	5,079
885,81	5,324
885,99	3,355
886,17	6,166
886,34	5,244
886,52	4,557
886,70	4,350
886,87	5,230
887,05	3,659
887,22	5,126
887,40	6,741
887,58	6,169
887,75	7,178
887,93	5,619
888,11	2,472
888,28	4,789
888,46	4,053
888,63	7,548
888,81	2,807
888,99	2,891
889,16	4,184
889,34	5,185
889,51	4,383
889,69	5,266
889,87	3,148
890,04	3,767
890,22	4,674
890,39	1,548
890,57	6,805
890,75	6,670
890,92	4,503
891,10	5,380
891,27	5,113
891,45	4,375
891,63	4,814
891,80	3,744
891,98	5,272
892,15	4,865
892,33	3,774
892,51	5,324
892,68	5,153
892,86	4,527
893,03	7,057
893,21	4,375
893,38	3,162
893,56	5,199
893,74	4,699
893,91	4,809
894,09	3,729
894,26	5,643
894,44	3,941
894,61	5,908
894,79	5,108
894,96	4,263
895,14	3,915
895,32	4,527
895,49	5,349
895,67	4,087
895,84	5,871
896,02	4,820
896,19	4,000
896,37	6,173
896,54	6,406
896,72	6,411
896,89	5,644
897,07	6,192
897,25	6,344
897,42	6,340
897,60	6,154
897,77	7,733
897,95	7,494
898,12	5,591
898,30	5,800
898,47	6,755
898,65	7,885
898,82	6,555
899,00	6,176
899,17	7,729
899,35	7,496
899,52	7,588
899,70	7,711
899,87	8,232
900,05	10,082
900,22	8,522
900,40	7,491
900,57	8,918
900,75	7,098
900,92	7,914
901,10	10,304
901,27	7,326
901,45	9,151
901,62	9,849
901,80	8,932
901,97	8,919
902,15	9,808
902,32	8,156
902,50	7,685
902,67	8,308
902,85	10,054
903,02	9,391
903,20	8,197
903,37	8,648
903,54	8,861
903,72	7,371
903,89	9,426
904,07	9,064
904,24	8,252
904,42	8,494
904,59	6,878
904,77	7,757
904,94	8,763
905,12	7,649
905,29	9,834
905,47	9,175
905,64	8,875
905,81	8,579
905,99	7,630
906,16	7,765
906,34	8,984
906,51	8,438
906,69	7,575
906,86	7,499
907,03	7,547
907,21	6,842
907,38	7,371
907,56	7,834
907,73	7,984
907,91	8,013
908,08	7,476
908,25	7,132
908,43	7,851
908,60	6,787
908,78	8,038
908,95	8,271
909,13	7,518
909,30	6,201
909,47	7,374
909,65	7,033
909,82	7,321
910,00	7,028
910,17	6,416
910,34	7,330
910,52	6,860
910,69	7,590
910,87	7,237
911,04	6,043
911,21	7,763
911,39	6,496
911,56	7,703
911,73	5,867
911,91	6,717
912,08	6,797
912,26	5,666
912,43	5,882
912,60	5,569
912,78	5,821
912,95	6,300
913,13	6,076
913,30	6,278
913,47	6,069
913,65	5,117
913,82	5,098
913,99	4,649
914,17	6,381
914,34	5,848
914,51	6,478
914,69	5,199
914,86	5,755
915,03	5,151
915,21	5,266
915,38	4,353
915,56	4,641
915,73	5,240
915,90	5,351
916,08	4,985
916,25	4,765
916,42	5,017
916,60	5,410
916,77	6,259
916,94	4,979
917,12	6,663
917,29	5,016
917,46	5,066
917,64	4,192
917,81	5,018
917,98	4,497
918,16	5,976
918,33	5,574
918,50	5,418
918,67	4,240
918,85	5,707
919,02	3,940
919,19	5,491
919,37	5,853
919,54	6,470
919,71	5,520
919,89	5,014
920,06	4,728
920,23	5,331
920,41	5,651
920,58	6,110
920,75	5,938
920,92	4,907
921,10	5,421
921,27	4,569
921,44	6,642
921,62	5,160
921,79	6,735
921,96	5,619
922,13	5,596
922,31	5,982
922,48	6,748
922,65	6,176
922,82	6,667
923,00	7,469
923,17	5,472
923,34	5,349
923,52	6,057
923,69	6,269
923,86	5,750
924,03	6,580
924,21	6,324
924,38	8,195
924,55	7,389
924,72	7,512
924,90	6,211
925,07	6,766
925,24	6,163
925,41	7,023
925,59	6,040
925,76	6,356
925,93	7,726
926,10	7,904
926,28	7,082
926,45	7,370
926,62	6,552
926,79	7,472
926,96	7,256
927,14	6,715
927,31	6,788
927,48	6,742
927,65	6,041
927,83	6,359
928,00	5,808
928,17	7,312
928,34	7,326
928,51	7,587
928,69	6,693
928,86	7,019
929,03	7,907
929,20	6,474
929,37	6,972
929,55	7,329
929,72	8,008
929,89	6,632
930,06	6,933
930,23	6,888
930,41	6,986
930,58	5,996
930,75	6,302
930,92	6,562
931,09	7,413
931,27	6,480
931,44	6,283
931,61	7,101
931,78	6,203
931,95	6,531
932,12	6,290
932,30	6,635
932,47	6,764
932,64	6,762
932,81	6,238
932,98	6,284
933,16	6,254
933,33	6,387
933,50	6,828
933,67	7,250
933,84	6,682
934,01	6,476
934,18	6,385
934,36	6,420
934,53	5,926
934,70	6,910
934,87	6,537
935,04	7,835
935,21	6,626
935,38	6,817
935,56	6,549
935,73	5,906
935,90	5,027
936,07	7,565
936,24	6,557
936,41	6,032
936,58	5,625
936,76	7,076
936,93	5,983
937,10	6,245
937,27	7,529
937,44	6,936
937,61	7,266
937,78	6,489
937,95	6,991
938,13	6,303
938,30	6,711
938,47	6,796
938,64	6,639
938,81	6,263
938,98	6,265
939,15	7,032
939,32	6,991
939,49	7,126
939,66	7,171
939,84	6,717
940,01	6,887
940,18	6,709
940,35	6,820
940,52	6,427
940,69	8,161
940,86	5,557
941,03	7,212
941,20	7,163
941,37	6,866
941,54	5,099
941,71	5,799
941,89	6,987
942,06	6,135
942,23	6,121
942,40	6,186
942,57	6,867
942,74	6,841
942,91	6,098
943,08	6,733
943,25	5,852
943,42	6,769
943,59	6,620
943,76	7,392
943,93	6,427
944,10	6,036
944,27	6,562
944,44	6,646
944,61	6,255
944,79	6,489
944,96	7,054
945,13	5,563
945,30	5,753
945,47	6,849
945,64	6,505
945,81	7,548
945,98	7,351
946,15	8,088
946,32	6,939
946,49	6,771
946,66	7,143
946,83	7,666
947,00	7,496
947,17	6,762
947,34	6,944
947,51	6,787
947,68	7,758
947,85	7,275
948,02	7,267
948,19	8,705
948,36	8,213
948,53	8,125
948,70	9,114
948,87	8,476
949,04	8,397
949,21	7,023
949,38	8,238
949,55	8,207
949,72	9,317
949,89	7,816
950,06	8,677
950,23	7,712
950,40	8,886
950,57	8,469
950,74	9,396
950,91	10,003
951,08	9,683
951,25	10,737
951,42	9,685
951,59	9,101
951,76	10,174
951,93	9,686
952,10	9,849
952,27	9,685
952,44	9,026
952,61	10,737
952,77	10,524
952,94	10,337
953,11	12,967
953,28	11,028
953,45	12,277
953,62	13,880
953,79	12,912
953,96	12,033
954,13	13,037
954,30	14,329
954,47	14,997
954,64	13,145
954,81	14,382
954,98	13,058
955,15	14,198
955,32	11,257
955,49	10,992
955,65	14,010
955,82	11,955
955,99	13,570
956,16	17,083
956,33	11,158
956,50	13,856
956,67	15,056
956,84	13,926
957,01	14,821
957,18	15,602
957,35	12,112
957,52	18,037
957,68	13,333
957,85	13,447
958,02	14,643
958,19	16,536
958,36	18,085
958,53	19,263
958,70	14,208
958,87	14,090
959,04	16,241
959,21	18,485
959,37	18,182
959,54	18,082
959,71	17,433
959,88	21,844
960,05	17,991
960,22	12,189
960,39	22,133
960,56	16,835
960,72	19,950
960,89	20,025
961,06	21,529
961,23	23,872
961,40	19,913
961,57	16,833
961,74	14,557
961,90	29,375
962,07	28,615
962,24	26,016
962,41	22,111
962,58	26,678
962,75	21,593
962,92	21,308
963,08	22,727
963,25	20,901
963,42	30,435
963,59	27,686
963,76	35,506
963,93	31,350
964,10	24,625
964,26	28,070
964,43	31,525
964,60	31,347
964,77	34,217
964,94	32,955
965,10	38,988
965,27	29,765
965,44	34,286
965,61	28,650
965,78	35,463
965,95	35,928
966,11	40,557
966,28	44,610
966,45	38,318
966,62	36,923
966,79	45,306
966,95	40,597
967,12	47,634
967,29	34,375
967,46	43,939
967,63	53,585
967,79	54,505
967,96	49,351
968,13	57,500
968,30	56,048
968,47	65,979
968,63	72,973
968,80	62,385
968,97	52,885
969,14	51,744
969,31	55,556
969,47	57,059
969,64	65,657
969,81	62,694
969,98	61,538
970,14	74,233
970,31	71,698
970,48	73,333
970,65	81,657
970,81	72,603
970,98	97,810
971,15	76,531
971,32	85,938
971,48	76,871
971,65	73,077
971,82	137,255
971,99	120,690
972,15	113,380
972,32	108,108
972,49	98,601
972,66	170,000
972,82	105,814
972,99	117,073
973,16	111,494
973,33	83,036
973,49	125,263
973,66	112,903
973,83	96,117
974,00	111,628
974,16	145,098
974,33	129,825
974,50	96,842
974,67	142,105
974,83	120,238
975,00	96,842
975,17	120,879
975,33	135,955
975,50	125,373
975,67	248,980
975,84	153,731
976,00	129,213
976,17	209,836
976,34	81,000
976,50	121,348
976,67	131,068
976,84	3100,000
977,00	271,429
977,17	215,556
977,34	152,747
977,50	138,806
977,67	246,429
977,84	211,290
978,01	219,149
978,17	866,667
978,34	300,000
978,51	335,294
978,67	163,158
978,84	141,406
979,01	254,054
979,17	184,615
979,34	110,274
979,51	291,837
979,67	153,086
979,84	251,020
980,01	162,222
980,17	204,225
980,34	340,741
980,51	201,449
980,67	183,529
980,84	526,667
981,01	420,000
981,17	584,000
981,34	1155,556
981,50	235,294
981,67	201,695
981,84	5500,000
982,00	393,333
982,17	233,333
982,34	151,111
982,50	720,000
982,67	145,833
982,84	2420,000
983,00	1000,000
983,17	147,761
983,33	162,069
983,50	1460,000
983,67	-224,138
983,83	272,727
984,00	-1685,714
984,17	677,778
984,33	-3250,000
984,50	422,857
984,66	273,913
984,83	210,390
985,00	-508,333
985,16	489,655
985,33	676,471
985,49	438,889
985,66	355,882
985,83	417,391
985,99	287,179
986,16	-3300,000
986,32	771,429
986,49	5400,000
986,66	324,242
986,82	691,667
986,99	320,755
987,15	-263,158
987,32	-264,286
987,49	244,000
987,65	7000,000
987,82	341,667
987,98	271,429
988,15	453,333
988,31	1170,000
988,48	-1150,000
988,65	400,000
988,81	347,222
988,98	339,024
989,14	276,190
989,31	642,857
989,47	355,882
989,64	-707,692
989,80	781,250
989,97	308,108
990,14	-260,870
990,30	-386,364
990,47	279,592
990,63	283,333
990,80	238,000
990,96	-605,000
991,13	453,125
991,29	489,655
991,46	0,000
991,62	-553,846
991,79	1008,333
991,95	9900,000
992,12	-1500,000
992,29	-293,750
992,45	196,471
992,62	286,047
992,78	331,818
992,95	-253,333
993,11	485,714
993,28	1020,000
993,44	-840,000
993,61	-806,250
993,77	-3400,000
993,94	-3400,000
994,10	-118,667
994,27	694,737
994,43	416,279
994,60	0,000
994,76	2250,000
994,93	515,000
995,09	-688,235
995,26	1133,333
995,42	286,275
995,59	580,952
995,75	753,846
995,92	1957,143
996,08	280,556
996,25	-737,500
996,41	-5350,000
996,58	753,333
996,74	247,727
996,91	479,310
997,07	0,000
997,23	10800,000
997,40	-15100,000
997,56	-853,846
997,73	-1737,500
997,89	389,474
998,06	923,077
998,22	-527,778
998,39	644,000
998,55	1411,111
998,72	-1425,000
998,88	-230,000
999,05	-125,641
999,21	283,333
999,37	-873,333
999,54	-925,000
999,70	-286,667
999,87	906,250
1000,03	330,769
1000,20	262,500
1000,36	0,000
1000,52	575,000
1000,69	-685,714
1000,85	-1070,000
1001,02	-483,333
1001,18	2950,000
1001,35	1130,769
1001,51	776,471
1001,67	-907,692
1001,84	-1960,000
1002,00	335,135
1002,17	1000,000
1002,33	-2725,000
1002,50	471,429
1002,66	-776,923
1002,82	260,000
1002,99	864,286
1003,15	-1671,429
1003,32	-618,182
1003,48	282,143
1003,64	926,667
1003,81	477,778
1003,97	-3900,000
1004,14	1245,455
1004,30	266,667
1004,46	-726,667
1004,63	664,286
1004,79	308,333
1004,95	873,333
1005,12	3950,000
1005,28	475,862
1005,45	294,595
1005,61	344,828
1005,77	-195,833
1005,94	-461,905
1006,10	-4450,000
1006,26	1330,769
1006,43	-353,846
1006,59	-1154,545
1006,76	757,143
1006,92	1577,778
1007,08	12400,000
1007,25	-459,259
1007,41	406,897
1007,57	2700,000
1007,74	1230,000
1007,90	-427,586
1008,06	278,261
1008,23	888,235
1008,39	-487,500
1008,55	-476,923
1008,72	-1328,571
1008,88	0,000
1009,04	356,098
1009,21	-334,211
1009,37	-783,333
1009,53	252,381
1009,70	1800,000
1009,86	-685,714
1010,02	4166,667
1010,19	863,636
1010,35	263,235
1010,51	-4550,000
1010,68	-1450,000
1010,84	-184,091
1011,00	618,750
1011,17	-400,000
1011,33	0,000
1011,49	-720,000
1011,66	935,714
1011,82	493,548
1011,98	807,143
1012,14	-545,455
1012,31	348,718
1012,47	0,000
1012,63	1850,000
1012,80	707,143
1012,96	-612,500
1013,12	-1650,000
1013,29	566,667
1013,45	370,732
1013,61	4633,333
1013,77	-91,071
1013,94	2720,000
1014,10	120,339
1014,26	-2550,000
1014,43	-184,000
1014,59	635,000
1014,75	-450,000
1014,91	-693,333
1015,08	491,667
1015,24	11700,000
1015,40	488,235
1015,56	-12600,000
1015,73	92,857
1015,89	627,273
1016,05	3150,000
1016,21	-925,000
1016,38	747,368
1016,54	1276,923
1016,70	-2800,000
1016,86	484,375
1017,03	875,000
1017,19	-784,615
1017,35	-429,412
1017,51	-2360,000
1017,68	-690,000
1017,84	-1657,143
1018,00	295,238
1018,16	492,308
1018,33	-1585,714
1018,49	-808,333
1018,65	-272,973
1018,81	400,000
1018,97	-1342,857
1019,14	-3166,667
1019,30	-235,897
1019,46	0,000
1019,62	-670,588
1019,79	-5366,667
1019,95	1291,667
1020,11	5950,000
1020,27	-281,481
1020,43	-515,385
1020,60	2200,000
1020,76	594,444
1020,92	900,000
1021,08	640,000
1021,24	1210,000
1021,41	1177,778
1021,57	1400,000
1021,73	830,769
1021,89	2620,000
1022,05	-335,714
1022,21	655,000
1022,38	-950,000
1022,54	-1483,333
1022,70	348,889
1022,86	-1387,500
1023,02	545,833
1023,19	1880,000
1023,35	4300,000
1023,51	508,333
1023,67	418,519
1023,83	-681,250
1023,99	302,632
1024,16	-384,615
1024,32	-1311,111
1024,48	-1140,000
1024,64	273,810
1024,80	456,522
1024,96	415,385
1025,12	514,286
1025,29	428,571
1025,45	231,579
1025,61	605,556
1025,77	-2260,000
1025,93	-6300,000
1026,09	-1842,857
1026,26	783,333
1026,42	481,250
1026,58	503,030
1026,74	2233,333
1026,90	436,000
1027,06	264,286
1027,22	964,286
1027,38	303,846
1027,55	3833,333
1027,71	1966,667
1027,87	-324,000
1028,03	890,000
1028,19	375,000
1028,35	605,000
1028,51	1680,000
1028,67	766,667
1028,83	-2425,000
1029,00	-290,476
1029,16	1060,000
1029,32	-307,143
1029,48	297,778
1029,64	247,222
1029,80	4800,000
1029,96	793,333
1030,12	534,783
1030,28	-2166,667
1030,44	-800,000
1030,61	-404,167
1030,77	-242,857
1030,93	-660,000
1031,09	1433,333
1031,25	-12300,000
1031,41	-256,667
1031,57	326,923
1031,73	662,500
1031,89	-1136,364
1032,05	-300,000
1032,21	1018,182
1032,37	-153,704
1032,53	-821,429
1032,69	-195,833
1032,86	433,333
1033,02	-310,000
1033,18	-581,250
1033,34	505,263
1033,50	-4900,000
1033,66	-287,805
1033,82	565,217
1033,98	-355,556
1034,14	191,026
1034,30	432,258
1034,46	-3833,333
1034,62	640,000
1034,78	-585,714
1034,94	292,105
1035,10	-792,308
1035,26	-153,488
1035,42	-248,276
1035,58	-538,889
1035,74	758,333
1035,90	-1007,692
1036,06	-1566,667
1036,22	1766,667
1036,38	-864,706
1036,54	-412,500
1036,70	-221,212
1036,86	12700,000
1037,02	622,222
1037,18	731,579
1037,34	169,524
1037,50	-109,756
1037,66	-476,471
1037,82	2660,000
1037,98	-418,519
1038,14	-336,000
1038,30	-1375,000
1038,46	-514,286
1038,62	521,739
1038,78	-3466,667
1038,94	-363,158
1039,10	540,909
1039,26	444,444
1039,42	-966,667
1039,58	1000,000
1039,74	-557,895
1039,90	437,500
1040,06	-457,692
>>>>>End Processed Spectral Data<<<<<
