SpectraSuite Data File
++++++++++++++++++++++++++++++++++++
Date: Wed Feb 01 15:59:28 EET 2017
User: optolab
Dark Spectrum Present: Yes
Reference Spectrum Present: Yes
Number of Sampled Component Spectra: 1
Spectrometers: USB4C02475
Integration Time (usec): 100000 (USB4C02475)
Spectra Averaged: 1 (USB4C02475)
Boxcar Smoothing: 0 (USB4C02475)
Correct for Electrical Dark: No (USB4C02475)
Strobe/Lamp Enabled: No (USB4C02475)
Correct for Detector Non-linearity: No (USB4C02475)
Correct for Stray Light: No (USB4C02475)
Number of Pixels in Processed Spectrum: 3648
>>>>>Begin Processed Spectral Data<<<<<
344,91	3750,000
345,13	3750,000
345,35	3750,000
345,57	0,000
345,79	268,421
346,00	-1811,111
346,22	-2171,429
346,44	450,000
346,66	-625,000
346,87	-9700,000
347,09	366,667
347,31	-400,000
347,53	-264,103
347,74	207,692
347,96	490,909
348,18	831,579
348,40	412,903
348,61	929,412
348,83	366,667
349,05	250,980
349,27	-4950,000
349,48	596,154
349,70	-303,448
349,92	309,677
350,14	207,547
350,35	306,000
350,57	1775,000
350,79	560,000
351,01	-885,714
351,22	318,519
351,44	546,154
351,66	-316,000
351,87	-619,048
352,09	315,385
352,31	255,738
352,53	228,125
352,74	250,000
352,96	248,052
353,18	715,789
353,40	284,000
353,61	282,222
353,83	358,824
354,05	672,727
354,26	2116,667
354,48	246,000
354,70	439,394
354,92	-258,621
355,13	208,081
355,35	336,364
355,57	516,667
355,78	222,892
356,00	-3025,000
356,22	430,769
356,44	6300,000
356,65	415,909
356,87	515,385
357,09	712,500
357,30	251,111
357,52	243,103
357,74	635,000
357,95	333,333
358,17	190,164
358,39	243,548
358,60	294,595
358,82	429,167
359,04	429,630
359,26	400,000
359,47	7500,000
359,69	370,000
359,91	342,424
360,12	442,857
360,34	512,500
360,56	-79,630
360,77	2275,000
360,99	471,429
361,21	226,000
361,42	5400,000
361,64	287,755
361,86	218,462
362,07	-519,355
362,29	197,333
362,51	-564,706
362,72	520,000
362,94	414,706
363,16	290,698
363,37	-800,000
363,59	453,846
363,81	354,545
364,02	594,444
364,24	533,333
364,46	2700,000
364,67	1000,000
364,89	1800,000
365,11	165,714
365,32	534,483
365,54	247,222
365,76	383,673
365,97	417,647
366,19	213,793
366,41	627,273
366,62	348,148
366,84	244,186
367,05	277,551
367,27	1750,000
367,49	-446,154
367,70	523,529
367,92	270,492
368,14	256,250
368,35	-10800,000
368,57	516,000
368,79	575,862
369,00	373,913
369,22	-1250,000
369,43	194,118
369,65	285,484
369,87	367,568
370,08	207,229
370,30	266,071
370,51	178,689
370,73	242,222
370,95	211,290
371,16	216,667
371,38	320,000
371,60	1487,500
371,81	150,000
372,03	993,333
372,24	403,333
372,46	249,057
372,68	162,857
372,89	384,848
373,11	511,538
373,32	329,545
373,54	-1000,000
373,76	615,385
373,97	806,667
374,19	595,455
374,40	298,437
374,62	-3733,333
374,84	4425,000
375,05	539,286
375,27	332,000
375,48	-9500,000
375,70	190,667
375,92	258,929
376,13	237,500
376,35	246,575
376,56	1068,750
376,78	193,056
376,99	350,000
377,21	239,583
377,43	216,667
377,64	182,609
377,86	462,069
378,07	348,718
378,29	-1137,500
378,51	409,677
378,72	281,250
378,94	-1188,889
379,15	312,121
379,37	858,824
379,58	249,231
379,80	460,000
380,01	750,000
380,23	247,059
380,45	1620,000
380,66	3433,333
380,88	225,000
381,09	197,143
381,31	153,333
381,52	225,490
381,74	1411,111
381,95	463,636
382,17	511,538
382,39	390,476
382,60	167,347
382,82	194,872
383,03	317,308
383,25	354,839
383,46	354,545
383,68	451,852
383,89	700,000
384,11	354,839
384,32	-3433,333
384,54	544,444
384,76	-1933,333
384,97	300,000
385,19	503,448
385,40	252,941
385,62	242,105
385,83	276,190
386,05	221,569
386,26	324,000
386,48	209,195
386,69	260,417
386,91	555,000
387,12	238,983
387,34	220,690
387,55	237,097
387,77	490,625
387,98	500,000
388,20	214,130
388,41	308,824
388,63	5400,000
388,84	213,115
389,06	304,762
389,27	652,632
389,49	302,778
389,70	293,878
389,92	206,667
390,13	210,204
390,35	258,824
390,56	214,815
390,78	474,074
390,99	840,000
391,21	684,211
391,42	257,778
391,64	314,634
391,85	172,414
392,07	188,636
392,28	130,667
392,50	260,606
392,71	-1112,500
392,93	226,923
393,14	341,667
393,36	253,061
393,57	157,143
393,79	866,667
394,00	287,234
394,22	187,671
394,43	181,928
394,65	223,256
394,86	1262,500
395,08	676,190
395,29	184,906
395,50	84,615
395,72	472,222
395,93	747,619
396,15	205,634
396,36	173,529
396,58	246,667
396,79	200,000
397,01	220,000
397,22	211,111
397,44	187,879
397,65	168,421
397,87	264,286
398,08	210,204
398,29	303,125
398,51	210,714
398,72	200,000
398,94	210,769
399,15	285,714
399,37	145,614
399,58	219,780
399,80	622,727
400,01	229,630
400,22	300,000
400,44	179,012
400,65	457,143
400,87	166,176
401,08	175,714
401,30	258,696
401,51	224,561
401,72	342,308
401,94	167,089
402,15	480,000
402,37	152,101
402,58	561,111
402,80	271,429
403,01	190,141
403,22	927,273
403,44	181,159
403,65	176,786
403,87	212,857
404,08	458,974
404,30	152,941
404,51	-3333,333
404,72	197,143
404,94	107,843
405,15	222,000
405,37	173,418
405,58	162,353
405,79	168,293
406,01	246,341
406,22	182,759
406,44	219,149
406,65	245,614
406,86	112,500
407,08	106,329
407,29	137,864
407,51	156,098
407,72	179,630
407,93	153,261
408,15	104,274
408,36	274,419
408,58	121,649
408,79	100,000
409,00	137,500
409,22	122,222
409,43	160,759
409,64	83,230
409,86	94,340
410,07	106,154
410,29	83,582
410,50	120,567
410,71	81,250
410,93	75,796
411,14	131,008
411,35	96,429
411,57	84,868
411,78	79,688
412,00	90,446
412,21	83,871
412,42	75,661
412,64	63,948
412,85	58,247
413,06	73,171
413,28	52,703
413,49	72,986
413,70	62,319
413,92	61,660
414,13	56,017
414,34	56,322
414,56	58,392
414,77	89,873
414,98	54,362
415,20	48,443
415,41	56,374
415,63	51,741
415,84	57,778
416,05	46,703
416,27	41,344
416,48	57,584
416,69	58,407
416,91	54,865
417,12	44,385
417,33	40,211
417,55	39,235
417,76	52,361
417,97	37,344
418,19	32,207
418,40	42,766
418,61	34,074
418,83	32,545
419,04	27,129
419,25	26,324
419,46	30,677
419,68	28,730
419,89	22,206
420,10	22,585
420,32	21,046
420,53	25,982
420,74	20,966
420,96	19,250
421,17	21,247
421,38	19,587
421,60	13,907
421,81	16,173
422,02	18,077
422,23	12,864
422,45	16,927
422,66	15,745
422,87	17,350
423,09	15,171
423,30	11,789
423,51	14,016
423,73	14,629
423,94	14,636
424,15	10,000
424,36	13,783
424,58	13,875
424,79	14,366
425,00	11,703
425,22	9,096
425,43	10,078
425,64	10,968
425,85	6,094
426,07	8,813
426,28	7,257
426,49	7,055
426,71	5,360
426,92	3,142
427,13	3,692
427,34	2,876
427,56	5,337
427,77	3,598
427,98	4,286
428,19	1,778
428,41	4,675
428,62	3,178
428,83	3,864
429,04	3,946
429,26	5,003
429,47	4,658
429,68	2,536
429,89	2,210
430,11	4,672
430,32	2,579
430,53	3,829
430,74	3,691
430,96	2,812
431,17	2,974
431,38	2,491
431,59	3,138
431,81	2,370
432,02	1,903
432,23	2,411
432,44	2,963
432,66	3,529
432,87	2,097
433,08	3,030
433,29	2,516
433,51	1,248
433,72	2,804
433,93	2,153
434,14	2,394
434,35	1,538
434,57	2,100
434,78	1,558
434,99	1,707
435,20	1,970
435,42	1,649
435,63	1,460
435,84	1,496
436,05	1,901
436,26	1,246
436,48	1,016
436,69	1,220
436,90	1,186
437,11	1,345
437,32	1,706
437,54	1,518
437,75	1,393
437,96	1,991
438,17	0,996
438,38	2,196
438,60	1,578
438,81	1,731
439,02	1,061
439,23	0,959
439,44	1,122
439,66	1,466
439,87	1,296
440,08	0,950
440,29	0,854
440,50	1,045
440,72	0,913
440,93	1,057
441,14	1,337
441,35	0,978
441,56	0,878
441,77	1,143
441,99	0,915
442,20	0,939
442,41	0,686
442,62	0,805
442,83	0,944
443,04	0,901
443,26	0,721
443,47	1,133
443,68	0,838
443,89	0,716
444,10	0,756
444,31	1,044
444,53	0,824
444,74	0,601
444,95	0,850
445,16	0,713
445,37	1,082
445,58	0,743
445,80	1,033
446,01	0,800
446,22	0,898
446,43	0,684
446,64	0,912
446,85	0,678
447,06	0,877
447,28	0,828
447,49	0,874
447,70	0,934
447,91	1,049
448,12	0,805
448,33	0,977
448,54	1,086
448,76	1,609
448,97	1,669
449,18	1,477
449,39	1,742
449,60	2,258
449,81	2,415
450,02	2,531
450,23	2,918
450,45	3,505
450,66	3,763
450,87	4,253
451,08	4,648
451,29	5,471
451,50	5,978
451,71	6,542
451,92	7,153
452,13	7,655
452,35	8,672
452,56	9,130
452,77	10,109
452,98	11,367
453,19	11,927
453,40	12,761
453,61	14,589
453,82	16,001
454,03	17,680
454,25	17,899
454,46	19,369
454,67	20,472
454,88	22,502
455,09	24,268
455,30	25,376
455,51	26,619
455,72	26,714
455,93	29,676
456,14	29,700
456,35	30,830
456,56	31,050
456,78	31,779
456,99	32,418
457,20	32,357
457,41	32,478
457,62	33,314
457,83	32,047
458,04	32,199
458,25	32,390
458,46	31,538
458,67	31,350
458,88	31,679
459,09	30,427
459,30	31,033
459,51	30,643
459,73	29,565
459,94	29,546
460,15	28,606
460,36	27,479
460,57	26,947
460,78	25,165
460,99	25,592
461,20	24,537
461,41	24,957
461,62	24,592
461,83	25,289
462,04	26,129
462,25	26,970
462,46	27,777
462,67	29,203
462,88	31,246
463,09	32,998
463,30	34,855
463,51	37,281
463,72	37,914
463,93	41,095
464,15	42,622
464,36	44,077
464,57	45,687
464,78	46,935
464,99	47,638
465,20	48,104
465,41	48,652
465,62	48,331
465,83	48,395
466,04	48,784
466,25	47,053
466,46	46,441
466,67	45,979
466,88	45,284
467,09	43,724
467,30	43,397
467,51	42,344
467,72	41,567
467,93	40,881
468,14	40,607
468,35	39,777
468,56	40,736
468,77	41,425
468,98	42,521
469,19	42,384
469,40	44,231
469,61	46,253
469,82	46,376
470,03	48,803
470,24	49,644
470,45	51,314
470,66	51,921
470,87	54,234
471,08	55,313
471,29	56,031
471,50	57,300
471,71	56,559
471,92	57,308
472,13	57,403
472,34	56,625
472,55	55,165
472,76	54,695
472,97	53,417
473,18	52,102
473,39	52,464
473,60	52,388
473,81	52,213
474,01	52,160
474,22	52,460
474,43	52,667
474,64	53,577
474,85	52,771
475,06	52,049
475,27	52,797
475,48	52,380
475,69	51,185
475,90	50,948
476,11	49,833
476,32	48,825
476,53	47,821
476,74	46,722
476,95	47,174
477,16	45,280
477,37	45,183
477,58	45,756
477,79	45,155
478,00	44,414
478,21	44,201
478,41	43,389
478,62	43,087
478,83	42,114
479,04	42,320
479,25	41,132
479,46	40,950
479,67	41,097
479,88	40,210
480,09	40,528
480,30	40,337
480,51	40,256
480,72	39,430
480,93	39,434
481,14	39,232
481,34	38,924
481,55	38,358
481,76	38,639
481,97	38,803
482,18	39,012
482,39	38,896
482,60	37,914
482,81	39,146
483,02	38,442
483,23	38,907
483,44	39,274
483,65	39,134
483,85	39,923
484,06	40,238
484,27	40,186
484,48	41,008
484,69	40,158
484,90	41,043
485,11	41,324
485,32	41,409
485,53	40,701
485,73	41,674
485,94	42,150
486,15	42,129
486,36	42,308
486,57	42,089
486,78	42,540
486,99	43,010
487,20	42,637
487,41	42,742
487,61	43,252
487,82	43,154
488,03	43,152
488,24	43,753
488,45	43,195
488,66	43,266
488,87	43,358
489,08	42,787
489,28	42,044
489,49	41,849
489,70	40,514
489,91	39,865
490,12	39,130
490,33	38,135
490,54	36,109
490,74	35,707
490,95	33,160
491,16	31,899
491,37	30,286
491,58	28,234
491,79	26,967
492,00	25,605
492,20	23,469
492,41	22,310
492,62	20,780
492,83	19,539
493,04	18,062
493,25	17,127
493,45	15,907
493,66	14,662
493,87	14,037
494,08	12,501
494,29	11,911
494,50	10,933
494,70	10,193
494,91	9,047
495,12	8,499
495,33	7,672
495,54	6,891
495,75	6,486
495,95	5,972
496,16	5,390
496,37	4,939
496,58	4,479
496,79	4,074
496,99	3,392
497,20	3,096
497,41	2,782
497,62	2,379
497,83	2,162
498,04	1,644
498,24	1,568
498,45	1,137
498,66	1,080
498,87	0,956
499,08	0,815
499,28	0,808
499,49	0,700
499,70	0,702
499,91	0,719
500,12	0,543
500,32	0,685
500,53	0,572
500,74	0,500
500,95	0,611
501,15	0,572
501,36	0,637
501,57	0,480
501,78	0,531
501,99	0,659
502,19	0,404
502,40	0,494
502,61	0,628
502,82	0,699
503,02	0,527
503,23	0,564
503,44	0,689
503,65	0,658
503,86	0,524
504,06	0,547
504,27	0,590
504,48	0,573
504,69	0,553
504,89	0,549
505,10	0,573
505,31	0,598
505,52	0,582
505,72	0,754
505,93	0,530
506,14	0,483
506,35	0,400
506,55	0,472
506,76	0,599
506,97	0,488
507,18	0,630
507,38	0,565
507,59	0,505
507,80	0,347
508,01	0,479
508,21	0,572
508,42	0,740
508,63	0,797
508,84	0,436
509,04	0,544
509,25	0,694
509,46	0,584
509,67	0,610
509,87	0,641
510,08	0,641
510,29	0,736
510,49	0,591
510,70	0,679
510,91	0,566
511,12	0,568
511,32	0,454
511,53	0,696
511,74	0,471
511,94	0,715
512,15	0,576
512,36	0,553
512,57	0,601
512,77	0,620
512,98	0,615
513,19	0,496
513,39	0,576
513,60	0,589
513,81	0,639
514,01	0,704
514,22	0,855
514,43	1,020
514,64	0,686
514,84	0,862
515,05	0,613
515,26	0,672
515,46	0,860
515,67	0,701
515,88	1,005
516,08	0,907
516,29	1,091
516,50	1,203
516,70	1,261
516,91	1,463
517,12	1,620
517,32	1,887
517,53	1,952
517,74	2,281
517,95	2,438
518,15	3,166
518,36	3,347
518,57	3,721
518,77	4,300
518,98	4,872
519,19	5,190
519,39	6,095
519,60	6,748
519,80	7,732
520,01	8,395
520,22	9,386
520,42	10,532
520,63	11,204
520,84	12,286
521,04	14,032
521,25	15,362
521,46	16,426
521,66	17,423
521,87	18,418
522,08	19,919
522,28	21,592
522,49	22,514
522,70	24,056
522,90	24,634
523,11	26,262
523,31	27,824
523,52	28,764
523,73	29,875
523,93	30,557
524,14	31,741
524,35	32,927
524,55	33,854
524,76	34,455
524,97	35,807
525,17	36,967
525,38	37,117
525,58	38,365
525,79	38,840
526,00	39,382
526,20	40,229
526,41	40,851
526,61	42,539
526,82	43,354
527,03	43,556
527,23	43,981
527,44	44,753
527,64	46,177
527,85	47,280
528,06	47,108
528,26	48,160
528,47	48,066
528,68	48,302
528,88	47,758
529,09	48,593
529,29	48,473
529,50	48,387
529,70	48,797
529,91	48,005
530,12	47,981
530,32	47,365
530,53	47,900
530,73	48,159
530,94	48,747
531,15	48,358
531,35	49,395
531,56	50,431
531,76	50,334
531,97	51,031
532,17	52,466
532,38	51,923
532,59	53,607
532,79	54,453
533,00	55,213
533,20	56,279
533,41	58,065
533,61	57,252
533,82	59,340
534,03	60,017
534,23	62,144
534,44	62,323
534,64	62,820
534,85	64,168
535,05	64,940
535,26	65,509
535,46	66,362
535,67	67,324
535,88	67,451
536,08	68,864
536,29	69,679
536,49	68,563
536,70	70,656
536,90	70,122
537,11	70,861
537,31	71,251
537,52	71,601
537,72	70,628
537,93	69,604
538,13	69,450
538,34	69,635
538,55	68,168
538,75	67,046
538,96	65,336
539,16	63,434
539,37	63,241
539,57	62,000
539,78	59,626
539,98	58,647
540,19	57,665
540,39	56,626
540,60	54,662
540,80	53,836
541,01	52,501
541,21	51,938
541,42	50,537
541,62	48,877
541,83	48,858
542,03	48,181
542,24	47,361
542,44	46,607
542,65	45,769
542,85	45,699
543,06	44,820
543,26	43,646
543,47	43,522
543,67	43,262
543,88	42,313
544,08	42,206
544,29	41,123
544,49	40,802
544,70	39,638
544,90	39,339
545,11	39,275
545,31	37,429
545,52	37,435
545,72	37,478
545,93	36,828
546,13	37,049
546,34	36,291
546,54	36,474
546,75	36,181
546,95	36,042
547,15	36,191
547,36	36,290
547,56	36,005
547,77	35,652
547,97	35,923
548,18	34,955
548,38	34,719
548,59	34,176
548,79	33,894
549,00	33,170
549,20	33,134
549,41	32,891
549,61	32,381
549,81	32,332
550,02	31,807
550,22	31,272
550,43	30,785
550,63	31,464
550,84	30,809
551,04	31,817
551,25	31,536
551,45	31,700
551,65	31,796
551,86	32,465
552,06	32,246
552,27	32,405
552,47	32,870
552,68	32,949
552,88	32,219
553,08	31,691
553,29	32,162
553,49	31,409
553,70	31,259
553,90	30,583
554,11	30,339
554,31	29,753
554,51	29,527
554,72	28,779
554,92	28,302
555,13	28,230
555,33	27,552
555,53	27,003
555,74	25,867
555,94	25,390
556,15	24,289
556,35	23,899
556,56	23,027
556,76	22,338
556,96	21,543
557,17	20,685
557,37	20,021
557,58	19,848
557,78	18,879
557,98	18,661
558,19	18,053
558,39	17,770
558,59	17,589
558,80	16,713
559,00	16,662
559,21	15,672
559,41	15,176
559,61	14,731
559,82	14,299
560,02	12,808
560,23	12,336
560,43	11,125
560,63	10,594
560,84	10,086
561,04	8,901
561,24	8,294
561,45	7,523
561,65	6,638
561,85	6,292
562,06	5,630
562,26	4,933
562,47	4,678
562,67	3,954
562,87	3,413
563,08	2,786
563,28	2,558
563,48	2,367
563,69	2,120
563,89	1,971
564,09	1,830
564,30	1,433
564,50	1,395
564,70	1,153
564,91	1,073
565,11	0,780
565,31	0,823
565,52	0,751
565,72	0,836
565,92	0,777
566,13	0,538
566,33	0,614
566,53	0,548
566,74	0,526
566,94	0,305
567,14	0,384
567,35	0,381
567,55	0,405
567,75	0,638
567,96	0,471
568,16	0,632
568,36	0,396
568,57	0,598
568,77	0,513
568,97	0,444
569,18	0,628
569,38	0,580
569,58	0,532
569,79	0,373
569,99	0,581
570,19	0,493
570,39	0,426
570,60	0,428
570,80	0,555
571,00	0,473
571,21	0,405
571,41	0,530
571,61	0,491
571,82	0,337
572,02	0,533
572,22	0,514
572,42	0,345
572,63	0,663
572,83	0,488
573,03	0,497
573,24	0,634
573,44	0,316
573,64	0,568
573,84	0,633
574,05	0,465
574,25	0,616
574,45	0,408
574,66	0,571
574,86	0,596
575,06	0,532
575,26	0,400
575,47	0,566
575,67	0,588
575,87	0,257
576,07	0,444
576,28	0,397
576,48	0,502
576,68	0,636
576,88	0,431
577,09	0,223
577,29	0,318
577,49	0,535
577,69	0,386
577,90	0,569
578,10	0,494
578,30	0,338
578,50	0,456
578,71	0,521
578,91	0,347
579,11	0,548
579,31	0,477
579,52	0,363
579,72	0,401
579,92	0,377
580,12	0,208
580,33	0,460
580,53	0,436
580,73	0,635
580,93	0,491
581,13	0,390
581,34	0,539
581,54	0,514
581,74	0,356
581,94	0,723
582,15	0,535
582,35	0,224
582,55	0,565
582,75	0,590
582,95	0,552
583,16	0,438
583,36	0,588
583,56	0,542
583,76	0,541
583,96	0,702
584,17	0,423
584,37	0,742
584,57	0,535
584,77	0,614
584,97	0,704
585,18	0,771
585,38	0,762
585,58	0,896
585,78	0,859
585,98	0,999
586,19	1,045
586,39	1,055
586,59	1,180
586,79	1,496
586,99	1,461
587,20	1,748
587,40	2,012
587,60	2,048
587,80	2,640
588,00	2,633
588,20	2,885
588,41	3,517
588,61	3,604
588,81	3,889
589,01	4,364
589,21	5,007
589,41	5,365
589,62	5,810
589,82	6,321
590,02	6,527
590,22	7,687
590,42	7,930
590,62	8,897
590,83	9,681
591,03	10,537
591,23	11,714
591,43	12,650
591,63	14,050
591,83	15,433
592,03	16,445
592,24	17,484
592,44	18,917
592,64	20,037
592,84	21,184
593,04	21,960
593,24	23,148
593,44	24,809
593,65	25,171
593,85	25,928
594,05	26,260
594,25	26,390
594,45	26,818
594,65	26,605
594,85	27,071
595,06	26,981
595,26	26,639
595,46	27,069
595,66	26,700
595,86	26,427
596,06	26,837
596,26	26,540
596,46	26,337
596,66	26,303
596,87	26,078
597,07	26,470
597,27	26,370
597,47	26,918
597,67	26,756
597,87	26,999
598,07	26,855
598,27	27,856
598,47	28,229
598,67	28,791
598,88	29,525
599,08	30,079
599,28	31,380
599,48	31,843
599,68	33,006
599,88	33,831
600,08	34,551
600,28	36,127
600,48	37,099
600,68	37,398
600,88	38,941
601,09	39,462
601,29	39,607
601,49	40,897
601,69	41,790
601,89	41,422
602,09	42,898
602,29	41,940
602,49	42,383
602,69	42,187
602,89	42,797
603,09	42,613
603,29	42,570
603,49	42,050
603,69	42,337
603,90	42,215
604,10	42,035
604,30	41,745
604,50	41,401
604,70	40,837
604,90	41,571
605,10	40,935
605,30	40,393
605,50	40,733
605,70	40,751
605,90	41,321
606,10	40,968
606,30	40,979
606,50	41,446
606,70	41,509
606,90	41,432
607,10	41,524
607,30	42,402
607,50	41,887
607,70	41,817
607,90	42,850
608,10	42,421
608,30	42,006
608,50	42,900
608,70	42,363
608,90	42,878
609,11	42,457
609,31	42,266
609,51	42,129
609,71	42,053
609,91	41,456
610,11	41,215
610,31	41,316
610,51	40,944
610,71	41,118
610,91	40,486
611,11	40,226
611,31	40,184
611,51	40,008
611,71	39,790
611,91	39,748
612,11	40,205
612,31	40,045
612,51	40,341
612,71	40,653
612,91	40,983
613,11	40,864
613,31	40,668
613,51	41,827
613,71	41,228
613,91	42,150
614,11	42,322
614,31	41,623
614,50	42,156
614,70	42,277
614,90	42,252
615,10	42,023
615,30	42,098
615,50	41,594
615,70	41,662
615,90	41,664
616,10	41,633
616,30	40,880
616,50	40,762
616,70	39,753
616,90	39,583
617,10	39,446
617,30	38,937
617,50	38,135
617,70	37,199
617,90	36,645
618,10	35,071
618,30	34,610
618,50	33,114
618,70	32,732
618,90	31,784
619,10	30,962
619,30	29,821
619,49	29,089
619,69	27,636
619,89	27,223
620,09	27,251
620,29	26,465
620,49	26,242
620,69	25,326
620,89	25,363
621,09	25,210
621,29	25,194
621,49	24,388
621,69	24,634
621,89	24,645
622,09	23,429
622,29	23,139
622,48	22,701
622,68	21,672
622,88	20,324
623,08	19,505
623,28	18,535
623,48	17,428
623,68	16,583
623,88	15,401
624,08	14,386
624,28	13,250
624,48	12,151
624,67	10,995
624,87	10,016
625,07	9,122
625,27	8,141
625,47	7,641
625,67	6,895
625,87	6,190
626,07	5,934
626,27	5,604
626,47	5,581
626,66	5,618
626,86	5,688
627,06	5,838
627,26	6,338
627,46	6,601
627,66	7,262
627,86	7,744
628,06	8,796
628,25	9,433
628,45	10,576
628,65	11,556
628,85	12,585
629,05	13,401
629,25	13,560
629,45	14,057
629,65	14,703
629,84	14,846
630,04	15,116
630,24	15,237
630,44	14,648
630,64	14,433
630,84	14,016
631,04	13,338
631,23	12,724
631,43	12,183
631,63	11,141
631,83	10,332
632,03	9,928
632,23	9,113
632,42	8,415
632,62	7,726
632,82	6,997
633,02	6,180
633,22	5,901
633,42	5,267
633,62	4,584
633,81	4,581
634,01	3,851
634,21	3,665
634,41	3,447
634,61	2,838
634,80	2,462
635,00	2,176
635,20	2,161
635,40	1,994
635,60	1,641
635,80	1,564
635,99	1,293
636,19	1,154
636,39	1,304
636,59	1,130
636,79	0,991
636,98	0,807
637,18	0,842
637,38	0,876
637,58	0,603
637,78	0,681
637,97	0,815
638,17	0,795
638,37	0,639
638,57	0,712
638,77	0,741
638,96	0,523
639,16	0,617
639,36	0,442
639,56	0,724
639,76	0,587
639,95	0,486
640,15	0,318
640,35	0,667
640,55	0,693
640,75	0,589
640,94	0,316
641,14	0,521
641,34	0,665
641,54	0,773
641,73	0,407
641,93	0,832
642,13	0,441
642,33	0,752
642,53	0,481
642,72	0,726
642,92	0,640
643,12	0,514
643,32	0,869
643,51	0,799
643,71	0,673
643,91	0,445
644,11	0,747
644,30	0,600
644,50	0,627
644,70	0,401
644,90	0,353
645,09	0,675
645,29	0,148
645,49	0,911
645,69	0,923
645,88	0,719
646,08	0,862
646,28	1,228
646,48	0,841
646,67	0,506
646,87	0,630
647,07	0,791
647,26	0,771
647,46	0,960
647,66	0,905
647,86	0,683
648,05	0,876
648,25	0,490
648,45	0,893
648,65	1,077
648,84	0,489
649,04	0,973
649,24	1,083
649,43	0,718
649,63	1,228
649,83	1,055
650,03	1,005
650,22	0,667
650,42	0,955
650,62	0,208
650,81	0,727
651,01	0,801
651,21	0,822
651,40	0,259
651,60	1,210
651,80	0,600
652,00	0,663
652,19	0,500
652,39	1,228
652,59	0,681
652,78	1,057
652,98	0,357
653,18	0,530
653,37	0,812
653,57	0,865
653,77	0,970
653,96	0,849
654,16	1,004
654,36	0,650
654,55	1,227
654,75	1,004
654,95	0,936
655,14	0,906
655,34	0,968
655,54	0,655
655,73	0,428
655,93	1,503
656,13	0,711
656,32	0,543
656,52	0,629
656,72	0,812
656,91	0,933
657,11	0,680
657,31	0,627
657,50	0,957
657,70	0,815
657,90	0,689
658,09	0,395
658,29	1,124
658,49	0,327
658,68	0,863
658,88	0,713
659,07	0,750
659,27	0,805
659,47	0,764
659,66	0,400
659,86	0,750
660,06	0,523
660,25	0,379
660,45	0,665
660,64	0,917
660,84	0,698
661,04	0,944
661,23	0,912
661,43	0,785
661,63	0,941
661,82	0,519
662,02	0,653
662,21	1,014
662,41	0,606
662,61	0,849
662,80	0,185
663,00	0,769
663,19	0,790
663,39	0,887
663,59	0,932
663,78	0,779
663,98	0,837
664,17	1,069
664,37	0,656
664,57	0,982
664,76	1,025
664,96	0,953
665,15	0,859
665,35	0,452
665,55	0,513
665,74	0,769
665,94	0,509
666,13	1,047
666,33	0,155
666,53	0,642
666,72	0,622
666,92	1,289
667,11	0,750
667,31	0,600
667,50	0,491
667,70	0,996
667,90	1,083
668,09	0,580
668,29	0,961
668,48	1,081
668,68	0,774
668,87	0,824
669,07	0,959
669,26	1,024
669,46	0,716
669,66	0,677
669,85	0,728
670,05	0,335
670,24	0,743
670,44	0,669
670,63	0,832
670,83	0,939
671,02	0,949
671,22	1,053
671,42	0,772
671,61	0,737
671,81	0,755
672,00	0,914
672,20	0,868
672,39	0,159
672,59	0,471
672,78	0,856
672,98	0,673
673,17	0,690
673,37	0,636
673,56	0,743
673,76	0,485
673,95	0,547
674,15	0,592
674,34	0,462
674,54	0,554
674,73	0,554
674,93	0,843
675,13	0,480
675,32	0,847
675,52	0,831
675,71	0,365
675,91	0,568
676,10	0,325
676,30	0,560
676,49	0,523
676,69	0,828
676,88	0,807
677,08	0,609
677,27	0,523
677,47	0,447
677,66	0,695
677,86	0,647
678,05	0,617
678,24	0,578
678,44	0,715
678,63	0,525
678,83	0,586
679,02	0,752
679,22	0,442
679,41	0,374
679,61	0,498
679,80	0,500
680,00	0,595
680,19	0,742
680,39	0,556
680,58	0,424
680,78	0,264
680,97	0,441
681,17	0,540
681,36	0,421
681,56	0,739
681,75	0,505
681,94	0,391
682,14	0,706
682,33	0,563
682,53	0,770
682,72	0,605
682,92	0,805
683,11	0,467
683,31	0,481
683,50	0,267
683,69	0,591
683,89	0,327
684,08	0,443
684,28	0,240
684,47	0,394
684,67	0,503
684,86	0,161
685,06	0,658
685,25	0,245
685,44	0,405
685,64	0,228
685,83	0,462
686,03	0,238
686,22	0,010
686,42	0,315
686,61	0,325
686,80	0,385
687,00	0,523
687,19	0,631
687,39	0,191
687,58	0,064
687,77	0,332
687,97	0,413
688,16	0,180
688,36	0,220
688,55	0,247
688,74	0,357
688,94	0,255
689,13	0,567
689,33	0,324
689,52	0,375
689,71	0,460
689,91	0,270
690,10	0,432
690,30	0,257
690,49	0,308
690,68	0,425
690,88	0,406
691,07	0,157
691,27	0,209
691,46	0,385
691,65	0,444
691,85	0,358
692,04	0,250
692,23	0,116
692,43	0,339
692,62	0,469
692,82	0,445
693,01	0,344
693,20	0,307
693,40	0,174
693,59	0,405
693,78	0,322
693,98	0,216
694,17	0,402
694,36	0,531
694,56	0,361
694,75	0,199
694,94	0,608
695,14	0,610
695,33	0,334
695,53	0,550
695,72	0,523
695,91	0,252
696,11	0,228
696,30	0,363
696,49	0,233
696,69	0,373
696,88	0,391
697,07	0,416
697,27	0,479
697,46	0,298
697,65	0,303
697,85	0,269
698,04	0,458
698,23	0,628
698,43	0,497
698,62	0,294
698,81	0,215
699,01	0,708
699,20	0,519
699,39	0,833
699,58	0,494
699,78	0,629
699,97	0,173
700,16	1,121
700,36	0,703
700,55	0,740
700,74	0,628
700,94	0,685
701,13	0,619
701,32	1,001
701,52	1,604
701,71	0,753
701,90	1,036
702,09	1,174
702,29	1,041
702,48	1,442
702,67	0,701
702,87	1,252
703,06	1,342
703,25	1,228
703,44	0,614
703,64	1,376
703,83	1,195
704,02	1,733
704,22	0,905
704,41	1,435
704,60	1,834
704,79	1,001
704,99	2,229
705,18	1,213
705,37	1,647
705,56	1,898
705,76	1,620
705,95	0,846
706,14	1,603
706,33	2,689
706,53	1,925
706,72	1,687
706,91	2,518
707,11	2,068
707,30	3,124
707,49	2,373
707,68	1,812
707,88	2,354
708,07	1,100
708,26	2,288
708,45	2,908
708,64	3,355
708,84	3,960
709,03	2,247
709,22	1,655
709,41	3,077
709,61	3,210
709,80	3,531
709,99	4,355
710,18	4,141
710,38	3,286
710,57	1,716
710,76	2,177
710,95	2,955
711,14	4,667
711,34	3,978
711,53	4,283
711,72	3,859
711,91	2,642
712,11	4,602
712,30	4,515
712,49	4,393
712,68	4,426
712,87	4,235
713,07	5,220
713,26	2,704
713,45	4,799
713,64	4,276
713,83	4,783
714,03	6,006
714,22	5,100
714,41	3,846
714,60	3,797
714,79	5,801
714,99	3,888
715,18	2,514
715,37	5,570
715,56	3,806
715,75	4,446
715,94	5,271
716,14	5,103
716,33	5,765
716,52	5,089
716,71	5,698
716,90	7,479
717,10	8,016
717,29	4,629
717,48	6,323
717,67	5,064
717,86	4,388
718,05	3,357
718,24	9,047
718,44	6,023
718,63	5,530
718,82	9,950
719,01	6,051
719,20	2,298
719,39	5,299
719,59	1,688
719,78	5,142
719,97	9,205
720,16	4,935
720,35	6,110
720,54	9,097
720,73	6,648
720,93	6,380
721,12	2,583
721,31	6,968
721,50	3,709
721,69	6,155
721,88	8,145
722,07	7,339
722,27	3,415
722,46	7,587
722,65	5,724
722,84	9,498
723,03	5,736
723,22	10,861
723,41	6,150
723,60	9,942
723,79	7,656
723,99	7,216
724,18	9,221
724,37	11,020
724,56	8,385
724,75	9,447
724,94	10,288
725,13	11,851
725,32	5,323
725,51	9,227
725,71	6,818
725,90	9,484
726,09	10,512
726,28	11,370
726,47	9,375
726,66	11,256
726,85	3,689
727,04	6,438
727,23	8,350
727,42	11,317
727,61	4,021
727,81	13,243
728,00	10,660
728,19	10,069
728,38	9,071
728,57	9,748
728,76	13,257
728,95	8,705
729,14	2,378
729,33	18,661
729,52	12,261
729,71	13,203
729,90	8,955
730,09	8,879
730,28	15,935
730,48	13,341
730,67	17,050
730,86	8,706
731,05	14,603
731,24	9,914
731,43	7,421
731,62	14,912
731,81	6,607
732,00	13,215
732,19	7,663
732,38	8,377
732,57	8,447
732,76	13,333
732,95	6,267
733,14	6,892
733,33	12,637
733,52	15,860
733,71	12,771
733,90	15,553
734,09	13,733
734,28	11,862
734,47	9,211
734,66	15,875
734,85	13,901
735,04	17,847
735,23	13,757
735,42	14,697
735,61	18,667
735,81	9,379
736,00	18,976
736,19	12,130
736,38	16,741
736,57	20,334
736,76	6,047
736,95	15,152
737,14	18,085
737,33	16,533
737,52	12,971
737,71	7,212
737,90	17,549
738,09	13,497
738,28	14,673
738,47	15,359
738,66	19,531
738,85	10,653
739,04	21,562
739,22	12,838
739,41	13,871
739,60	10,702
739,79	18,493
739,98	16,334
740,17	11,395
740,36	28,750
740,55	23,986
740,74	12,174
740,93	19,715
741,12	23,162
741,31	15,074
741,50	15,631
741,69	15,000
741,88	9,000
742,07	11,552
742,26	7,491
742,45	17,589
742,64	25,360
742,83	14,468
743,02	16,937
743,21	18,109
743,40	17,083
743,59	20,082
743,78	13,537
743,97	30,263
744,16	15,965
744,34	19,488
744,53	11,680
744,72	28,482
744,91	13,684
745,10	21,142
745,29	25,532
745,48	15,851
745,67	30,143
745,86	18,545
746,05	19,635
746,24	24,837
746,43	25,296
746,62	21,659
746,81	19,406
747,00	18,998
747,18	32,527
747,37	18,550
747,56	15,281
747,75	16,193
747,94	30,416
748,13	24,429
748,32	25,641
748,51	28,217
748,70	28,537
748,89	23,671
749,08	10,571
749,26	22,912
749,45	30,118
749,64	4,218
749,83	9,924
750,02	24,309
750,21	20,235
750,40	23,698
750,59	34,198
750,78	24,556
750,96	27,095
751,15	20,219
751,34	27,749
751,53	27,833
751,72	24,798
751,91	28,493
752,10	13,580
752,29	31,921
752,47	27,809
752,66	21,690
752,85	17,028
753,04	26,183
753,23	2,980
753,42	26,748
753,61	11,438
753,80	30,623
753,98	29,123
754,17	27,301
754,36	20,339
754,55	23,511
754,74	33,526
754,93	20,173
755,12	33,067
755,30	26,039
755,49	27,523
755,68	36,023
755,87	20,420
756,06	38,268
756,25	20,000
756,43	27,586
756,62	34,125
756,81	18,482
757,00	33,333
757,19	36,301
757,38	29,653
757,56	36,774
757,75	41,503
757,94	34,385
758,13	31,818
758,32	38,636
758,51	29,412
758,69	27,200
758,88	39,339
759,07	19,713
759,26	33,953
759,45	37,991
759,63	47,955
759,82	27,273
760,01	20,067
760,20	38,911
760,39	31,343
760,57	48,347
760,76	21,171
760,95	35,185
761,14	47,347
761,33	28,750
761,51	31,183
761,70	44,138
761,89	33,607
762,08	36,744
762,27	35,165
762,45	39,300
762,64	42,491
762,83	41,150
763,02	40,930
763,21	34,052
763,39	46,122
763,58	40,377
763,77	32,819
763,96	54,217
764,14	43,750
764,33	39,194
764,52	61,373
764,71	34,529
764,89	33,333
765,08	45,690
765,27	44,238
765,46	29,348
765,65	45,415
765,83	36,364
766,02	33,617
766,21	73,481
766,40	37,143
766,58	38,618
766,77	48,756
766,96	48,182
767,15	58,454
767,33	20,468
767,52	43,293
767,71	48,261
767,90	40,449
768,08	47,471
768,27	46,000
768,46	53,125
768,64	54,922
768,83	32,812
769,02	49,000
769,21	50,218
769,39	49,419
769,58	36,994
769,77	58,621
769,96	40,838
770,14	42,177
770,33	51,869
770,52	48,677
770,70	70,000
770,89	64,430
771,08	51,271
771,27	60,309
771,45	54,825
771,64	61,979
771,83	57,944
772,01	34,337
772,20	60,804
772,39	45,333
772,57	62,016
772,76	30,370
772,95	54,610
773,14	50,000
773,32	60,000
773,51	88,557
773,70	70,625
773,88	74,317
774,07	64,921
774,26	43,972
774,44	43,293
774,63	65,482
774,82	60,366
775,00	63,333
775,19	43,200
775,38	65,896
775,56	52,083
775,75	76,506
775,94	52,532
776,12	51,934
776,31	54,706
776,50	37,500
776,68	71,579
776,87	44,886
777,06	79,310
777,24	54,444
777,43	53,205
777,62	108,824
777,80	64,865
777,99	60,000
778,18	72,772
778,36	63,200
778,55	76,860
778,74	79,167
778,92	78,107
779,11	81,667
779,29	94,340
779,48	48,980
779,67	55,814
779,85	68,293
780,04	54,054
780,23	66,906
780,41	68,750
780,60	42,632
780,79	68,362
780,97	67,763
781,16	52,727
781,34	41,237
781,53	107,692
781,72	57,664
781,90	61,719
782,09	52,903
782,28	115,328
782,46	88,889
782,65	50,714
782,83	79,775
783,02	70,000
783,21	101,333
783,39	89,565
783,58	100,000
783,76	79,888
783,95	75,758
784,14	72,185
784,32	69,799
784,51	92,241
784,69	80,508
784,88	115,315
785,06	73,109
785,25	87,261
785,44	68,345
785,62	78,571
785,81	116,901
785,99	81,295
786,18	81,081
786,37	60,741
786,55	32,110
786,74	36,184
786,92	35,156
787,11	92,500
787,29	50,746
787,48	79,333
787,67	100,000
787,85	100,862
788,04	72,772
788,22	59,016
788,41	80,000
788,59	101,835
788,78	77,576
788,96	93,396
789,15	121,053
789,34	91,818
789,52	92,920
789,71	91,473
789,89	153,191
790,08	95,890
790,26	62,857
790,45	99,242
790,63	74,074
790,82	84,242
791,00	79,861
791,19	100,000
791,38	97,917
791,56	102,632
791,75	113,761
791,93	105,747
792,12	70,414
792,30	99,200
792,49	75,630
792,67	105,224
792,86	73,643
793,04	109,346
793,23	51,667
793,41	105,063
793,60	94,949
793,78	129,825
793,97	184,615
794,15	85,455
794,34	84,615
794,52	150,649
794,71	97,531
794,89	92,222
795,08	106,796
795,26	75,556
795,45	88,060
795,63	103,788
795,82	114,953
796,00	107,339
796,19	100,000
796,37	51,825
796,56	129,032
796,74	86,726
796,93	70,787
797,11	84,810
797,30	84,167
797,48	79,310
797,67	70,000
797,85	83,673
798,04	90,625
798,22	120,635
798,41	102,941
798,59	95,789
798,77	98,462
798,96	40,860
799,14	70,690
799,33	94,656
799,51	72,308
799,70	93,289
799,88	139,394
800,07	66,447
800,25	84,828
800,44	96,970
800,62	127,059
800,80	134,783
800,99	123,810
801,17	86,207
801,36	90,345
801,54	100,000
801,73	73,737
801,91	74,590
802,10	80,952
802,28	117,757
802,46	114,815
802,65	85,057
802,83	133,708
803,02	96,842
803,20	121,875
803,39	86,207
803,57	107,229
803,75	76,351
803,94	88,235
804,12	71,667
804,31	79,646
804,49	64,423
804,67	84,000
804,86	67,857
805,04	84,459
805,23	74,483
805,41	103,279
805,59	23,770
805,78	71,970
805,96	79,487
806,15	82,813
806,33	79,832
806,51	93,805
806,70	170,000
806,88	90,244
807,07	88,095
807,25	65,409
807,43	93,377
807,62	88,618
807,80	89,247
807,99	101,587
808,17	60,993
808,35	114,912
808,54	143,011
808,72	97,600
808,90	123,684
809,09	105,000
809,27	117,117
809,46	101,786
809,64	62,745
809,82	51,724
810,01	86,364
810,19	94,000
810,37	66,923
810,56	115,854
810,74	59,603
810,92	135,606
811,11	162,745
811,29	101,418
811,48	104,040
811,66	96,899
811,84	111,009
812,03	88,182
812,21	123,077
812,39	120,339
812,58	95,098
812,76	71,963
812,94	115,333
813,13	76,984
813,31	82,500
813,49	106,522
813,68	91,304
813,86	51,020
814,04	135,922
814,23	79,798
814,41	76,471
814,59	82,486
814,78	90,441
814,96	103,604
815,14	152,222
815,33	104,348
815,51	85,926
815,69	108,642
815,87	83,478
816,06	70,625
816,24	78,808
816,42	46,795
816,61	61,864
816,79	125,301
816,97	107,207
817,16	60,000
817,34	84,828
817,52	73,793
817,70	134,921
817,89	63,636
818,07	125,000
818,25	64,865
818,44	90,116
818,62	76,724
818,80	83,217
818,98	98,095
819,17	78,462
819,35	75,294
819,53	96,040
819,72	71,512
819,90	61,677
820,08	54,545
820,26	114,912
820,45	77,711
820,63	76,562
820,81	65,101
820,99	94,737
821,18	82,222
821,36	80,476
821,54	73,256
821,73	80,000
821,91	57,447
822,09	80,588
822,27	65,482
822,46	73,750
822,64	89,404
822,82	78,537
823,00	84,685
823,19	58,333
823,37	97,857
823,55	70,000
823,73	76,000
823,91	60,773
824,10	76,536
824,28	70,370
824,46	66,279
824,64	65,686
824,83	61,789
825,01	62,319
825,19	87,429
825,37	44,271
825,56	62,500
825,74	69,048
825,92	68,539
826,10	90,683
826,28	47,651
826,47	53,659
826,65	68,243
826,83	60,753
827,01	34,848
827,19	77,848
827,38	70,466
827,56	56,731
827,74	62,195
827,92	77,073
828,10	58,152
828,29	66,667
828,47	67,982
828,65	77,297
828,83	52,020
829,01	64,667
829,20	63,291
829,38	48,963
829,56	62,348
829,74	86,364
829,92	60,825
830,10	56,757
830,29	56,216
830,47	73,958
830,65	27,679
830,83	52,000
831,01	46,667
831,20	57,921
831,38	47,805
831,56	35,628
831,74	54,857
831,92	40,341
832,10	64,545
832,29	55,450
832,47	53,097
832,65	68,511
832,83	40,465
833,01	37,154
833,19	47,059
833,37	38,889
833,56	58,216
833,74	30,364
833,92	29,204
834,10	39,594
834,28	49,231
834,46	57,785
834,64	42,187
834,83	33,106
835,01	47,082
835,19	57,820
835,37	38,645
835,55	56,318
835,73	42,647
835,91	47,104
836,09	26,556
836,28	49,618
836,46	56,140
836,64	47,131
836,82	38,060
837,00	40,136
837,18	56,917
837,36	47,594
837,54	34,848
837,72	35,060
837,91	36,948
838,09	38,800
838,27	40,293
838,45	46,926
838,63	34,237
838,81	44,408
838,99	47,387
839,17	38,835
839,35	43,704
839,53	42,617
839,72	23,729
839,90	32,827
840,08	43,269
840,26	41,325
840,44	33,025
840,62	31,987
840,80	26,235
840,98	43,807
841,16	37,367
841,34	39,130
841,52	45,687
841,70	32,323
841,89	36,452
842,07	41,351
842,25	40,584
842,43	43,548
842,61	32,708
842,79	40,854
842,97	24,390
843,15	40,688
843,33	37,055
843,51	29,356
843,69	29,444
843,87	35,580
844,05	29,650
844,23	46,216
844,41	19,095
844,59	32,386
844,77	22,190
844,95	41,019
845,13	34,699
845,31	34,078
845,50	31,186
845,68	19,171
845,86	43,632
846,04	25,432
846,22	20,048
846,40	19,948
846,58	21,180
846,76	25,436
846,94	29,567
847,12	25,592
847,30	27,880
847,48	32,854
847,66	30,244
847,84	24,873
848,02	30,769
848,20	32,009
848,38	23,109
848,56	28,172
848,74	17,355
848,92	19,415
849,10	33,705
849,28	21,351
849,46	26,402
849,64	32,381
849,82	19,952
850,00	15,811
850,18	21,709
850,36	25,000
850,54	23,991
850,72	24,324
850,90	32,117
851,08	15,021
851,26	30,567
851,44	25,301
851,62	18,985
851,80	22,465
851,98	33,128
852,16	29,835
852,34	32,068
852,52	22,664
852,70	12,249
852,87	23,238
853,05	24,248
853,23	20,392
853,41	20,041
853,59	16,981
853,77	25,595
853,95	21,822
854,13	24,272
854,31	24,607
854,49	18,838
854,67	26,128
854,85	22,783
855,03	25,287
855,21	26,734
855,39	17,450
855,57	30,072
855,75	19,899
855,93	20,495
856,11	25,678
856,28	25,000
856,46	16,993
856,64	18,932
856,82	16,405
857,00	20,934
857,18	27,387
857,36	17,479
857,54	23,818
857,72	15,359
857,90	23,723
858,08	17,901
858,26	17,737
858,44	15,839
858,61	19,064
858,79	19,380
858,97	20,201
859,15	17,960
859,33	10,123
859,51	20,128
859,69	19,048
859,87	20,059
860,05	26,778
860,23	13,030
860,40	20,737
860,58	16,379
860,76	21,610
860,94	18,321
861,12	20,255
861,30	25,718
861,48	19,547
861,66	21,842
861,84	19,413
862,01	22,193
862,19	21,138
862,37	22,886
862,55	12,813
862,73	19,293
862,91	13,953
863,09	20,156
863,27	17,827
863,44	19,073
863,62	15,147
863,80	14,710
863,98	19,285
864,16	19,729
864,34	17,143
864,52	20,957
864,69	21,205
864,87	22,169
865,05	16,216
865,23	20,290
865,41	19,905
865,59	27,936
865,76	19,121
865,94	20,901
866,12	13,477
866,30	20,368
866,48	18,454
866,66	21,584
866,83	18,162
867,01	21,317
867,19	17,693
867,37	19,328
867,55	20,417
867,73	23,235
867,90	20,048
868,08	19,172
868,26	15,165
868,44	17,811
868,62	16,614
868,79	14,935
868,97	21,002
869,15	20,276
869,33	12,238
869,51	21,868
869,69	17,310
869,86	17,128
870,04	17,143
870,22	13,840
870,40	13,030
870,57	20,100
870,75	18,966
870,93	19,667
871,11	13,937
871,29	18,496
871,46	14,502
871,64	17,112
871,82	18,634
872,00	18,398
872,18	19,396
872,35	16,221
872,53	15,879
872,71	9,625
872,89	16,775
873,06	15,406
873,24	13,879
873,42	16,219
873,60	8,999
873,77	15,125
873,95	13,625
874,13	17,263
874,31	12,834
874,49	11,944
874,66	13,144
874,84	14,565
875,02	12,693
875,20	12,562
875,37	11,329
875,55	12,024
875,73	11,734
875,91	14,141
876,08	11,465
876,26	10,741
876,44	11,262
876,61	13,893
876,79	12,227
876,97	14,533
877,15	15,725
877,32	15,433
877,50	11,994
877,68	14,087
877,86	10,838
878,03	11,589
878,21	9,587
878,39	13,630
878,56	10,988
878,74	10,412
878,92	11,350
879,10	10,355
879,27	14,494
879,45	15,003
879,63	10,776
879,80	9,313
879,98	6,904
880,16	12,984
880,34	9,656
880,51	14,884
880,69	14,231
880,87	10,790
881,04	10,509
881,22	11,924
881,40	7,880
881,57	11,141
881,75	9,758
881,93	10,298
882,10	11,467
882,28	9,645
882,46	12,424
882,63	13,065
882,81	12,241
882,99	11,713
883,16	11,223
883,34	13,372
883,52	9,768
883,69	12,293
883,87	10,608
884,05	9,338
884,22	10,040
884,40	12,841
884,58	10,335
884,75	11,166
884,93	12,775
885,11	10,609
885,28	9,414
885,46	12,995
885,64	13,089
885,81	14,233
885,99	11,818
886,17	10,592
886,34	14,053
886,52	12,481
886,70	12,393
886,87	12,998
887,05	13,821
887,22	13,685
887,40	13,735
887,58	12,438
887,75	13,011
887,93	14,278
888,11	13,099
888,28	13,561
888,46	13,742
888,63	15,143
888,81	12,845
888,99	10,379
889,16	14,123
889,34	15,093
889,51	12,720
889,69	12,976
889,87	11,889
890,04	12,063
890,22	12,607
890,39	12,163
890,57	15,518
890,75	15,477
890,92	15,961
891,10	13,493
891,27	13,042
891,45	12,125
891,63	15,438
891,80	15,150
891,98	16,148
892,15	12,606
892,33	14,969
892,51	14,767
892,68	13,685
892,86	12,828
893,03	13,616
893,21	15,036
893,38	14,497
893,56	13,958
893,74	13,700
893,91	12,692
894,09	15,116
894,26	14,616
894,44	14,397
894,61	14,336
894,79	13,810
894,96	15,092
895,14	14,116
895,32	13,542
895,49	15,426
895,67	13,819
895,84	13,564
896,02	13,776
896,19	13,000
896,37	13,954
896,54	15,169
896,72	14,812
896,89	13,796
897,07	13,459
897,25	15,053
897,42	12,975
897,60	13,989
897,77	15,045
897,95	14,987
898,12	12,243
898,30	13,322
898,47	13,798
898,65	14,345
898,82	12,560
899,00	13,364
899,17	13,088
899,35	13,730
899,52	12,231
899,70	12,310
899,87	14,894
900,05	13,409
900,22	13,883
900,40	13,619
900,57	14,908
900,75	14,127
900,92	12,881
901,10	13,684
901,27	14,483
901,45	13,941
901,62	12,336
901,80	13,718
901,97	13,499
902,15	12,764
902,32	11,737
902,50	13,010
902,67	11,558
902,85	12,652
903,02	14,008
903,20	11,275
903,37	11,920
903,54	12,425
903,72	12,142
903,89	11,898
904,07	12,423
904,24	12,313
904,42	11,189
904,59	9,949
904,77	11,944
904,94	11,035
905,12	10,814
905,29	12,101
905,47	12,608
905,64	10,808
905,81	9,854
905,99	11,460
906,16	11,647
906,34	12,095
906,51	11,537
906,69	9,717
906,86	10,613
907,03	10,052
907,21	9,102
907,38	9,429
907,56	9,732
907,73	10,929
907,91	10,919
908,08	9,918
908,25	8,686
908,43	10,621
908,60	10,180
908,78	10,727
908,95	8,900
909,13	10,173
909,30	7,690
909,47	9,694
909,65	9,638
909,82	11,232
910,00	8,866
910,17	9,893
910,34	9,957
910,52	9,320
910,69	9,912
910,87	8,410
911,04	8,416
911,21	8,539
911,39	8,113
911,56	9,104
911,73	7,975
911,91	8,715
912,08	9,805
912,26	7,089
912,43	7,989
912,60	8,476
912,78	8,199
912,95	8,041
913,13	9,127
913,30	7,768
913,47	8,588
913,65	7,996
913,82	8,417
913,99	7,670
914,17	9,393
914,34	9,145
914,51	9,949
914,69	8,716
914,86	10,483
915,03	10,868
915,21	9,823
915,38	8,427
915,56	10,391
915,73	10,481
915,90	10,278
916,08	9,945
916,25	9,142
916,42	10,559
916,60	9,690
916,77	10,641
916,94	9,666
917,12	11,783
917,29	11,475
917,46	10,964
917,64	10,815
917,81	10,036
917,98	8,898
918,16	10,988
918,33	11,717
918,50	11,438
918,67	10,767
918,85	11,437
919,02	10,800
919,19	11,889
919,37	11,140
919,54	11,317
919,71	12,121
919,89	10,371
920,06	10,502
920,23	11,343
920,41	11,938
920,58	12,310
920,75	12,686
920,92	10,881
921,10	11,761
921,27	10,669
921,44	12,100
921,62	11,566
921,79	11,393
921,96	11,726
922,13	10,955
922,31	10,974
922,48	10,696
922,65	11,250
922,82	11,854
923,00	12,213
923,17	11,394
923,34	11,187
923,52	11,512
923,69	12,029
923,86	11,436
924,03	12,580
924,21	11,950
924,38	12,639
924,55	12,678
924,72	13,045
924,90	12,421
925,07	12,311
925,24	12,915
925,41	11,760
925,59	11,405
925,76	11,178
925,93	12,087
926,10	12,433
926,28	12,041
926,45	12,699
926,62	12,408
926,79	11,873
926,96	12,581
927,14	12,779
927,31	12,290
927,48	11,978
927,65	11,840
927,83	11,632
928,00	11,205
928,17	13,305
928,34	12,845
928,51	12,488
928,69	12,956
928,86	12,289
929,03	13,077
929,20	13,106
929,37	13,602
929,55	13,191
929,72	13,271
929,89	13,648
930,06	13,331
930,23	13,796
930,41	13,033
930,58	14,474
930,75	15,070
930,92	15,067
931,09	14,788
931,27	14,207
931,44	13,925
931,61	16,162
931,78	15,210
931,95	14,825
932,12	15,062
932,30	16,493
932,47	15,770
932,64	15,965
932,81	16,397
932,98	16,962
933,16	17,286
933,33	17,661
933,50	18,070
933,67	18,407
933,84	18,216
934,01	18,675
934,18	18,801
934,36	17,925
934,53	18,999
934,70	20,034
934,87	19,257
935,04	21,078
935,21	20,100
935,38	20,507
935,56	19,683
935,73	20,462
935,90	21,119
936,07	22,509
936,24	22,784
936,41	22,745
936,58	22,482
936,76	24,139
936,93	23,785
937,10	23,139
937,27	24,840
937,44	23,088
937,61	25,273
937,78	25,264
937,95	24,851
938,13	25,641
938,30	26,201
938,47	26,197
938,64	28,246
938,81	27,219
938,98	27,861
939,15	28,149
939,32	28,400
939,49	28,689
939,66	29,061
939,84	29,287
940,01	30,155
940,18	30,568
940,35	30,690
940,52	30,306
940,69	31,606
940,86	29,971
941,03	31,582
941,20	32,821
941,37	31,757
941,54	31,976
941,71	32,179
941,89	32,758
942,06	31,884
942,23	32,687
942,40	34,890
942,57	33,865
942,74	33,924
942,91	32,699
943,08	35,399
943,25	35,153
943,42	33,635
943,59	34,299
943,76	35,110
943,93	33,984
944,10	33,609
944,27	34,930
944,44	35,457
944,61	34,707
944,79	35,981
944,96	37,161
945,13	34,859
945,30	34,863
945,47	36,109
945,64	36,701
945,81	36,316
945,98	36,636
946,15	37,108
946,32	35,670
946,49	36,351
946,66	36,798
946,83	37,857
947,00	37,279
947,17	39,376
947,34	37,500
947,51	36,992
947,68	39,346
947,85	36,966
948,02	37,425
948,19	37,642
948,36	37,625
948,53	37,590
948,70	37,895
948,87	37,957
949,04	37,920
949,21	36,999
949,38	37,897
949,55	36,311
949,72	37,392
949,89	40,199
950,06	39,260
950,23	35,757
950,40	38,190
950,57	36,009
950,74	40,415
950,91	37,470
951,08	38,988
951,25	39,012
951,42	41,453
951,59	37,538
951,76	40,812
951,93	41,412
952,10	41,382
952,27	37,346
952,44	38,718
952,61	38,410
952,77	40,392
952,94	41,792
953,11	40,252
953,28	41,461
953,45	42,145
953,62	39,325
953,79	41,416
953,96	42,633
954,13	42,214
954,30	41,625
954,47	45,849
954,64	40,713
954,81	44,607
954,98	45,368
955,15	43,153
955,32	44,372
955,49	44,975
955,65	45,229
955,82	44,209
955,99	46,190
956,16	50,197
956,33	46,165
956,50	49,340
956,67	47,759
956,84	44,741
957,01	50,624
957,18	46,508
957,35	47,360
957,52	51,007
957,68	48,000
957,85	52,085
958,02	48,234
958,19	47,346
958,36	55,940
958,53	54,747
958,70	48,235
958,87	48,728
959,04	51,095
959,21	51,515
959,37	53,680
959,54	58,655
959,71	51,230
959,88	54,007
960,05	54,857
960,22	48,047
960,39	59,600
960,56	46,203
960,72	55,082
960,89	62,357
961,06	57,580
961,23	55,313
961,40	62,049
961,57	53,210
961,74	50,000
961,90	59,688
962,07	57,686
962,24	64,065
962,41	63,819
962,58	60,413
962,75	60,531
962,92	66,729
963,08	64,727
963,25	61,982
963,42	72,947
963,59	64,256
963,76	73,933
963,93	72,311
964,10	70,021
964,26	73,026
964,43	83,979
964,60	71,762
964,77	68,675
964,94	63,636
965,10	89,286
965,27	78,851
965,44	69,091
965,61	68,871
965,78	90,735
965,95	84,431
966,11	79,257
966,28	86,245
966,45	80,374
966,62	80,308
966,79	111,020
966,95	80,896
967,12	89,905
967,29	88,889
967,46	85,606
967,63	91,698
967,79	112,162
967,96	93,939
968,13	86,000
968,30	104,032
968,47	99,313
968,63	114,865
968,80	108,716
968,97	105,769
969,14	130,814
969,31	117,778
969,47	132,941
969,64	119,697
969,81	94,819
969,98	109,890
970,14	120,245
970,31	121,384
970,48	132,500
970,65	124,852
970,81	157,534
970,98	183,212
971,15	225,510
971,32	136,719
971,48	134,694
971,65	123,077
971,82	176,471
971,99	196,552
972,15	138,732
972,32	156,757
972,49	149,650
972,66	190,000
972,82	180,233
972,99	158,537
973,16	177,011
973,33	130,357
973,49	163,158
973,66	177,419
973,83	151,456
974,00	159,302
974,16	182,353
974,33	170,175
974,50	130,526
974,67	190,526
974,83	134,524
975,00	130,526
975,17	149,451
975,33	165,169
975,50	211,940
975,67	251,020
975,84	234,328
976,00	175,281
976,17	247,541
976,34	114,000
976,50	211,236
976,67	141,748
976,84	3066,667
977,00	306,122
977,17	273,333
977,34	239,560
977,50	170,149
977,67	282,143
977,84	272,581
978,01	265,957
978,17	1066,667
978,34	272,222
978,51	405,882
978,67	184,211
978,84	117,969
979,01	324,324
979,17	223,077
979,34	122,603
979,51	267,347
979,67	198,765
979,84	324,490
980,01	328,889
980,17	250,704
980,34	340,741
980,51	213,043
980,67	170,588
980,84	463,333
981,01	375,000
981,17	740,000
981,34	966,667
981,50	183,824
981,67	228,814
981,84	3700,000
982,00	483,333
982,17	247,619
982,34	155,556
982,50	913,333
982,67	197,917
982,84	2640,000
983,00	1716,667
983,17	186,567
983,33	163,793
983,50	1440,000
983,67	-351,724
983,83	421,212
984,00	-1100,000
984,17	733,333
984,33	-5600,000
984,50	431,429
984,66	195,652
984,83	188,312
985,00	-666,667
985,16	489,655
985,33	800,000
985,49	650,000
985,66	335,294
985,83	513,043
985,99	366,667
986,16	-2775,000
986,32	864,286
986,49	8300,000
986,66	424,242
986,82	875,000
986,99	288,679
987,15	-415,789
987,32	-250,000
987,49	246,000
987,65	7150,000
987,82	320,833
987,98	367,347
988,15	500,000
988,31	1180,000
988,48	-1433,333
988,65	302,381
988,81	366,667
988,98	373,171
989,14	359,524
989,31	519,048
989,47	344,118
989,64	-807,692
989,80	662,500
989,97	354,054
990,14	-265,217
990,30	-577,273
990,47	336,735
990,63	405,556
990,80	306,000
990,96	-555,000
991,13	390,625
991,29	410,345
991,46	0,000
991,62	-976,923
991,79	758,333
991,95	6600,000
992,12	-1380,000
992,29	-475,000
992,45	164,706
992,62	248,837
992,78	297,727
992,95	-680,000
993,11	460,714
993,28	1430,000
993,44	-1120,000
993,61	-531,250
993,77	-2975,000
993,94	-3966,667
994,10	-94,667
994,27	894,737
994,43	306,977
994,60	0,000
994,76	3325,000
994,93	400,000
995,09	-670,588
995,26	1533,333
995,42	325,490
995,59	661,905
995,75	984,615
995,92	2157,143
996,08	477,778
996,25	-975,000
996,41	-7250,000
996,58	960,000
996,74	325,000
996,91	524,138
997,07	0,000
997,23	11800,000
997,40	-12500,000
997,56	-823,077
997,73	-1600,000
997,89	368,421
998,06	1307,692
998,22	-622,222
998,39	572,000
998,55	1888,889
998,72	-1987,500
998,88	-433,333
999,05	-108,974
999,21	342,857
999,37	-693,333
999,54	-1100,000
999,70	-293,333
999,87	656,250
1000,03	302,564
1000,20	287,500
1000,36	0,000
1000,52	345,833
1000,69	-609,524
1000,85	-880,000
1001,02	-458,333
1001,18	1700,000
1001,35	761,538
1001,51	535,294
1001,67	-830,769
1001,84	-2460,000
1002,00	275,676
1002,17	990,909
1002,33	-2275,000
1002,50	380,952
1002,66	-669,231
1002,82	325,000
1002,99	671,429
1003,15	-1714,286
1003,32	-918,182
1003,48	317,857
1003,64	846,667
1003,81	533,333
1003,97	-5550,000
1004,14	1009,091
1004,30	403,333
1004,46	-633,333
1004,63	507,143
1004,79	338,889
1004,95	873,333
1005,12	4050,000
1005,28	500,000
1005,45	400,000
1005,61	472,414
1005,77	-250,000
1005,94	-490,476
1006,10	-6700,000
1006,26	1176,923
1006,43	-326,923
1006,59	-1209,091
1006,76	1028,571
1006,92	1100,000
1007,08	13600,000
1007,25	-348,148
1007,41	617,241
1007,57	3500,000
1007,74	970,000
1007,90	-451,724
1008,06	217,391
1008,23	823,529
1008,39	-656,250
1008,55	-346,154
1008,72	-1414,286
1008,88	0,000
1009,04	280,488
1009,21	-186,842
1009,37	-725,000
1009,53	195,238
1009,70	2800,000
1009,86	-742,857
1010,02	2966,667
1010,19	809,091
1010,35	236,765
1010,51	-5750,000
1010,68	-1387,500
1010,84	-261,364
1011,00	725,000
1011,17	-309,091
1011,33	0,000
1011,49	-673,333
1011,66	878,571
1011,82	493,548
1011,98	557,143
1012,14	-436,364
1012,31	400,000
1012,47	0,000
1012,63	1933,333
1012,80	878,571
1012,96	-818,750
1013,12	-2216,667
1013,29	761,111
1013,45	380,488
1013,61	4200,000
1013,77	-141,071
1013,94	2400,000
1014,10	211,864
1014,26	-2525,000
1014,43	-400,000
1014,59	560,000
1014,75	-561,111
1014,91	-726,667
1015,08	452,778
1015,24	8900,000
1015,40	517,647
1015,56	-12800,000
1015,73	304,762
1015,89	818,182
1016,05	2925,000
1016,21	-1000,000
1016,38	573,684
1016,54	1100,000
1016,70	-2866,667
1016,86	475,000
1017,03	787,500
1017,19	-846,154
1017,35	-664,706
1017,51	-1900,000
1017,68	-770,000
1017,84	-1571,429
1018,00	326,190
1018,16	300,000
1018,33	-1300,000
1018,49	-783,333
1018,65	-113,514
1018,81	333,333
1018,97	-1685,714
1019,14	-4166,667
1019,30	-243,590
1019,46	0,000
1019,62	-488,235
1019,79	-3866,667
1019,95	1008,333
1020,11	5450,000
1020,27	-322,222
1020,43	-392,308
1020,60	1966,667
1020,76	705,556
1020,92	680,000
1021,08	705,000
1021,24	1430,000
1021,41	1155,556
1021,57	1600,000
1021,73	869,231
1021,89	2780,000
1022,05	-460,714
1022,21	670,000
1022,38	-741,667
1022,54	-2283,333
1022,70	304,444
1022,86	-1600,000
1023,02	620,833
1023,19	2200,000
1023,35	2933,333
1023,51	637,500
1023,67	388,889
1023,83	-487,500
1023,99	313,158
1024,16	-373,077
1024,32	-1155,556
1024,48	-1100,000
1024,64	230,952
1024,80	617,391
1024,96	341,026
1025,12	295,238
1025,29	485,714
1025,45	350,000
1025,61	561,111
1025,77	-2600,000
1025,93	-4900,000
1026,09	-1557,143
1026,26	741,667
1026,42	712,500
1026,58	369,697
1026,74	2150,000
1026,90	296,000
1027,06	414,286
1027,22	964,286
1027,38	288,462
1027,55	2866,667
1027,71	866,667
1027,87	-232,000
1028,03	1060,000
1028,19	371,875
1028,35	670,000
1028,51	1900,000
1028,67	933,333
1028,83	-2450,000
1029,00	-316,667
1029,16	1130,000
1029,32	-360,714
1029,48	322,222
1029,64	461,111
1029,80	5600,000
1029,96	860,000
1030,12	560,870
1030,28	-3333,333
1030,44	-676,923
1030,61	-358,333
1030,77	-222,857
1030,93	-726,667
1031,09	1866,667
1031,25	-7400,000
1031,41	-380,000
1031,57	457,692
1031,73	787,500
1031,89	-981,818
1032,05	-400,000
1032,21	918,182
1032,37	-181,481
1032,53	-885,714
1032,69	-300,000
1032,86	303,704
1033,02	-242,500
1033,18	-781,250
1033,34	552,632
1033,50	-5550,000
1033,66	-304,878
1033,82	491,304
1033,98	-374,074
1034,14	230,769
1034,30	393,548
1034,46	-3933,333
1034,62	640,000
1034,78	-580,952
1034,94	255,263
1035,10	-638,462
1035,26	-183,721
1035,42	-320,690
1035,58	-455,556
1035,74	1158,333
1035,90	-938,462
1036,06	-1533,333
1036,22	1316,667
1036,38	-794,118
1036,54	-387,500
1036,70	-242,424
1036,86	12800,000
1037,02	555,556
1037,18	626,316
1037,34	168,571
1037,50	-200,000
1037,66	-382,353
1037,82	3100,000
1037,98	-500,000
1038,14	-456,000
1038,30	-1400,000
1038,46	-307,143
1038,62	486,957
1038,78	-3200,000
1038,94	-500,000
1039,10	422,727
1039,26	425,926
1039,42	-766,667
1039,58	1442,857
1039,74	-473,684
1039,90	390,625
1040,06	-392,308
>>>>>End Processed Spectral Data<<<<<
