SpectraSuite Data File
++++++++++++++++++++++++++++++++++++
Date: Wed Feb 01 15:36:18 EET 2017
User: optolab
Dark Spectrum Present: Yes
Reference Spectrum Present: Yes
Number of Sampled Component Spectra: 1
Spectrometers: USB4C02475
Integration Time (usec): 100000 (USB4C02475)
Spectra Averaged: 1 (USB4C02475)
Boxcar Smoothing: 0 (USB4C02475)
Correct for Electrical Dark: No (USB4C02475)
Strobe/Lamp Enabled: No (USB4C02475)
Correct for Detector Non-linearity: No (USB4C02475)
Correct for Stray Light: No (USB4C02475)
Number of Pixels in Processed Spectrum: 3648
>>>>>Begin Processed Spectral Data<<<<<
344,91	1400,000
345,13	1400,000
345,35	1400,000
345,57	0,000
345,79	242,105
346,00	-1177,778
346,22	-1671,429
346,44	329,412
346,66	-350,000
346,87	-9100,000
347,09	312,121
347,31	-109,091
347,53	-169,231
347,74	189,231
347,96	296,970
348,18	663,158
348,40	367,742
348,61	658,824
348,83	340,476
349,05	194,118
349,27	-2900,000
349,48	511,538
349,70	-358,621
349,92	367,742
350,14	216,981
350,35	226,000
350,57	1200,000
350,79	424,000
351,01	-619,048
351,22	224,074
351,44	461,538
351,66	-272,000
351,87	-323,810
352,09	207,692
352,31	42,623
352,53	198,438
352,74	280,556
352,96	210,390
353,18	478,947
353,40	316,000
353,61	246,667
353,83	329,412
354,05	636,364
354,26	1016,667
354,48	150,000
354,70	300,000
354,92	-131,034
355,13	123,232
355,35	234,091
355,57	520,833
355,78	174,699
356,00	-2125,000
356,22	238,462
356,44	3450,000
356,65	318,182
356,87	315,385
357,09	400,000
357,30	264,444
357,52	206,897
357,74	580,000
357,95	235,897
358,17	168,852
358,39	295,161
358,60	213,514
358,82	437,500
359,04	288,889
359,26	448,571
359,47	5200,000
359,69	292,500
359,91	324,242
360,12	428,571
360,34	504,167
360,56	-35,185
360,77	1100,000
360,99	438,095
361,21	236,000
361,42	3250,000
361,64	195,918
361,86	252,308
362,07	-458,065
362,29	181,333
362,51	-482,353
362,72	464,000
362,94	273,529
363,16	179,070
363,37	-592,857
363,59	380,769
363,81	259,091
364,02	433,333
364,24	445,833
364,46	933,333
364,67	454,545
364,89	1742,857
365,11	187,143
365,32	393,103
365,54	311,111
365,76	236,735
365,97	311,765
366,19	170,690
366,41	522,727
366,62	292,593
366,84	281,395
367,05	232,653
367,27	1900,000
367,49	-607,692
367,70	558,824
367,92	191,803
368,14	227,083
368,35	-8500,000
368,57	424,000
368,79	386,207
369,00	260,870
369,22	-700,000
369,43	168,235
369,65	196,774
369,87	370,270
370,08	121,687
370,30	185,714
370,51	216,393
370,73	182,222
370,95	243,548
371,16	154,762
371,38	336,667
371,60	1050,000
371,81	134,375
372,03	986,667
372,24	290,000
372,46	190,566
372,68	132,857
372,89	300,000
373,11	369,231
373,32	227,273
373,54	-700,000
373,76	492,308
373,97	606,667
374,19	318,182
374,40	207,812
374,62	-1566,667
374,84	2400,000
375,05	457,143
375,27	234,000
375,48	-5200,000
375,70	141,333
375,92	139,286
376,13	306,250
376,35	171,233
376,56	618,750
376,78	162,500
376,99	350,000
377,21	239,583
377,43	175,758
377,64	146,377
377,86	262,069
378,07	287,179
378,29	-1012,500
378,51	267,742
378,72	241,667
378,94	-944,444
379,15	127,273
379,37	711,765
379,58	140,000
379,80	673,333
380,01	550,000
380,23	186,275
380,45	1040,000
380,66	2100,000
380,88	222,727
381,09	177,143
381,31	130,000
381,52	182,353
381,74	1055,556
381,95	454,545
382,17	426,923
382,39	414,286
382,60	159,184
382,82	400,000
383,03	259,615
383,25	341,935
383,46	234,091
383,68	244,444
383,89	385,000
384,11	312,903
384,32	-2366,667
384,54	388,889
384,76	-2233,333
384,97	190,909
385,19	320,690
385,40	198,039
385,62	233,333
385,83	235,714
386,05	178,431
386,26	298,000
386,48	127,586
386,69	220,833
386,91	485,000
387,12	200,000
387,34	182,759
387,55	214,516
387,77	359,375
387,98	307,692
388,20	102,174
388,41	261,765
388,63	4400,000
388,84	163,934
389,06	328,571
389,27	726,316
389,49	200,000
389,70	240,816
389,92	326,667
390,13	161,224
390,35	241,176
390,56	261,111
390,78	433,333
390,99	690,000
391,21	484,211
391,42	182,222
391,64	214,634
391,85	129,310
392,07	150,000
392,28	162,667
392,50	190,909
392,71	-687,500
392,93	290,385
393,14	377,778
393,36	142,857
393,57	121,805
393,79	677,778
394,00	144,681
394,22	76,712
394,43	162,651
394,65	255,814
394,86	962,500
395,08	485,714
395,29	184,906
395,50	276,923
395,72	416,667
395,93	457,143
396,15	122,535
396,36	167,647
396,58	206,667
396,79	227,500
397,01	170,000
397,22	188,889
397,44	175,758
397,65	154,386
397,87	254,762
398,08	175,510
398,29	290,625
398,51	160,714
398,72	197,561
398,94	181,538
399,15	257,143
399,37	189,474
399,58	143,956
399,80	395,455
400,01	166,667
400,22	400,000
400,44	150,617
400,65	250,000
400,87	147,059
401,08	132,857
401,30	60,870
401,51	182,456
401,72	288,462
401,94	146,835
402,15	185,000
402,37	131,933
402,58	461,111
402,80	177,143
403,01	238,028
403,22	809,091
403,44	211,594
403,65	160,714
403,87	132,857
404,08	323,077
404,30	171,765
404,51	-1400,000
404,72	112,857
404,94	130,392
405,15	100,000
405,37	189,873
405,58	165,882
405,79	143,902
406,01	234,146
406,22	115,517
406,44	182,979
406,65	194,737
406,86	47,917
407,08	139,241
407,29	133,010
407,51	143,902
407,72	107,407
407,93	142,391
408,15	66,667
408,36	148,837
408,58	123,711
408,79	82,500
409,00	115,625
409,22	133,333
409,43	120,253
409,64	62,112
409,86	54,088
410,07	72,308
410,29	79,851
410,50	75,887
410,71	60,714
410,93	52,229
411,14	100,775
411,35	73,214
411,57	46,053
411,78	67,188
412,00	52,229
412,21	63,226
412,42	56,085
412,64	41,202
412,85	34,536
413,06	21,951
413,28	49,099
413,49	36,967
413,70	55,072
413,92	52,964
414,13	26,971
414,34	27,586
414,56	28,322
414,77	55,696
414,98	21,141
415,20	24,221
415,41	41,926
415,63	38,060
415,84	32,778
416,05	28,022
416,27	32,041
416,48	23,315
416,69	35,398
416,91	28,649
417,12	24,064
417,33	27,789
417,55	24,547
417,76	36,756
417,97	24,066
418,19	13,121
418,40	26,170
418,61	24,074
418,83	23,818
419,04	24,763
419,25	27,259
419,46	29,023
419,68	33,175
419,89	28,614
420,10	30,068
420,32	39,726
420,53	45,120
420,74	45,362
420,96	48,500
421,17	46,882
421,38	50,816
421,60	52,097
421,81	60,820
422,02	57,576
422,23	54,366
422,45	64,857
422,66	67,755
422,87	77,855
423,09	74,821
423,30	80,956
423,51	90,079
423,73	93,623
423,94	90,826
424,15	94,082
424,36	96,554
424,58	91,688
424,79	92,317
425,00	95,480
425,22	101,024
425,43	97,105
425,64	94,086
425,85	95,647
426,07	99,326
426,28	100,309
426,49	96,053
426,71	93,266
426,92	93,496
427,13	95,824
427,34	96,320
427,56	96,485
427,77	88,936
427,98	95,792
428,19	92,546
428,41	95,581
428,62	96,600
428,83	95,458
429,04	93,727
429,26	94,227
429,47	95,913
429,68	94,185
429,89	94,066
430,11	94,984
430,32	93,132
430,53	94,514
430,74	94,435
430,96	92,194
431,17	94,103
431,38	94,052
431,59	93,182
431,81	93,225
432,02	92,436
432,23	91,927
432,44	92,256
432,66	92,474
432,87	96,790
433,08	93,414
433,29	91,753
433,51	90,691
433,72	92,703
433,93	92,483
434,14	92,989
434,35	94,522
434,57	92,609
434,78	95,294
434,99	93,714
435,20	93,721
435,42	93,820
435,63	92,775
435,84	94,885
436,05	92,494
436,26	93,902
436,48	93,630
436,69	94,535
436,90	93,711
437,11	92,872
437,32	93,115
437,54	95,052
437,75	93,918
437,96	94,366
438,17	92,851
438,38	94,717
438,60	94,451
438,81	93,942
439,02	95,478
439,23	94,118
439,44	92,087
439,66	94,307
439,87	94,824
440,08	95,448
440,29	92,763
440,50	94,607
440,72	94,984
440,93	94,689
441,14	94,175
441,35	95,824
441,56	94,368
441,77	95,194
441,99	94,137
442,20	95,901
442,41	93,375
442,62	95,483
442,83	95,546
443,04	94,639
443,26	94,503
443,47	94,533
443,68	92,735
443,89	93,673
444,10	93,803
444,31	93,922
444,53	93,566
444,74	93,953
444,95	93,622
445,16	93,489
445,37	91,892
445,58	92,043
445,80	91,668
446,01	90,388
446,22	92,913
446,43	92,481
446,64	91,735
446,85	91,900
447,06	92,550
447,28	91,740
447,49	91,875
447,70	91,468
447,91	92,195
448,12	91,563
448,33	92,336
448,54	91,607
448,76	90,332
448,97	90,469
449,18	90,130
449,39	88,707
449,60	89,281
449,81	89,314
450,02	89,501
450,23	90,077
450,45	89,576
450,66	90,366
450,87	90,452
451,08	89,634
451,29	91,430
451,50	89,666
451,71	89,150
451,92	89,662
452,13	86,613
452,35	85,692
452,56	84,415
452,77	81,423
452,98	79,351
453,19	78,065
453,40	75,716
453,61	72,393
453,82	70,193
454,03	67,223
454,25	65,505
454,46	60,201
454,67	56,200
454,88	53,668
455,09	49,934
455,30	46,022
455,51	41,421
455,72	38,184
455,93	33,442
456,14	28,795
456,35	25,178
456,56	20,640
456,78	16,623
456,99	13,150
457,20	10,047
457,41	6,772
457,62	5,486
457,83	3,685
458,04	2,556
458,25	1,881
458,46	1,484
458,67	1,290
458,88	1,209
459,09	0,809
459,30	0,872
459,51	0,795
459,73	0,648
459,94	1,012
460,15	0,850
460,36	0,582
460,57	0,654
460,78	0,558
460,99	0,603
461,20	0,612
461,41	0,715
461,62	0,576
461,83	0,646
462,04	0,643
462,25	0,824
462,46	0,574
462,67	0,396
462,88	0,573
463,09	0,556
463,30	0,478
463,51	0,663
463,72	0,649
463,93	0,564
464,15	0,570
464,36	0,411
464,57	0,455
464,78	0,620
464,99	0,621
465,20	0,506
465,41	0,462
465,62	0,599
465,83	0,496
466,04	0,669
466,25	0,478
466,46	0,449
466,67	0,340
466,88	0,482
467,09	0,669
467,30	0,436
467,51	0,710
467,72	0,523
467,93	0,621
468,14	0,484
468,35	0,454
468,56	0,380
468,77	0,502
468,98	0,599
469,19	0,401
469,40	0,546
469,61	0,454
469,82	0,416
470,03	0,543
470,24	0,678
470,45	0,566
470,66	0,564
470,87	0,521
471,08	0,621
471,29	0,435
471,50	0,496
471,71	0,538
471,92	0,535
472,13	0,538
472,34	0,516
472,55	0,586
472,76	0,495
472,97	0,496
473,18	0,467
473,39	0,639
473,60	0,663
473,81	0,362
474,01	0,608
474,22	0,450
474,43	0,844
474,64	0,644
474,85	0,309
475,06	0,501
475,27	0,510
475,48	0,520
475,69	0,491
475,90	0,593
476,11	0,711
476,32	0,503
476,53	0,579
476,74	0,874
476,95	0,698
477,16	0,632
477,37	0,584
477,58	0,640
477,79	0,826
478,00	0,716
478,21	0,444
478,41	0,805
478,62	0,472
478,83	0,714
479,04	0,888
479,25	0,602
479,46	0,636
479,67	0,904
479,88	0,747
480,09	0,790
480,30	0,899
480,51	0,846
480,72	0,623
480,93	0,973
481,14	0,705
481,34	0,704
481,55	0,558
481,76	0,563
481,97	0,726
482,18	0,783
482,39	0,704
482,60	0,730
482,81	0,693
483,02	0,585
483,23	0,746
483,44	0,628
483,65	0,651
483,85	0,744
484,06	0,764
484,27	0,609
484,48	0,852
484,69	0,780
484,90	0,792
485,11	0,609
485,32	0,843
485,53	0,756
485,73	0,851
485,94	0,656
486,15	0,802
486,36	0,619
486,57	0,932
486,78	0,986
486,99	0,926
487,20	0,800
487,41	0,873
487,61	0,914
487,82	0,847
488,03	0,950
488,24	1,074
488,45	1,105
488,66	1,078
488,87	1,165
489,08	1,165
489,28	1,332
489,49	1,491
489,70	1,878
489,91	2,315
490,12	2,777
490,33	3,811
490,54	5,166
490,74	6,661
490,95	8,542
491,16	10,843
491,37	13,520
491,58	16,219
491,79	19,118
492,00	23,280
492,20	27,153
492,41	31,062
492,62	35,702
492,83	40,274
493,04	44,017
493,25	48,449
493,45	51,457
493,66	53,710
493,87	56,891
494,08	58,362
494,29	60,707
494,50	63,088
494,70	65,278
494,91	68,317
495,12	71,116
495,33	74,521
495,54	77,566
495,75	80,598
495,95	83,347
496,16	85,946
496,37	87,933
496,58	89,101
496,79	89,566
496,99	90,332
497,20	89,914
497,41	89,709
497,62	89,932
497,83	89,859
498,04	87,978
498,24	88,368
498,45	89,030
498,66	88,971
498,87	90,209
499,08	90,426
499,28	91,304
499,49	91,784
499,70	92,307
499,91	93,140
500,12	93,180
500,32	93,259
500,53	93,102
500,74	92,863
500,95	93,232
501,15	93,180
501,36	92,659
501,57	92,406
501,78	91,922
501,99	92,491
502,19	91,649
502,40	91,486
502,61	91,843
502,82	93,082
503,02	92,781
503,23	93,675
503,44	94,373
503,65	94,072
503,86	94,911
504,06	94,977
504,27	95,767
504,48	96,808
504,69	96,447
504,89	96,381
505,10	95,370
505,31	95,972
505,52	95,936
505,72	95,856
505,93	95,649
506,14	95,412
506,35	95,431
506,55	95,062
506,76	94,501
506,97	95,333
507,18	95,278
507,38	95,179
507,59	94,352
507,80	94,594
508,01	94,223
508,21	94,004
508,42	95,031
508,63	95,100
508,84	94,732
509,04	96,730
509,25	96,214
509,46	96,704
509,67	96,263
509,87	97,133
510,08	97,885
510,29	97,962
510,49	98,074
510,70	97,795
510,91	96,677
511,12	97,965
511,32	98,502
511,53	96,395
511,74	96,520
511,94	97,342
512,15	96,823
512,36	96,949
512,57	95,686
512,77	96,710
512,98	95,978
513,19	96,051
513,39	94,755
513,60	94,077
513,81	94,919
514,01	94,429
514,22	93,782
514,43	93,774
514,64	93,355
514,84	93,538
515,05	95,115
515,26	93,604
515,46	94,633
515,67	94,689
515,88	94,473
516,08	95,031
516,29	94,664
516,50	94,472
516,70	94,058
516,91	94,484
517,12	93,082
517,32	93,264
517,53	93,306
517,74	93,045
517,95	92,284
518,15	92,261
518,36	93,586
518,57	92,566
518,77	93,645
518,98	93,472
519,19	93,175
519,39	92,602
519,60	92,838
519,80	93,808
520,01	93,411
520,22	93,186
520,42	94,252
520,63	94,376
520,84	94,637
521,04	95,300
521,25	94,661
521,46	94,060
521,66	95,139
521,87	94,778
522,08	95,207
522,28	94,257
522,49	94,173
522,70	94,221
522,90	94,194
523,11	94,022
523,31	94,114
523,52	92,827
523,73	93,358
523,93	92,173
524,14	91,843
524,35	91,711
524,55	90,853
524,76	90,784
524,97	91,828
525,17	92,782
525,38	91,385
525,58	92,238
525,79	92,520
526,00	93,481
526,20	93,879
526,41	95,553
526,61	97,212
526,82	96,332
527,03	97,183
527,23	97,402
527,44	97,030
527,64	98,005
527,85	97,541
528,06	97,461
528,26	97,041
528,47	97,064
528,68	96,718
528,88	95,944
529,09	95,810
529,29	95,711
529,50	95,265
529,70	95,564
529,91	93,971
530,12	92,917
530,32	91,302
530,53	91,731
530,73	90,469
530,94	90,665
531,15	89,185
531,35	87,679
531,56	88,770
531,76	85,789
531,97	85,760
532,17	83,568
532,38	80,906
532,59	80,690
532,79	78,353
533,00	76,702
533,20	74,656
533,41	73,813
533,61	71,702
533,82	70,385
534,03	68,190
534,23	69,573
534,44	68,514
534,64	67,540
534,85	66,237
535,05	65,227
535,26	63,962
535,46	62,303
535,67	60,698
535,88	57,664
536,08	54,950
536,29	51,751
536,49	48,198
536,70	43,123
536,90	39,678
537,11	35,375
537,31	30,699
537,52	26,513
537,72	23,073
537,93	19,146
538,13	15,217
538,34	11,775
538,55	9,020
538,75	6,353
538,96	4,744
539,16	3,421
539,37	2,668
539,57	1,832
539,78	1,574
539,98	1,306
540,19	1,077
540,39	0,940
540,60	0,882
540,80	0,802
541,01	0,771
541,21	0,814
541,42	0,807
541,62	0,669
541,83	0,778
542,03	0,824
542,24	0,527
542,44	0,614
542,65	0,565
542,85	0,814
543,06	0,756
543,26	0,635
543,47	0,725
543,67	0,783
543,88	0,863
544,08	0,573
544,29	0,719
544,49	0,558
544,70	0,742
544,90	0,713
545,11	0,446
545,31	0,664
545,52	0,651
545,72	0,833
545,93	0,412
546,13	0,776
546,34	0,484
546,54	0,537
546,75	0,615
546,95	0,597
547,15	0,608
547,36	0,547
547,56	0,564
547,77	0,633
547,97	0,560
548,18	0,555
548,38	0,549
548,59	0,602
548,79	0,517
549,00	0,512
549,20	0,737
549,41	0,506
549,61	0,684
549,81	0,561
550,02	0,729
550,22	0,618
550,43	0,516
550,63	0,670
550,84	0,531
551,04	0,747
551,25	0,634
551,45	0,615
551,65	0,558
551,86	0,544
552,06	0,642
552,27	0,509
552,47	0,799
552,68	0,737
552,88	0,463
553,08	0,517
553,29	0,569
553,49	0,500
553,70	0,727
553,90	0,433
554,11	0,531
554,31	0,661
554,51	0,628
554,72	0,619
554,92	0,702
555,13	0,755
555,33	0,808
555,53	0,757
555,74	0,636
555,94	0,574
556,15	0,703
556,35	0,484
556,56	0,830
556,76	0,820
556,96	0,646
557,17	0,695
557,37	0,815
557,58	0,694
557,78	0,551
557,98	0,544
558,19	0,683
558,39	0,747
558,59	0,703
558,80	0,747
559,00	0,604
559,21	0,541
559,41	0,688
559,61	0,623
559,82	0,564
560,02	0,669
560,23	0,739
560,43	0,578
560,63	0,569
560,84	0,663
561,04	0,510
561,24	0,580
561,45	0,541
561,65	0,690
561,85	0,863
562,06	0,702
562,26	0,511
562,47	0,681
562,67	0,434
562,87	0,707
563,08	0,562
563,28	0,789
563,48	0,711
563,69	0,769
563,89	0,768
564,09	0,930
564,30	0,808
564,50	0,821
564,70	0,766
564,91	1,069
565,11	0,710
565,31	0,984
565,52	1,003
565,72	1,025
565,92	1,215
566,13	1,146
566,33	1,295
566,53	1,598
566,74	1,829
566,94	2,353
567,14	3,046
567,35	3,791
567,55	5,084
567,75	6,773
567,96	8,651
568,16	11,316
568,36	14,248
568,57	17,958
568,77	21,734
568,97	26,705
569,18	32,906
569,38	38,335
569,58	43,332
569,79	49,327
569,99	55,091
570,19	59,992
570,39	64,729
570,60	67,783
570,80	71,877
571,00	75,388
571,21	76,170
571,41	78,190
571,61	79,092
571,82	80,057
572,02	79,928
572,22	81,352
572,42	81,050
572,63	81,566
572,83	81,880
573,03	81,983
573,24	82,902
573,44	82,609
573,64	82,206
573,84	83,373
574,05	83,227
574,25	84,546
574,45	84,284
574,66	85,021
574,86	86,386
575,06	87,278
575,26	87,666
575,47	89,209
575,67	89,414
575,87	91,838
576,07	91,950
576,28	92,858
576,48	93,942
576,68	93,650
576,88	93,675
577,09	94,201
577,29	93,608
577,49	94,757
577,69	93,761
577,90	93,442
578,10	92,331
578,30	92,393
578,50	93,142
578,71	91,910
578,91	92,652
579,11	91,820
579,31	92,373
579,52	93,426
579,72	91,863
579,92	92,269
580,12	93,926
580,33	95,398
580,53	95,087
580,73	96,199
580,93	95,541
581,13	96,807
581,34	97,230
581,54	96,443
581,74	98,010
581,94	98,177
582,15	98,548
582,35	98,593
582,55	97,255
582,75	98,169
582,95	97,637
583,16	98,663
583,36	97,789
583,56	97,973
583,76	96,869
583,96	96,564
584,17	97,447
584,37	98,157
584,57	97,519
584,77	96,545
584,97	96,630
585,18	96,999
585,38	96,659
585,58	96,601
585,78	95,986
585,98	95,928
586,19	95,619
586,39	95,395
586,59	96,108
586,79	96,115
586,99	96,109
587,20	95,141
587,40	96,062
587,60	95,832
587,80	96,762
588,00	95,238
588,20	95,257
588,41	96,414
588,61	95,684
588,81	96,223
589,01	97,050
589,21	95,514
589,41	95,149
589,62	96,547
589,82	96,517
590,02	95,414
590,22	95,967
590,42	96,666
590,62	96,551
590,83	95,449
591,03	96,720
591,23	96,453
591,43	96,536
591,63	95,156
591,83	96,586
592,03	95,125
592,24	96,440
592,44	96,369
592,64	96,172
592,84	97,411
593,04	96,384
593,24	96,205
593,44	97,134
593,65	97,094
593,85	97,301
594,05	96,908
594,25	95,907
594,45	96,390
594,65	95,898
594,85	96,374
595,06	96,172
595,26	96,826
595,46	95,904
595,66	96,190
595,86	95,799
596,06	95,202
596,26	95,268
596,46	94,901
596,66	95,319
596,87	94,564
597,07	95,022
597,27	94,934
597,47	94,812
597,67	94,169
597,87	92,938
598,07	91,864
598,27	92,930
598,47	92,647
598,67	92,910
598,88	93,917
599,08	92,135
599,28	92,921
599,48	92,220
599,68	91,248
599,88	92,330
600,08	91,876
600,28	91,331
600,48	91,601
600,68	90,527
600,88	90,257
601,09	89,866
601,29	87,980
601,49	88,731
601,69	87,229
601,89	86,943
602,09	86,415
602,29	84,661
602,49	83,779
602,69	83,530
602,89	82,129
603,09	81,373
603,29	80,983
603,49	80,129
603,69	79,281
603,90	78,762
604,10	79,195
604,30	77,753
604,50	77,029
604,70	77,054
604,90	76,387
605,10	76,159
605,30	75,921
605,50	74,351
605,70	74,194
605,90	73,653
606,10	71,644
606,30	69,628
606,50	68,022
606,70	66,674
606,90	63,998
607,10	61,077
607,30	59,683
607,50	55,303
607,70	53,215
607,90	49,646
608,10	45,956
608,30	42,748
608,50	40,146
608,70	36,535
608,90	33,535
609,11	30,892
609,31	27,901
609,51	24,252
609,71	22,031
609,91	18,933
610,11	15,968
610,31	13,068
610,51	10,424
610,71	8,110
610,91	6,325
611,11	4,855
611,31	3,573
611,51	2,872
611,71	2,138
611,91	1,828
612,11	1,429
612,31	1,360
612,51	0,809
612,71	1,042
612,91	0,828
613,11	0,698
613,31	0,771
613,51	0,525
613,71	0,669
613,91	0,659
614,11	0,530
614,31	0,591
614,50	0,732
614,70	0,602
614,90	0,455
615,10	0,653
615,30	0,550
615,50	0,387
615,70	0,363
615,90	0,668
616,10	0,442
616,30	0,629
616,50	0,459
616,70	0,569
616,90	0,452
617,10	0,515
617,30	0,417
617,50	0,580
617,70	0,669
617,90	0,565
618,10	0,411
618,30	0,572
618,50	0,474
618,70	0,579
618,90	0,444
619,10	0,472
619,30	0,637
619,49	0,467
619,69	0,548
619,89	0,367
620,09	0,587
620,29	0,545
620,49	0,707
620,69	0,484
620,89	0,504
621,09	0,488
621,29	0,483
621,49	0,564
621,69	0,494
621,89	0,621
622,09	0,363
622,29	0,402
622,48	0,500
622,68	0,277
622,88	0,302
623,08	0,359
623,28	0,439
623,48	0,334
623,68	0,484
623,88	0,504
624,08	0,489
624,28	0,286
624,48	0,539
624,67	0,522
624,87	0,426
625,07	0,441
625,27	0,329
625,47	0,548
625,67	0,574
625,87	0,404
626,07	0,456
626,27	0,299
626,47	0,318
626,66	0,428
626,86	0,549
627,06	0,404
627,26	0,534
627,46	0,269
627,66	0,326
627,86	0,357
628,06	0,293
628,25	0,295
628,45	0,522
628,65	0,328
628,85	0,439
629,05	0,477
629,25	0,465
629,45	0,403
629,65	0,302
629,84	0,338
630,04	0,370
630,24	0,618
630,44	0,352
630,64	0,493
630,84	0,526
631,04	0,522
631,23	0,245
631,43	0,448
631,63	0,331
631,83	0,466
632,03	0,560
632,23	0,530
632,42	0,470
632,62	0,446
632,82	0,316
633,02	0,413
633,22	0,453
633,42	0,370
633,62	0,415
633,81	0,436
634,01	0,457
634,21	0,532
634,41	0,658
634,61	0,628
634,80	0,491
635,00	0,265
635,20	0,372
635,40	0,764
635,60	0,451
635,80	0,411
635,99	0,445
636,19	0,552
636,39	0,647
636,59	0,914
636,79	0,733
636,98	0,644
637,18	0,381
637,38	0,545
637,58	0,728
637,78	0,605
637,97	0,654
638,17	0,806
638,37	0,790
638,57	0,785
638,77	0,370
638,96	0,712
639,16	0,801
639,36	0,581
639,56	0,542
639,76	0,652
639,95	0,912
640,15	0,444
640,35	0,758
640,55	0,417
640,75	0,484
640,94	0,632
641,14	0,828
641,34	0,791
641,54	0,557
641,73	0,731
641,93	0,806
642,13	0,565
642,33	0,850
642,53	0,813
642,72	0,916
642,92	0,739
643,12	0,487
643,32	1,103
643,51	0,997
643,71	1,054
643,91	0,822
644,11	1,605
644,30	1,526
644,50	1,484
644,70	1,877
644,90	2,063
645,09	3,199
645,29	3,498
645,49	4,743
645,69	6,145
645,88	7,379
646,08	8,919
646,28	10,714
646,48	13,714
646,67	15,756
646,87	19,022
647,07	22,206
647,26	26,231
647,46	30,196
647,66	34,458
647,86	37,910
648,05	42,154
648,25	46,255
648,45	50,569
648,65	53,700
648,84	56,755
649,04	60,406
649,24	62,727
649,43	65,572
649,63	68,365
649,83	68,470
650,03	72,071
650,22	73,326
650,42	74,167
650,62	74,912
650,81	76,993
651,01	76,086
651,21	77,186
651,40	78,912
651,60	77,750
651,80	80,823
652,00	79,585
652,19	80,922
652,39	83,661
652,59	81,220
652,78	83,363
652,98	84,051
653,18	85,390
653,37	86,432
653,57	85,133
653,77	86,163
653,96	86,977
654,16	87,535
654,36	89,872
654,55	90,048
654,75	89,830
654,95	91,911
655,14	92,875
655,34	94,849
655,54	94,398
655,73	94,736
655,93	95,681
656,13	95,179
656,32	95,062
656,52	96,165
656,72	95,826
656,91	96,311
657,11	95,043
657,31	94,739
657,50	97,250
657,70	96,233
657,90	96,651
658,09	96,116
658,29	97,664
658,49	96,788
658,68	95,022
658,88	96,792
659,07	96,672
659,27	96,453
659,47	96,751
659,66	94,812
659,86	96,286
660,06	97,243
660,25	96,189
660,45	97,182
660,64	97,646
660,84	95,797
661,04	96,449
661,23	97,307
661,43	97,566
661,63	96,002
661,82	95,416
662,02	98,014
662,21	96,231
662,41	96,900
662,61	96,379
662,80	97,338
663,00	96,226
663,19	95,910
663,39	97,672
663,59	96,778
663,78	97,383
663,98	96,974
664,17	97,563
664,37	97,734
664,57	96,803
664,76	97,636
664,96	95,739
665,15	95,730
665,35	96,811
665,55	95,947
665,74	95,804
665,94	96,637
666,13	93,886
666,33	95,064
666,53	95,936
666,72	94,276
666,92	94,129
667,11	95,208
667,31	94,546
667,50	95,496
667,70	94,436
667,90	94,394
668,09	93,776
668,29	94,084
668,48	95,001
668,68	93,080
668,87	93,067
669,07	93,886
669,26	93,206
669,46	91,983
669,66	92,331
669,85	92,010
670,05	92,124
670,24	91,023
670,44	91,825
670,63	90,652
670,83	91,752
671,02	90,356
671,22	89,438
671,42	89,288
671,61	89,145
671,81	88,855
672,00	88,810
672,20	89,819
672,39	88,752
672,59	88,148
672,78	86,945
672,98	86,054
673,17	86,318
673,37	86,583
673,56	85,514
673,76	83,862
673,95	83,355
674,15	82,367
674,34	82,010
674,54	79,895
674,73	77,958
674,93	78,153
675,13	75,961
675,32	74,037
675,52	72,241
675,71	71,088
675,91	70,305
676,10	69,026
676,30	66,568
676,49	66,707
676,69	64,596
676,88	62,620
677,08	61,093
677,27	60,293
677,47	57,959
677,66	56,336
677,86	54,547
678,05	52,187
678,24	50,857
678,44	49,320
678,63	47,465
678,83	47,819
679,02	46,505
679,22	46,013
679,41	43,763
679,61	43,205
679,80	43,485
680,00	42,740
680,19	42,030
680,39	42,495
680,58	41,046
680,78	39,755
680,97	39,060
681,17	37,536
681,36	36,187
681,56	33,457
681,75	31,577
681,94	29,484
682,14	27,622
682,33	24,972
682,53	23,444
682,72	21,618
682,92	19,865
683,11	18,632
683,31	17,313
683,50	16,805
683,69	15,900
683,89	14,951
684,08	14,056
684,28	13,965
684,47	13,295
684,67	12,093
684,86	10,646
685,06	10,355
685,25	9,217
685,44	8,013
685,64	6,912
685,83	6,040
686,03	4,770
686,22	3,885
686,42	3,136
686,61	2,732
686,80	2,174
687,00	1,764
687,19	1,363
687,39	0,956
687,58	0,865
687,77	0,664
687,97	0,586
688,16	0,553
688,36	0,247
688,55	0,494
688,74	0,553
688,94	0,325
689,13	0,645
689,33	0,516
689,52	0,577
689,71	0,523
689,91	0,481
690,10	0,342
690,30	0,335
690,49	0,514
690,68	0,498
690,88	0,657
691,07	0,209
691,27	0,371
691,46	0,267
691,65	0,395
691,85	0,459
692,04	0,351
692,23	0,360
692,43	0,375
692,62	0,376
692,82	0,324
693,01	0,385
693,20	0,581
693,40	0,303
693,59	0,257
693,78	0,451
693,98	0,270
694,17	0,338
694,36	0,458
694,56	0,352
694,75	0,419
694,94	0,291
695,14	0,440
695,33	0,274
695,53	0,400
695,72	0,326
695,91	0,363
696,11	0,431
696,30	0,420
696,49	0,316
696,69	0,533
696,88	0,342
697,07	0,388
697,27	0,344
697,46	0,369
697,65	0,243
697,85	0,287
698,04	0,584
698,23	0,340
698,43	0,591
698,62	0,435
698,81	0,223
699,01	0,546
699,20	0,480
699,39	0,576
699,58	0,526
699,78	0,612
699,97	0,632
700,16	0,664
700,36	0,448
700,55	0,974
700,74	0,338
700,94	0,805
701,13	0,816
701,32	1,243
701,52	0,786
701,71	0,584
701,90	1,106
702,09	1,001
702,29	1,174
702,48	1,391
702,67	0,880
702,87	0,619
703,06	1,274
703,25	1,000
703,44	0,929
703,64	1,179
703,83	1,738
704,02	0,477
704,22	1,268
704,41	1,268
704,60	2,104
704,79	0,896
704,99	1,355
705,18	1,857
705,37	1,379
705,56	2,421
705,76	2,133
705,95	1,330
706,14	1,062
706,33	2,625
706,53	1,514
706,72	1,271
706,91	1,534
707,11	2,608
707,30	2,091
707,49	2,520
707,68	1,636
707,88	1,151
708,07	1,493
708,26	1,809
708,45	1,359
708,64	2,420
708,84	2,808
709,03	1,556
709,22	1,444
709,41	2,426
709,61	2,782
709,80	3,372
709,99	3,446
710,18	2,517
710,38	2,489
710,57	1,270
710,76	2,427
710,95	2,260
711,14	3,028
711,34	1,720
711,53	2,526
711,72	4,234
711,91	2,564
712,11	4,331
712,30	5,545
712,49	3,063
712,68	3,591
712,87	4,786
713,07	5,263
713,26	3,176
713,45	3,026
713,64	4,232
713,83	3,353
714,03	6,373
714,22	2,812
714,41	4,597
714,60	6,524
714,79	2,065
714,99	3,002
715,18	3,797
715,37	4,203
715,56	4,849
715,75	2,563
715,94	3,497
716,14	3,209
716,33	4,041
716,52	3,831
716,71	4,190
716,90	5,042
717,10	5,230
717,29	4,971
717,48	5,913
717,67	0,427
717,86	3,461
718,05	1,679
718,24	7,909
718,44	5,894
718,63	3,383
718,82	8,438
719,01	5,490
719,20	4,924
719,39	3,533
719,59	2,431
719,78	3,586
719,97	8,089
720,16	5,072
720,35	4,424
720,54	5,924
720,73	5,147
720,93	6,667
721,12	4,207
721,31	4,670
721,50	6,083
721,69	4,779
721,88	5,732
722,07	5,046
722,27	5,122
722,46	7,667
722,65	5,724
722,84	6,122
723,03	5,308
723,22	6,677
723,41	3,623
723,60	8,271
723,79	4,262
723,99	4,296
724,18	8,147
724,37	6,579
724,56	4,817
724,75	7,754
724,94	9,416
725,13	10,381
725,32	5,323
725,51	10,193
725,71	7,481
725,90	5,540
726,09	8,535
726,28	11,929
726,47	3,711
726,66	9,488
726,85	7,275
727,04	7,788
727,23	9,046
727,42	10,146
727,61	-1,164
727,81	8,551
728,00	4,569
728,19	5,378
728,38	4,428
728,57	5,031
728,76	15,762
728,95	10,379
729,14	4,304
729,33	11,306
729,52	9,899
729,71	7,577
729,90	5,855
730,09	5,257
730,28	13,164
730,48	6,265
730,67	10,278
730,86	5,597
731,05	8,645
731,24	9,302
731,43	6,918
731,62	12,406
731,81	11,817
732,00	8,132
732,19	4,853
732,38	6,675
732,57	3,406
732,76	11,786
732,95	5,067
733,14	1,951
733,33	3,709
733,52	14,649
733,71	7,407
733,90	16,195
734,09	11,985
734,28	12,966
734,47	6,316
734,66	13,161
734,85	11,631
735,04	12,943
735,23	18,386
735,42	13,112
735,61	13,733
735,81	12,828
736,00	14,608
736,19	13,462
736,38	9,481
736,57	15,181
736,76	3,101
736,95	8,182
737,14	11,094
737,33	14,286
737,52	12,066
737,71	8,013
737,90	13,918
738,09	14,877
738,28	10,207
738,47	7,026
738,66	11,250
738,85	7,388
739,04	12,903
739,22	18,074
739,41	13,871
739,60	6,689
739,79	11,473
739,98	4,719
740,17	13,776
740,36	16,250
740,55	12,522
740,74	13,043
740,93	13,211
741,12	14,522
741,31	16,360
741,50	13,371
741,69	4,259
741,88	0,000
742,07	18,773
742,26	1,498
742,45	16,403
742,64	19,604
742,83	5,532
743,02	11,171
743,21	20,523
743,40	13,436
743,59	12,295
743,78	13,755
743,97	18,233
744,16	14,856
744,34	14,567
744,53	6,148
744,72	21,622
744,91	6,737
745,10	19,450
745,29	21,277
745,48	14,090
745,67	19,145
745,86	7,981
746,05	25,114
746,24	13,072
746,43	26,714
746,62	11,060
746,81	19,178
747,00	13,779
747,18	27,253
747,37	17,484
747,56	5,843
747,75	17,068
747,94	15,098
748,13	20,091
748,32	23,718
748,51	20,993
748,70	18,465
748,89	20,290
749,08	7,429
749,26	20,286
749,45	24,000
749,64	10,670
749,83	7,634
750,02	25,967
750,21	7,625
750,40	18,750
750,59	29,009
750,78	21,893
750,96	12,570
751,15	11,475
751,34	19,372
751,53	25,369
751,72	26,146
751,91	19,178
752,10	4,321
752,29	12,994
752,47	21,348
752,66	21,690
752,85	23,529
753,04	23,028
753,23	7,285
753,42	30,699
753,61	6,536
753,80	20,596
753,98	17,544
754,17	23,006
754,36	22,316
754,55	15,361
754,74	17,341
754,93	22,478
755,12	16,800
755,30	19,391
755,49	30,581
755,68	29,395
755,87	12,913
756,06	24,860
756,25	32,381
756,43	30,000
756,62	25,519
756,81	14,851
757,00	27,826
757,19	33,219
757,38	9,148
757,56	30,968
757,75	29,085
757,94	25,868
758,13	16,883
758,32	22,348
758,51	35,294
758,69	8,400
758,88	30,931
759,07	27,240
759,26	20,000
759,45	27,074
759,63	34,944
759,82	29,293
760,01	10,702
760,20	29,572
760,39	30,224
760,57	26,860
760,76	20,721
760,95	14,352
761,14	35,510
761,33	25,625
761,51	23,656
761,70	38,621
761,89	28,279
762,08	25,581
762,27	24,908
762,45	36,965
762,64	18,315
762,83	29,204
763,02	34,884
763,21	21,121
763,39	40,816
763,58	36,604
763,77	22,780
763,96	40,964
764,14	40,833
764,33	35,531
764,52	40,773
764,71	24,664
764,89	8,824
765,08	37,069
765,27	30,855
765,46	41,848
765,65	22,271
765,83	31,169
766,02	36,170
766,21	26,519
766,40	17,143
766,58	34,553
766,77	30,348
766,96	43,182
767,15	37,681
767,33	22,222
767,52	75,000
767,71	47,391
767,90	33,146
768,08	40,467
768,27	30,000
768,46	29,297
768,64	56,995
768,83	28,646
769,02	62,500
769,21	14,847
769,39	60,465
769,58	37,572
769,77	43,295
769,96	40,838
770,14	25,850
770,33	37,850
770,52	23,810
770,70	42,667
770,89	54,362
771,08	33,898
771,27	58,763
771,45	38,596
771,64	47,917
771,83	53,738
772,01	7,831
772,20	45,226
772,39	36,000
772,57	29,457
772,76	17,037
772,95	55,319
773,14	47,849
773,32	40,000
773,51	51,244
773,70	45,625
773,88	62,295
774,07	39,791
774,26	36,170
774,44	23,780
774,63	64,975
774,82	53,659
775,00	22,000
775,19	26,400
775,38	54,913
775,56	36,979
775,75	53,614
775,94	30,380
776,12	41,436
776,31	38,824
776,50	25,568
776,68	43,684
776,87	55,682
777,06	26,207
777,24	46,111
777,43	34,615
777,62	52,206
777,80	46,622
777,99	57,143
778,18	55,941
778,36	78,400
778,55	53,719
778,74	71,528
778,92	89,349
779,11	46,667
779,29	47,170
779,48	54,422
779,67	33,333
779,85	57,724
780,04	39,459
780,23	46,763
780,41	31,250
780,60	37,895
780,79	68,362
780,97	59,868
781,16	37,576
781,34	74,227
781,53	95,726
781,72	33,577
781,90	50,781
782,09	46,452
782,28	66,423
782,46	73,333
782,65	32,143
782,83	33,708
783,02	50,000
783,21	74,667
783,39	53,043
783,58	68,047
783,76	53,631
783,95	42,424
784,14	48,344
784,32	73,154
784,51	79,310
784,69	61,017
784,88	67,568
785,06	27,731
785,25	54,140
785,44	54,676
785,62	74,286
785,81	88,732
785,99	54,676
786,18	54,730
786,37	49,630
786,55	39,450
786,74	52,632
786,92	68,750
787,11	41,667
787,29	25,373
787,48	52,667
787,67	75,904
787,85	97,414
788,04	58,416
788,22	50,000
788,41	101,176
788,59	70,642
788,78	47,273
788,96	85,849
789,15	86,316
789,34	56,364
789,52	45,133
789,71	58,140
789,89	53,191
790,08	78,082
790,26	22,857
790,45	62,121
790,63	60,185
790,82	62,424
791,00	50,694
791,19	59,140
791,38	59,722
791,56	67,544
791,75	84,404
791,93	79,310
792,12	72,189
792,30	80,800
792,49	32,773
792,67	91,791
792,86	62,016
793,04	62,617
793,23	35,000
793,41	75,949
793,60	101,010
793,78	83,333
793,97	35,897
794,15	59,091
794,34	46,154
794,52	45,455
794,71	100,000
794,89	61,111
795,08	71,845
795,26	56,667
795,45	117,910
795,63	84,091
795,82	74,766
796,00	57,798
796,19	82,500
796,37	58,394
796,56	101,075
796,74	96,460
796,93	92,135
797,11	83,544
797,30	76,667
797,48	84,828
797,67	80,000
797,85	80,612
798,04	89,583
798,22	61,905
798,41	85,294
798,59	111,579
798,77	92,308
798,96	68,817
799,14	86,207
799,33	74,809
799,51	66,923
799,70	67,785
799,88	62,121
800,07	63,816
800,25	64,138
800,44	48,485
800,62	91,765
800,80	39,130
800,99	157,143
801,17	60,345
801,36	67,586
801,54	72,917
801,73	73,737
801,91	29,508
802,10	76,190
802,28	88,785
802,46	75,309
802,65	64,368
802,83	120,225
803,02	82,105
803,20	100,781
803,39	32,759
803,57	71,084
803,75	54,730
803,94	64,706
804,12	38,333
804,31	90,265
804,49	36,538
804,67	69,600
804,86	51,786
805,04	61,486
805,23	72,414
805,41	86,066
805,59	40,984
805,78	40,152
805,96	59,615
806,15	94,531
806,33	105,882
806,51	60,177
806,70	96,667
806,88	27,642
807,07	45,238
807,25	20,126
807,43	57,616
807,62	69,919
807,80	106,452
807,99	46,032
808,17	83,688
808,35	71,930
808,54	96,774
808,72	36,000
808,90	100,000
809,09	69,167
809,27	103,604
809,46	80,357
809,64	25,490
809,82	49,425
810,01	63,636
810,19	75,000
810,37	44,615
810,56	89,024
810,74	53,642
810,92	106,818
811,11	31,373
811,29	68,085
811,48	56,566
811,66	68,992
811,84	101,835
812,03	40,909
812,21	55,128
812,39	87,288
812,58	59,804
812,76	53,271
812,94	88,000
813,13	82,540
813,31	31,667
813,49	73,913
813,68	38,261
813,86	73,469
814,04	133,981
814,23	127,273
814,41	48,529
814,59	41,243
814,78	72,794
814,96	77,477
815,14	85,556
815,33	77,536
815,51	62,963
815,69	39,506
815,87	67,826
816,06	62,500
816,24	87,417
816,42	43,590
816,61	68,644
816,79	72,289
816,97	39,640
817,16	32,903
817,34	95,862
817,52	57,241
817,70	77,778
817,89	44,628
818,07	43,966
818,25	46,847
818,44	69,186
818,62	64,655
818,80	76,224
818,98	88,571
819,17	50,769
819,35	63,529
819,53	79,208
819,72	41,279
819,90	38,922
820,08	20,130
820,26	84,211
820,45	67,470
820,63	47,396
820,81	53,020
820,99	52,632
821,18	42,222
821,36	64,762
821,54	46,512
821,73	64,324
821,91	32,447
822,09	60,588
822,27	53,299
822,46	35,000
822,64	46,358
822,82	52,683
823,00	37,838
823,19	43,939
823,37	40,000
823,55	62,353
823,73	53,333
823,91	19,337
824,10	58,101
824,28	29,630
824,46	54,651
824,64	45,098
824,83	43,089
825,01	41,304
825,19	48,571
825,37	43,229
825,56	45,000
825,74	59,048
825,92	50,562
826,10	57,764
826,28	55,705
826,47	49,593
826,65	45,270
826,83	58,602
827,01	14,394
827,19	55,696
827,38	51,813
827,56	59,135
827,74	42,276
827,92	54,146
828,10	36,413
828,29	49,048
828,47	51,316
828,65	34,595
828,83	52,020
829,01	28,000
829,20	13,291
829,38	24,896
829,56	50,607
829,74	73,485
829,92	40,206
830,10	39,640
830,29	47,027
830,47	38,542
830,65	25,000
830,83	34,286
831,01	21,667
831,20	44,554
831,38	35,122
831,56	41,296
831,74	64,571
831,92	30,114
832,10	35,000
832,29	33,175
832,47	20,354
832,65	41,277
832,83	21,395
833,01	18,972
833,19	36,199
833,37	43,704
833,56	44,131
833,74	34,818
833,92	23,894
834,10	34,518
834,28	23,462
834,46	42,907
834,64	41,406
834,83	17,747
835,01	29,961
835,19	20,379
835,37	30,279
835,55	40,433
835,73	27,206
835,91	23,552
836,09	12,448
836,28	39,695
836,46	37,895
836,64	40,164
836,82	21,642
837,00	28,571
837,18	35,178
837,36	27,273
837,54	17,803
837,72	15,936
837,91	32,932
838,09	22,800
838,27	35,165
838,45	40,777
838,63	13,220
838,81	39,145
838,99	30,314
839,17	31,068
839,35	25,185
839,53	32,215
839,72	8,051
839,90	18,845
840,08	27,564
840,26	37,855
840,44	22,222
840,62	27,609
840,80	27,778
840,98	28,701
841,16	6,762
841,34	35,652
841,52	29,073
841,70	19,529
841,89	28,710
842,07	22,973
842,25	17,532
842,43	21,290
842,61	36,193
842,79	19,512
842,97	16,463
843,15	27,221
843,33	29,216
843,51	33,413
843,69	33,889
843,87	20,485
844,05	22,642
844,23	15,946
844,41	12,563
844,59	21,307
844,77	13,545
844,95	17,718
845,13	21,311
845,31	10,335
845,50	25,515
845,68	19,948
845,86	26,887
846,04	20,494
846,22	27,446
846,40	9,449
846,58	10,188
846,76	16,708
846,94	17,548
847,12	16,114
847,30	19,355
847,48	17,506
847,66	15,122
847,84	16,751
848,02	18,711
848,20	28,256
848,38	15,336
848,56	26,667
848,74	21,694
848,92	12,735
849,10	18,750
849,28	16,558
849,46	8,879
849,64	13,333
849,82	11,779
850,00	11,910
850,18	15,012
850,36	17,982
850,54	20,852
850,72	23,285
850,90	22,628
851,08	7,202
851,26	17,409
851,44	19,478
851,62	16,998
851,80	13,121
851,98	22,016
852,16	24,486
852,34	23,719
852,52	21,074
852,70	13,052
852,87	17,714
853,05	16,032
853,23	17,059
853,41	5,930
853,59	13,208
853,77	19,841
853,95	10,805
854,13	7,379
854,31	19,372
854,49	5,411
854,67	18,421
854,85	26,087
855,03	7,663
855,21	17,936
855,39	16,443
855,57	17,572
855,75	15,683
855,93	15,371
856,11	25,997
856,28	10,417
856,46	14,052
856,64	17,638
856,82	6,108
857,00	10,900
857,18	12,050
857,36	8,403
857,54	18,243
857,72	13,523
857,90	10,379
858,08	11,111
858,26	7,187
858,44	13,665
858,61	10,745
858,79	13,643
858,97	13,037
859,15	11,720
859,33	13,190
859,51	15,016
859,69	9,226
859,87	13,031
860,05	16,876
860,23	6,061
860,40	10,138
860,58	8,477
860,76	12,006
860,94	6,718
861,12	10,765
861,30	13,269
861,48	13,881
861,66	13,967
861,84	15,782
862,01	14,171
862,19	16,667
862,37	8,309
862,55	10,167
862,73	10,054
862,91	10,526
863,09	10,663
863,27	8,496
863,44	6,093
863,62	4,208
863,80	3,956
863,98	8,557
864,16	11,714
864,34	6,623
864,52	9,112
864,69	12,771
864,87	11,204
865,05	8,108
865,23	9,541
865,41	11,681
865,59	12,979
865,76	7,235
865,94	8,545
866,12	12,231
866,30	7,117
866,48	12,968
866,66	11,388
866,83	7,440
867,01	9,581
867,19	9,966
867,37	7,683
867,55	12,733
867,73	10,934
867,90	7,850
868,08	6,972
868,26	6,499
868,44	9,979
868,62	9,091
868,79	7,035
868,97	7,356
869,15	10,510
869,33	2,205
869,51	9,130
869,69	5,631
869,86	8,205
870,04	8,783
870,22	5,931
870,40	7,273
870,57	9,800
870,75	9,866
870,93	12,695
871,11	6,714
871,29	9,553
871,46	7,049
871,64	6,231
871,82	8,976
872,00	10,188
872,18	11,985
872,35	9,804
872,53	10,113
872,71	3,754
872,89	7,970
873,06	5,443
873,24	11,949
873,42	9,140
873,60	1,377
873,77	5,071
873,95	7,680
874,13	8,855
874,31	5,348
874,49	8,021
874,66	5,155
874,84	1,776
875,02	6,835
875,20	6,529
875,37	7,411
875,55	2,625
875,73	3,279
875,91	5,703
876,08	5,573
876,26	5,745
876,44	4,233
876,61	6,947
876,79	8,100
876,97	3,142
877,15	8,092
877,32	4,488
877,50	5,195
877,68	8,190
877,86	4,151
878,03	5,142
878,21	4,130
878,39	5,333
878,56	5,310
878,74	3,109
878,92	5,415
879,10	5,030
879,27	5,895
879,45	5,224
879,63	2,610
879,80	3,739
879,98	2,705
880,16	5,846
880,34	0,135
880,51	5,581
880,69	8,196
880,87	3,711
881,04	3,868
881,22	6,324
881,40	3,626
881,57	4,212
881,75	5,230
881,93	3,920
882,10	5,509
882,28	5,289
882,46	4,468
882,63	5,590
882,81	3,736
882,99	4,424
883,16	4,097
883,34	5,360
883,52	3,574
883,69	1,891
883,87	5,963
884,05	2,955
884,22	3,614
884,40	7,812
884,58	4,302
884,75	4,367
884,93	4,555
885,11	3,373
885,28	2,846
885,46	3,179
885,64	2,775
885,81	5,008
885,99	3,505
886,17	3,381
886,34	5,191
886,52	3,521
886,70	1,821
886,87	3,988
887,05	2,795
887,22	2,922
887,40	2,484
887,58	4,925
887,75	3,490
887,93	4,124
888,11	1,236
888,28	2,703
888,46	3,757
888,63	5,391
888,81	6,137
888,99	0,948
889,16	2,520
889,34	5,602
889,51	1,667
889,69	2,727
889,87	2,021
890,04	1,480
890,22	1,715
890,39	1,813
890,57	5,375
890,75	4,703
890,92	2,675
891,10	4,697
891,27	2,730
891,45	3,125
891,63	4,250
891,80	2,656
891,98	3,819
892,15	1,227
892,33	2,306
892,51	3,037
892,68	1,443
892,86	3,773
893,03	2,781
893,21	3,182
893,38	2,177
893,56	2,497
893,74	3,823
893,91	4,375
894,09	4,491
894,26	3,644
894,44	2,302
894,61	4,332
894,79	2,119
894,96	3,725
895,14	1,344
895,32	2,263
895,49	2,481
895,67	4,243
895,84	4,162
896,02	2,429
896,19	2,519
896,37	3,591
896,54	4,234
896,72	2,027
896,89	3,320
897,07	2,929
897,25	3,303
897,42	3,059
897,60	4,508
897,77	4,584
897,95	4,697
898,12	1,628
898,30	2,285
898,47	3,306
898,65	3,265
898,82	2,025
899,00	2,477
899,17	2,886
899,35	2,487
899,52	2,183
899,70	1,833
899,87	2,581
900,05	4,355
900,22	2,234
900,40	1,021
900,57	2,825
900,75	2,008
900,92	2,706
901,10	2,610
901,27	1,317
901,45	3,436
901,62	2,992
901,80	3,809
901,97	2,169
902,15	3,573
902,32	3,846
902,50	2,123
902,67	2,111
902,85	2,733
903,02	3,612
903,20	2,944
903,37	3,639
903,54	3,531
903,72	1,053
903,89	2,769
904,07	2,902
904,24	0,877
904,42	2,916
904,59	1,344
904,77	2,369
904,94	2,921
905,12	0,824
905,29	2,075
905,47	3,112
905,64	3,265
905,81	2,176
905,99	2,700
906,16	1,910
906,34	3,079
906,51	2,240
906,69	1,552
906,86	2,193
907,03	2,719
907,21	1,772
907,38	1,106
907,56	2,410
907,73	2,429
907,91	3,082
908,08	2,685
908,25	1,646
908,43	1,735
908,60	1,652
908,78	3,783
908,95	1,858
909,13	1,790
909,30	1,429
909,47	1,968
909,65	2,750
909,82	2,734
910,00	0,933
910,17	1,865
910,34	2,107
910,52	1,621
910,69	2,945
910,87	2,574
911,04	2,852
911,21	2,606
911,39	1,701
911,56	1,877
911,73	2,165
911,91	2,304
912,08	2,451
912,26	0,809
912,43	1,259
912,60	3,015
912,78	1,804
912,95	2,072
913,13	2,436
913,30	2,128
913,47	2,845
913,65	1,093
913,82	2,151
913,99	1,970
914,17	1,787
914,34	3,040
914,51	2,751
914,69	1,835
914,86	3,006
915,03	1,391
915,21	2,582
915,38	1,553
915,56	1,538
915,73	1,577
915,90	3,201
916,08	1,736
916,25	1,678
916,42	2,322
916,60	2,116
916,77	1,627
916,94	0,879
917,12	2,499
917,29	2,153
917,46	1,322
917,64	1,167
917,81	2,497
917,98	2,189
918,16	2,518
918,33	2,657
918,50	1,902
918,67	1,120
918,85	1,918
919,02	1,234
919,19	3,001
919,37	0,779
919,54	2,218
919,71	2,484
919,89	1,305
920,06	1,228
920,23	1,180
920,41	1,725
920,58	1,765
920,75	1,350
920,92	1,795
921,10	1,434
921,27	0,206
921,44	2,017
921,62	0,979
921,79	2,602
921,96	1,903
922,13	1,188
922,31	1,188
922,48	1,627
922,65	1,036
922,82	1,586
923,00	2,941
923,17	0,406
923,34	1,443
923,52	1,740
923,69	0,868
923,86	2,085
924,03	1,693
924,21	0,994
924,38	2,138
924,55	2,645
924,72	2,235
924,90	0,695
925,07	1,469
925,24	1,346
925,41	1,704
925,59	1,208
925,76	1,231
925,93	1,163
926,10	2,203
926,28	1,469
926,45	1,470
926,62	1,925
926,79	1,740
926,96	2,378
927,14	1,679
927,31	1,267
927,48	1,846
927,65	1,204
927,83	1,147
928,00	0,567
928,17	1,377
928,34	1,191
928,51	1,976
928,69	1,932
928,86	1,750
929,03	2,129
929,20	1,413
929,37	1,634
929,55	1,348
929,72	2,343
929,89	1,629
930,06	0,898
930,23	0,689
930,41	2,182
930,58	1,585
930,75	1,966
930,92	0,999
931,09	1,586
931,27	1,304
931,44	0,906
931,61	1,409
931,78	1,882
931,95	1,302
932,12	1,456
932,30	1,346
932,47	1,387
932,64	2,404
932,81	1,772
932,98	1,484
933,16	1,755
933,33	0,943
933,50	1,609
933,67	1,953
933,84	1,176
934,01	1,156
934,18	1,471
934,36	1,095
934,53	0,828
934,70	1,469
934,87	1,251
935,04	2,352
935,21	1,458
935,38	1,341
935,56	0,756
935,73	1,218
935,90	0,608
936,07	0,959
936,24	1,703
936,41	1,291
936,58	0,772
936,76	2,193
936,93	0,939
937,10	1,234
937,27	1,081
937,44	1,497
937,61	2,034
937,78	1,490
937,95	1,491
938,13	1,328
938,30	1,247
938,47	1,352
938,64	1,595
938,81	1,464
938,98	0,977
939,15	1,339
939,32	1,292
939,49	1,324
939,66	2,127
939,84	0,957
940,01	0,940
940,18	1,663
940,35	1,245
940,52	0,289
940,69	2,563
940,86	0,581
941,03	1,512
941,20	1,556
941,37	1,945
941,54	0,040
941,71	0,376
941,89	1,825
942,06	1,330
942,23	1,500
942,40	1,193
942,57	2,046
942,74	1,569
942,91	1,137
943,08	1,859
943,25	1,224
943,42	1,240
943,59	1,324
943,76	2,379
943,93	1,722
944,10	0,826
944,27	1,137
944,44	1,914
944,61	1,165
944,79	1,141
944,96	2,136
945,13	1,525
945,30	1,507
945,47	1,502
945,64	2,399
945,81	2,576
945,98	2,024
946,15	2,046
946,32	1,141
946,49	1,321
946,66	1,232
946,83	2,431
947,00	1,312
947,17	0,520
947,34	1,955
947,51	1,902
947,68	2,418
947,85	1,557
948,02	1,987
948,19	3,782
948,36	2,691
948,53	3,255
948,70	2,963
948,87	2,140
949,04	1,856
949,21	1,494
949,38	2,427
949,55	0,757
949,72	2,921
949,89	2,594
950,06	0,786
950,23	3,179
950,40	3,202
950,57	1,186
950,74	4,352
950,91	1,513
951,08	2,621
951,25	2,147
951,42	3,155
951,59	0,831
951,76	2,524
951,93	2,941
952,10	2,145
952,27	2,790
952,44	0,717
952,61	2,538
952,77	1,917
952,94	4,170
953,11	4,683
953,28	2,606
953,45	1,976
953,62	3,566
953,79	3,300
953,96	4,224
954,13	3,363
954,30	4,642
954,47	3,910
954,64	3,087
954,81	5,056
954,98	2,902
955,15	4,025
955,32	4,646
955,49	3,455
955,65	5,797
955,82	4,919
955,99	5,214
956,16	6,833
956,33	3,208
956,50	2,933
956,67	4,972
956,84	3,852
957,01	1,404
957,18	3,938
957,35	6,211
957,52	5,201
957,68	7,750
957,85	6,894
958,02	4,823
958,19	6,005
958,36	9,309
958,53	6,083
958,70	3,982
958,87	3,914
959,04	10,401
959,21	6,566
959,37	9,524
959,54	5,843
959,71	7,594
959,88	6,147
960,05	8,389
960,22	2,130
960,39	8,933
960,56	6,329
960,72	7,528
960,89	13,688
961,06	10,955
961,23	5,968
961,40	8,802
961,57	5,563
961,74	3,639
961,90	10,781
962,07	8,524
962,24	15,610
962,41	6,198
962,58	14,286
962,75	9,558
962,92	16,262
963,08	12,000
963,25	9,730
963,42	8,696
963,59	17,149
963,76	20,225
963,93	16,934
964,10	17,773
964,26	10,307
964,43	21,447
964,60	6,218
964,77	17,108
964,94	13,636
965,10	19,345
965,27	21,671
965,44	17,403
965,61	26,171
965,78	16,294
965,95	30,240
966,11	17,337
966,28	17,844
966,45	27,414
966,62	24,923
966,79	26,122
966,95	27,164
967,12	29,022
967,29	38,194
967,46	24,621
967,63	32,075
967,79	34,685
967,96	22,078
968,13	32,000
968,30	33,468
968,47	34,708
968,63	45,946
968,80	39,450
968,97	42,308
969,14	29,070
969,31	33,889
969,47	28,235
969,64	40,404
969,81	33,679
969,98	47,802
970,14	49,693
970,31	74,843
970,48	40,833
970,65	36,686
970,81	35,616
970,98	50,365
971,15	47,959
971,32	48,438
971,48	68,707
971,65	35,385
971,82	39,216
971,99	41,379
972,15	69,014
972,32	80,180
972,49	69,231
972,66	90,000
972,82	68,605
972,99	69,919
973,16	70,115
973,33	43,750
973,49	50,526
973,66	95,699
973,83	84,466
974,00	81,395
974,16	74,510
974,33	78,947
974,50	41,053
974,67	112,632
974,83	95,238
975,00	84,211
975,17	72,527
975,33	71,910
975,50	86,567
975,67	75,510
975,84	182,090
976,00	84,270
976,17	95,082
976,34	50,000
976,50	58,427
976,67	96,117
976,84	2000,000
977,00	151,020
977,17	157,778
977,34	141,758
977,50	88,060
977,67	214,286
977,84	179,032
978,01	136,170
978,17	-66,667
978,34	144,444
978,51	194,118
978,67	159,211
978,84	121,094
979,01	224,324
979,17	66,667
979,34	87,671
979,51	191,837
979,67	146,914
979,84	220,408
980,01	117,778
980,17	138,028
980,34	222,222
980,51	68,116
980,67	91,765
980,84	290,000
981,01	425,000
981,17	388,000
981,34	677,778
981,50	126,471
981,67	201,695
981,84	2500,000
982,00	323,333
982,17	126,190
982,34	132,222
982,50	326,667
982,67	104,167
982,84	1040,000
983,00	766,667
983,17	104,478
983,33	146,552
983,50	1300,000
983,67	-93,103
983,83	227,273
984,00	-800,000
984,17	583,333
984,33	-4400,000
984,50	248,571
984,66	223,913
984,83	125,974
985,00	-241,667
985,16	331,034
985,33	558,824
985,49	516,667
985,66	276,471
985,83	182,609
985,99	256,410
986,16	-1250,000
986,32	264,286
986,49	7100,000
986,66	251,515
986,82	808,333
986,99	194,340
987,15	-368,421
987,32	-128,571
987,49	94,000
987,65	4800,000
987,82	145,833
987,98	234,694
988,15	356,667
988,31	600,000
988,48	-1266,667
988,65	188,095
988,81	286,111
988,98	243,902
989,14	309,524
989,31	295,238
989,47	202,941
989,64	-584,615
989,80	606,250
989,97	159,459
990,14	-191,304
990,30	-277,273
990,47	320,408
990,63	197,222
990,80	212,000
990,96	-295,000
991,13	278,125
991,29	348,276
991,46	0,000
991,62	-600,000
991,79	841,667
991,95	7100,000
992,12	-370,000
992,29	-581,250
992,45	128,235
992,62	174,419
992,78	288,636
992,95	-226,667
993,11	360,714
993,28	680,000
993,44	-750,000
993,61	-543,750
993,77	-2075,000
993,94	-2400,000
994,10	-25,333
994,27	852,632
994,43	216,279
994,60	0,000
994,76	1725,000
994,93	315,000
995,09	-394,118
995,26	788,889
995,42	278,431
995,59	490,476
995,75	461,538
995,92	1200,000
996,08	241,667
996,25	-1137,500
996,41	-3750,000
996,58	733,333
996,74	227,273
996,91	296,552
997,07	0,000
997,23	9900,000
997,40	-8500,000
997,56	-576,923
997,73	-1112,500
997,89	284,211
998,06	846,154
998,22	-327,778
998,39	272,000
998,55	1033,333
998,72	-950,000
998,88	-223,333
999,05	-84,615
999,21	300,000
999,37	-280,000
999,54	-658,333
999,70	-206,667
999,87	568,750
1000,03	284,615
1000,20	252,083
1000,36	0,000
1000,52	279,167
1000,69	-390,476
1000,85	-500,000
1001,02	-229,167
1001,18	1050,000
1001,35	653,846
1001,51	235,294
1001,67	-769,231
1001,84	-1400,000
1002,00	267,568
1002,17	872,727
1002,33	-1800,000
1002,50	266,667
1002,66	-500,000
1002,82	212,500
1002,99	728,571
1003,15	-771,429
1003,32	-1018,182
1003,48	267,857
1003,64	720,000
1003,81	325,926
1003,97	-2500,000
1004,14	954,545
1004,30	270,000
1004,46	-433,333
1004,63	542,857
1004,79	333,333
1004,95	533,333
1005,12	1400,000
1005,28	451,724
1005,45	270,270
1005,61	296,552
1005,77	-170,833
1005,94	-261,905
1006,10	-4950,000
1006,26	838,462
1006,43	-292,308
1006,59	-700,000
1006,76	585,714
1006,92	900,000
1007,08	8300,000
1007,25	-103,704
1007,41	506,897
1007,57	3150,000
1007,74	880,000
1007,90	-327,586
1008,06	128,261
1008,23	823,529
1008,39	-406,250
1008,55	-165,385
1008,72	-1114,286
1008,88	0,000
1009,04	217,073
1009,21	-210,526
1009,37	-450,000
1009,53	169,048
1009,70	1733,333
1009,86	-550,000
1010,02	2033,333
1010,19	527,273
1010,35	200,000
1010,51	-1750,000
1010,68	-1412,500
1010,84	-156,818
1011,00	625,000
1011,17	-286,364
1011,33	0,000
1011,49	-613,333
1011,66	700,000
1011,82	470,968
1011,98	464,286
1012,14	-290,909
1012,31	271,795
1012,47	0,000
1012,63	1816,667
1012,80	714,286
1012,96	-368,750
1013,12	-833,333
1013,29	166,667
1013,45	265,854
1013,61	3400,000
1013,77	-87,500
1013,94	860,000
1014,10	149,153
1014,26	-1850,000
1014,43	-144,000
1014,59	430,000
1014,75	-350,000
1014,91	-186,667
1015,08	325,000
1015,24	8100,000
1015,40	364,706
1015,56	-8100,000
1015,73	157,143
1015,89	609,091
1016,05	1975,000
1016,21	-775,000
1016,38	536,842
1016,54	646,154
1016,70	-2600,000
1016,86	346,875
1017,03	625,000
1017,19	-507,692
1017,35	-747,059
1017,51	-720,000
1017,68	-160,000
1017,84	-1742,857
1018,00	259,524
1018,16	296,154
1018,33	-614,286
1018,49	-883,333
1018,65	-81,081
1018,81	223,077
1018,97	-1100,000
1019,14	-833,333
1019,30	-202,564
1019,46	0,000
1019,62	-376,471
1019,79	-3266,667
1019,95	1041,667
1020,11	5450,000
1020,27	-370,370
1020,43	-246,154
1020,60	1250,000
1020,76	461,111
1020,92	513,333
1021,08	595,000
1021,24	1050,000
1021,41	922,222
1021,57	1287,500
1021,73	792,308
1021,89	1440,000
1022,05	-257,143
1022,21	475,000
1022,38	-300,000
1022,54	-1616,667
1022,70	220,000
1022,86	-1050,000
1023,02	416,667
1023,19	1820,000
1023,35	3000,000
1023,51	375,000
1023,67	400,000
1023,83	-562,500
1023,99	194,737
1024,16	-219,231
1024,32	-1277,778
1024,48	-600,000
1024,64	373,810
1024,80	413,043
1024,96	366,667
1025,12	314,286
1025,29	242,857
1025,45	197,368
1025,61	694,444
1025,77	-1840,000
1025,93	-5500,000
1026,09	-1357,143
1026,26	675,000
1026,42	556,250
1026,58	300,000
1026,74	816,667
1026,90	348,000
1027,06	217,857
1027,22	757,143
1027,38	188,462
1027,55	1466,667
1027,71	1250,000
1027,87	-244,000
1028,03	690,000
1028,19	156,250
1028,35	450,000
1028,51	1400,000
1028,67	566,667
1028,83	-1900,000
1029,00	-80,952
1029,16	950,000
1029,32	-203,571
1029,48	186,667
1029,64	86,111
1029,80	3350,000
1029,96	600,000
1030,12	356,522
1030,28	-1700,000
1030,44	-669,231
1030,61	-187,500
1030,77	-102,857
1030,93	-580,000
1031,09	1700,000
1031,25	-5500,000
1031,41	-180,000
1031,57	211,538
1031,73	643,750
1031,89	-809,091
1032,05	-162,963
1032,21	427,273
1032,37	-124,074
1032,53	-707,143
1032,69	-195,833
1032,86	229,630
1033,02	-195,000
1033,18	-637,500
1033,34	226,316
1033,50	-3550,000
1033,66	-141,463
1033,82	460,870
1033,98	-329,630
1034,14	155,128
1034,30	270,968
1034,46	-3266,667
1034,62	535,000
1034,78	-452,381
1034,94	286,842
1035,10	-461,538
1035,26	-111,628
1035,42	-203,448
1035,58	-116,667
1035,74	633,333
1035,90	-576,923
1036,06	-666,667
1036,22	950,000
1036,38	-558,824
1036,54	-341,667
1036,70	-84,848
1036,86	6100,000
1037,02	261,111
1037,18	436,842
1037,34	133,333
1037,50	-80,488
1037,66	-147,059
1037,82	2660,000
1037,98	-448,148
1038,14	-244,000
1038,30	-850,000
1038,46	-571,429
1038,62	395,652
1038,78	-800,000
1038,94	-200,000
1039,10	390,909
1039,26	325,926
1039,42	-550,000
1039,58	1200,000
1039,74	-410,526
1039,90	203,125
1040,06	-234,615
>>>>>End Processed Spectral Data<<<<<
