SpectraSuite Data File
++++++++++++++++++++++++++++++++++++
Date: Wed Feb 01 15:37:47 EET 2017
User: optolab
Dark Spectrum Present: Yes
Reference Spectrum Present: Yes
Number of Sampled Component Spectra: 1
Spectrometers: USB4C02475
Integration Time (usec): 100000 (USB4C02475)
Spectra Averaged: 1 (USB4C02475)
Boxcar Smoothing: 0 (USB4C02475)
Correct for Electrical Dark: No (USB4C02475)
Strobe/Lamp Enabled: No (USB4C02475)
Correct for Detector Non-linearity: No (USB4C02475)
Correct for Stray Light: No (USB4C02475)
Number of Pixels in Processed Spectrum: 3648
>>>>>Begin Processed Spectral Data<<<<<
344,91	2150,000
345,13	2150,000
345,35	2150,000
345,57	0,000
345,79	426,316
346,00	-1377,778
346,22	-1500,000
346,44	305,882
346,66	-366,667
346,87	-7100,000
347,09	309,091
347,31	-218,182
347,53	-220,513
347,74	258,462
347,96	303,030
348,18	678,947
348,40	412,903
348,61	870,588
348,83	321,429
349,05	190,196
349,27	-5150,000
349,48	607,692
349,70	-196,552
349,92	319,355
350,14	237,736
350,35	250,000
350,57	2175,000
350,79	436,000
351,01	-552,381
351,22	187,037
351,44	600,000
351,66	-268,000
351,87	-295,238
352,09	184,615
352,31	195,082
352,53	179,688
352,74	352,778
352,96	167,532
353,18	463,158
353,40	408,000
353,61	260,000
353,83	320,588
354,05	327,273
354,26	1666,667
354,48	170,000
354,70	351,515
354,92	-355,172
355,13	156,566
355,35	125,000
355,57	529,167
355,78	161,446
356,00	-3100,000
356,22	361,538
356,44	3900,000
356,65	218,182
356,87	261,538
357,09	529,167
357,30	186,667
357,52	206,897
357,74	695,000
357,95	187,179
358,17	149,180
358,39	190,323
358,60	305,405
358,82	441,667
359,04	348,148
359,26	351,429
359,47	5600,000
359,69	187,500
359,91	372,727
360,12	495,238
360,34	400,000
360,56	-0,000
360,77	1400,000
360,99	500,000
361,21	226,000
361,42	4050,000
361,64	206,122
361,86	206,154
362,07	-474,194
362,29	205,333
362,51	-523,529
362,72	552,000
362,94	329,412
363,16	172,093
363,37	-557,143
363,59	269,231
363,81	365,909
364,02	594,444
364,24	450,000
364,46	1966,667
364,67	718,182
364,89	1557,143
365,11	160,000
365,32	406,897
365,54	247,222
365,76	236,735
365,97	311,765
366,19	203,448
366,41	645,455
366,62	225,926
366,84	230,233
367,05	230,612
367,27	1033,333
367,49	-484,615
367,70	352,941
367,92	183,607
368,14	279,167
368,35	-7700,000
368,57	352,000
368,79	279,310
369,00	308,696
369,22	-1262,500
369,43	183,529
369,65	219,355
369,87	413,514
370,08	140,964
370,30	225,000
370,51	200,000
370,73	200,000
370,95	251,613
371,16	159,524
371,38	286,667
371,60	1437,500
371,81	164,062
372,03	600,000
372,24	220,000
372,46	173,585
372,68	104,286
372,89	266,667
373,11	369,231
373,32	261,364
373,54	-569,231
373,76	684,615
373,97	780,000
374,19	454,545
374,40	237,500
374,62	-2333,333
374,84	3675,000
375,05	414,286
375,27	340,000
375,48	-6800,000
375,70	198,667
375,92	194,643
376,13	356,250
376,35	180,822
376,56	993,750
376,78	216,667
376,99	407,143
377,21	220,833
377,43	184,848
377,64	142,029
377,86	279,310
378,07	266,667
378,29	-1125,000
378,51	412,903
378,72	270,833
378,94	-877,778
379,15	333,333
379,37	541,176
379,58	203,077
379,80	286,667
380,01	643,750
380,23	203,922
380,45	1680,000
380,66	2333,333
380,88	186,364
381,09	205,714
381,31	154,444
381,52	237,255
381,74	1066,667
381,95	459,091
382,17	396,154
382,39	580,952
382,60	138,776
382,82	282,051
383,03	317,308
383,25	345,161
383,46	263,636
383,68	474,074
383,89	500,000
384,11	370,968
384,32	-2800,000
384,54	405,556
384,76	-2866,667
384,97	293,939
385,19	368,966
385,40	205,882
385,62	235,088
385,83	197,619
386,05	174,510
386,26	210,000
386,48	170,115
386,69	243,750
386,91	460,000
387,12	186,441
387,34	220,690
387,55	227,419
387,77	362,500
387,98	426,923
388,20	136,957
388,41	329,412
388,63	6100,000
388,84	111,475
389,06	311,905
389,27	352,632
389,49	272,222
389,70	197,959
389,92	306,667
390,13	171,429
390,35	284,314
390,56	211,111
390,78	418,519
390,99	730,000
391,21	573,684
391,42	204,444
391,64	231,707
391,85	213,793
392,07	161,364
392,28	176,000
392,50	318,182
392,71	-825,000
392,93	169,231
393,14	347,222
393,36	177,551
393,57	111,278
393,79	522,222
394,00	212,766
394,22	176,712
394,43	149,398
394,65	251,163
394,86	850,000
395,08	476,190
395,29	71,698
395,50	215,385
395,72	494,444
395,93	785,714
396,15	215,493
396,36	158,824
396,58	235,000
396,79	262,500
397,01	172,000
397,22	252,778
397,44	131,818
397,65	192,982
397,87	195,238
398,08	159,184
398,29	296,875
398,51	262,500
398,72	234,146
398,94	172,308
399,15	305,714
399,37	187,719
399,58	143,956
399,80	386,364
400,01	170,370
400,22	280,952
400,44	200,000
400,65	335,714
400,87	167,647
401,08	145,714
401,30	206,522
401,51	191,228
401,72	157,692
401,94	163,291
402,15	395,000
402,37	148,739
402,58	550,000
402,80	177,143
403,01	235,211
403,22	727,273
403,44	202,899
403,65	139,286
403,87	131,429
404,08	310,256
404,30	137,647
404,51	-1866,667
404,72	108,571
404,94	112,745
405,15	168,000
405,37	213,924
405,58	120,000
405,79	189,024
406,01	192,683
406,22	168,966
406,44	212,766
406,65	203,509
406,86	89,583
407,08	126,582
407,29	134,951
407,51	128,049
407,72	106,481
407,93	111,957
408,15	82,906
408,36	197,674
408,58	115,464
408,79	69,167
409,00	119,792
409,22	88,889
409,43	135,443
409,64	64,596
409,86	66,038
410,07	100,000
410,29	94,030
410,50	107,092
410,71	57,143
410,93	58,599
411,14	95,349
411,35	76,190
411,57	81,579
411,78	77,344
412,00	64,331
412,21	54,194
412,42	50,265
412,64	47,210
412,85	54,639
413,06	35,976
413,28	40,991
413,49	63,507
413,70	49,638
413,92	50,988
414,13	32,365
414,34	59,770
414,56	32,517
414,77	50,211
414,98	40,940
415,20	33,910
415,41	43,626
415,63	44,776
415,84	34,444
416,05	32,143
416,27	34,109
416,48	41,573
416,69	46,681
416,91	38,919
417,12	47,861
417,33	42,316
417,55	46,479
417,76	55,852
417,97	46,888
418,19	49,901
418,40	56,809
418,61	54,815
418,83	51,273
419,04	48,107
419,25	56,386
419,46	59,549
419,68	58,413
419,89	57,377
420,10	68,163
420,32	59,153
420,53	72,750
420,74	71,537
420,96	85,750
421,17	83,834
421,38	88,357
421,60	91,722
421,81	99,317
422,02	96,238
422,23	93,615
422,45	95,400
422,66	97,739
422,87	93,897
423,09	95,234
423,30	99,753
423,51	101,260
423,73	96,999
423,94	98,249
424,15	99,184
424,36	98,031
424,58	88,188
424,79	93,442
425,00	95,913
425,22	94,940
425,43	92,762
425,64	89,247
425,85	95,375
426,07	89,787
426,28	94,030
426,49	92,600
426,71	87,174
426,92	90,354
427,13	90,242
427,34	91,751
427,56	93,562
427,77	87,969
427,98	91,660
428,19	90,352
428,41	90,285
428,62	91,870
428,83	88,814
429,04	90,152
429,26	93,425
429,47	87,643
429,68	90,133
429,89	91,635
430,11	90,742
430,32	89,568
430,53	88,376
430,74	89,765
430,96	89,619
431,17	90,051
431,38	89,705
431,59	88,346
431,81	91,142
432,02	90,302
432,23	91,241
432,44	89,617
432,66	92,389
432,87	95,121
433,08	91,394
433,29	89,635
433,51	91,862
433,72	92,973
433,93	90,002
434,14	91,826
434,35	95,887
434,57	91,307
434,78	93,572
434,99	93,586
435,20	92,859
435,42	92,913
435,63	90,853
435,84	93,103
436,05	92,730
436,26	91,757
436,48	91,090
436,69	93,620
436,90	91,599
437,11	91,635
437,32	93,933
437,54	95,333
437,75	93,254
437,96	93,010
438,17	91,782
438,38	93,743
438,60	94,973
438,81	93,706
439,02	94,195
439,23	93,392
439,44	90,502
439,66	92,100
439,87	91,527
440,08	90,837
440,29	90,370
440,50	91,405
440,72	89,791
440,93	88,759
441,14	88,740
441,35	87,691
441,56	86,773
441,77	86,190
441,99	86,070
442,20	86,190
442,41	85,280
442,62	86,041
442,83	85,721
443,04	86,324
443,26	85,187
443,47	85,465
443,68	85,596
443,89	85,061
444,10	85,507
444,31	86,951
444,53	85,579
444,74	85,884
444,95	84,959
445,16	85,949
445,37	83,590
445,58	83,957
445,80	83,919
446,01	84,768
446,22	85,116
446,43	84,447
446,64	85,187
446,85	86,065
447,06	84,925
447,28	85,339
447,49	84,554
447,70	84,282
447,91	84,644
448,12	83,449
448,33	82,585
448,54	80,592
448,76	78,801
448,97	76,882
449,18	74,687
449,39	72,740
449,60	70,016
449,81	67,197
450,02	64,783
450,23	61,022
450,45	57,875
450,66	55,737
450,87	52,053
451,08	48,526
451,29	44,308
451,50	40,761
451,71	37,360
451,92	33,051
452,13	30,404
452,35	27,500
452,56	24,549
452,77	22,127
452,98	18,296
453,19	15,874
453,40	13,149
453,61	11,510
453,82	8,828
454,03	7,197
454,25	6,104
454,46	3,908
454,67	3,395
454,88	2,477
455,09	1,915
455,30	1,620
455,51	1,352
455,72	1,220
455,93	0,934
456,14	1,217
456,35	1,157
456,56	0,894
456,78	0,956
456,99	1,178
457,20	0,991
457,41	0,813
457,62	0,905
457,83	0,839
458,04	0,755
458,25	0,786
458,46	0,676
458,67	0,694
458,88	0,830
459,09	0,483
459,30	0,621
459,51	0,785
459,73	0,504
459,94	0,932
460,15	0,630
460,36	0,693
460,57	0,636
460,78	0,475
460,99	0,322
461,20	0,495
461,41	0,597
461,62	0,375
461,83	0,572
462,04	0,557
462,25	0,673
462,46	0,482
462,67	0,490
462,88	0,491
463,09	0,635
463,30	0,408
463,51	0,595
463,72	0,629
463,93	0,596
464,15	0,526
464,36	0,434
464,57	0,333
464,78	0,402
464,99	0,526
465,20	0,413
465,41	0,440
465,62	0,383
465,83	0,391
466,04	0,442
466,25	0,438
466,46	0,563
466,67	0,492
466,88	0,555
467,09	0,640
467,30	0,317
467,51	0,611
467,72	0,588
467,93	0,546
468,14	0,480
468,35	0,415
468,56	0,435
468,77	0,538
468,98	0,507
469,19	0,426
469,40	0,572
469,61	0,424
469,82	0,310
470,03	0,513
470,24	0,773
470,45	0,547
470,66	0,473
470,87	0,416
471,08	0,549
471,29	0,602
471,50	0,473
471,71	0,523
471,92	0,684
472,13	0,636
472,34	0,434
472,55	0,532
472,76	0,627
472,97	0,508
473,18	0,570
473,39	0,566
473,60	0,651
473,81	0,582
474,01	0,608
474,22	0,611
474,43	0,873
474,64	0,640
474,85	0,373
475,06	0,332
475,27	0,412
475,48	0,675
475,69	0,474
475,90	0,709
476,11	0,570
476,32	0,819
476,53	0,693
476,74	0,786
476,95	0,525
477,16	0,427
477,37	0,671
477,58	0,842
477,79	0,719
478,00	0,508
478,21	0,532
478,41	0,894
478,62	0,569
478,83	0,948
479,04	0,906
479,25	0,647
479,46	0,720
479,67	0,913
479,88	0,957
480,09	0,710
480,30	0,793
480,51	0,968
480,72	0,663
480,93	0,977
481,14	0,745
481,34	0,589
481,55	0,815
481,76	0,612
481,97	0,844
482,18	0,530
482,39	0,830
482,60	0,929
482,81	0,840
483,02	0,747
483,23	0,875
483,44	0,984
483,65	0,990
483,85	0,692
484,06	0,903
484,27	1,050
484,48	1,053
484,69	1,183
484,90	1,446
485,11	1,487
485,32	1,808
485,53	2,231
485,73	3,005
485,94	3,567
486,15	4,591
486,36	5,521
486,57	7,018
486,78	8,553
486,99	10,675
487,20	12,150
487,41	14,449
487,61	16,461
487,82	19,338
488,03	22,078
488,24	24,481
488,45	28,074
488,66	31,265
488,87	34,795
489,08	37,650
489,28	40,721
489,49	43,726
489,70	47,348
489,91	50,519
490,12	53,306
490,33	56,079
490,54	57,983
490,74	62,167
490,95	64,052
491,16	65,782
491,37	69,303
491,58	71,012
491,79	74,067
492,00	75,673
492,20	78,245
492,41	80,759
492,62	81,800
492,83	82,224
493,04	83,560
493,25	84,379
493,45	84,841
493,66	85,041
493,87	84,995
494,08	84,200
494,29	83,931
494,50	83,670
494,70	84,481
494,91	85,109
495,12	84,803
495,33	86,126
495,54	86,566
495,75	86,456
495,95	87,457
496,16	88,226
496,37	88,390
496,58	89,039
496,79	90,375
496,99	89,801
497,20	89,944
497,41	89,635
497,62	89,053
497,83	89,609
498,04	87,695
498,24	88,255
498,45	88,463
498,66	88,735
498,87	89,047
499,08	89,654
499,28	91,663
499,49	91,230
499,70	92,070
499,91	93,118
500,12	91,749
500,32	93,699
500,53	93,579
500,74	93,458
500,95	93,991
501,15	94,120
501,36	93,890
501,57	94,077
501,78	92,740
501,99	92,676
502,19	93,267
502,40	91,665
502,61	92,936
502,82	93,035
503,02	92,762
503,23	92,251
503,44	92,818
503,65	93,321
503,86	93,212
504,06	93,531
504,27	93,918
504,48	94,107
504,69	94,228
504,89	94,593
505,10	94,895
505,31	95,613
505,52	95,034
505,72	95,734
505,93	96,937
506,14	97,334
506,35	97,760
506,55	96,713
506,76	96,521
506,97	96,574
507,18	96,415
507,38	97,364
507,59	94,762
507,80	95,331
508,01	94,435
508,21	93,155
508,42	94,245
508,63	94,100
508,84	93,137
509,04	92,427
509,25	93,808
509,46	92,978
509,67	92,127
509,87	92,901
510,08	92,274
510,29	92,762
510,49	92,603
510,70	92,621
510,91	92,915
511,12	93,107
511,32	93,038
511,53	92,331
511,74	93,225
511,94	93,080
512,15	93,638
512,36	94,106
512,57	94,160
512,77	94,462
512,98	93,778
513,19	93,518
513,39	93,128
513,60	91,225
513,81	92,494
514,01	91,905
514,22	91,498
514,43	91,047
514,64	91,491
514,84	90,435
515,05	91,113
515,26	90,764
515,46	90,461
515,67	90,671
515,88	90,680
516,08	90,768
516,29	91,195
516,50	90,619
516,70	90,482
516,91	91,076
517,12	90,840
517,32	90,939
517,53	91,246
517,74	90,684
517,95	90,950
518,15	90,177
518,36	90,640
518,57	89,599
518,77	89,951
518,98	89,381
519,19	89,172
519,39	89,109
519,60	87,723
519,80	88,360
520,01	87,898
520,22	88,535
520,42	89,162
520,63	89,073
520,84	89,734
521,04	90,911
521,25	91,140
521,46	92,129
521,66	92,781
521,87	92,930
522,08	93,675
522,28	94,411
522,49	95,210
522,70	95,283
522,90	96,035
523,11	96,838
523,31	96,577
523,52	97,081
523,73	97,272
523,93	95,868
524,14	95,671
524,35	96,120
524,55	94,990
524,76	93,375
524,97	94,387
525,17	94,343
525,38	92,300
525,58	91,443
525,79	90,906
526,00	89,668
526,20	88,799
526,41	87,688
526,61	86,970
526,82	85,699
527,03	83,633
527,23	82,657
527,44	80,284
527,64	79,198
527,85	77,319
528,06	75,223
528,26	72,951
528,47	70,808
528,68	69,080
528,88	66,489
529,09	65,513
529,29	63,743
529,50	63,523
529,70	62,000
529,91	59,429
530,12	58,374
530,32	56,331
530,53	55,072
530,73	53,386
530,94	51,720
531,15	50,065
531,35	47,325
531,56	45,232
531,76	42,795
531,97	40,022
532,17	37,559
532,38	34,202
532,59	31,501
532,79	29,235
533,00	25,798
533,20	22,759
533,41	20,082
533,61	17,018
533,82	14,381
534,03	11,918
534,23	9,613
534,44	7,607
534,64	5,671
534,85	4,362
535,05	3,073
535,26	2,338
535,46	1,977
535,67	1,427
535,88	1,215
536,08	0,960
536,29	0,906
536,49	0,971
536,70	0,861
536,90	0,709
537,11	0,952
537,31	0,589
537,52	0,766
537,72	0,689
537,93	0,835
538,13	0,749
538,34	0,648
538,55	0,706
538,75	0,535
538,96	0,737
539,16	0,649
539,37	0,741
539,57	0,694
539,78	0,716
539,98	0,574
540,19	0,635
540,39	0,670
540,60	0,818
540,80	0,641
541,01	0,767
541,21	0,831
541,42	0,719
541,62	0,645
541,83	0,654
542,03	0,747
542,24	0,407
542,44	0,606
542,65	0,314
542,85	0,758
543,06	0,517
543,26	0,591
543,47	0,605
543,67	0,675
543,88	0,603
544,08	0,585
544,29	0,667
544,49	0,610
544,70	0,738
544,90	0,565
545,11	0,462
545,31	0,680
545,52	0,548
545,72	0,726
545,93	0,408
546,13	0,666
546,34	0,408
546,54	0,494
546,75	0,654
546,95	0,562
547,15	0,544
547,36	0,587
547,56	0,915
547,77	0,487
547,97	0,742
548,18	0,610
548,38	0,490
548,59	0,493
548,79	0,351
549,00	0,481
549,20	0,582
549,41	0,470
549,61	0,515
549,81	0,592
550,02	0,838
550,22	0,622
550,43	0,571
550,63	0,619
550,84	0,488
551,04	0,692
551,25	0,696
551,45	0,646
551,65	0,503
551,86	0,829
552,06	0,490
552,27	0,493
552,47	0,849
552,68	0,733
552,88	0,651
553,08	0,537
553,29	0,643
553,49	0,662
553,70	0,556
553,90	0,580
554,11	0,562
554,31	0,588
554,51	0,682
554,72	0,719
554,92	0,775
555,13	0,694
555,33	0,731
555,53	0,889
555,74	0,763
555,94	0,459
556,15	0,841
556,35	0,710
556,56	0,745
556,76	0,698
556,96	0,707
557,17	0,794
557,37	0,807
557,58	0,747
557,78	0,490
557,98	0,700
558,19	0,713
558,39	0,777
558,59	0,730
558,80	0,837
559,00	0,721
559,21	0,741
559,41	0,529
559,61	0,845
559,82	0,785
560,02	0,787
560,23	0,833
560,43	0,876
560,63	1,069
560,84	1,006
561,04	1,096
561,24	1,212
561,45	1,519
561,65	1,815
561,85	2,514
562,06	2,976
562,26	3,726
562,47	4,735
562,67	5,609
562,87	7,029
563,08	8,994
563,28	10,930
563,48	13,835
563,69	16,608
563,89	20,410
564,09	23,927
564,30	28,200
564,50	33,228
564,70	37,098
564,91	42,489
565,11	46,266
565,31	51,487
565,52	55,733
565,72	59,699
565,92	63,814
566,13	66,644
566,33	69,148
566,53	72,902
566,74	74,182
566,94	74,574
567,14	75,365
567,35	75,787
567,55	76,836
567,75	77,232
567,96	76,938
568,16	77,832
568,36	77,170
568,57	77,698
568,77	77,552
568,97	77,960
569,18	79,481
569,38	80,658
569,58	80,156
569,79	82,099
569,99	83,747
570,19	84,285
570,39	86,375
570,60	86,519
570,80	88,122
571,00	89,887
571,21	90,633
571,41	91,381
571,61	92,083
571,82	93,065
572,02	92,474
572,22	94,002
572,42	93,070
572,63	92,591
572,83	93,221
573,03	92,517
573,24	92,396
573,44	92,096
573,64	91,278
573,84	91,020
574,05	91,553
574,25	92,217
574,45	91,600
574,66	90,974
574,86	91,408
575,06	92,815
575,26	91,835
575,47	92,418
575,67	92,547
575,87	94,223
576,07	94,447
576,28	94,856
576,48	94,337
576,68	94,333
576,88	94,635
577,09	94,870
577,29	94,865
577,49	97,289
577,69	95,313
577,90	96,279
578,10	95,198
578,30	94,974
578,50	95,747
578,71	96,234
578,91	95,906
579,11	95,734
579,31	95,704
579,52	96,990
579,72	95,190
579,92	95,217
580,12	95,635
580,33	96,574
580,53	95,725
580,73	95,768
580,93	95,179
581,13	96,045
581,34	96,169
581,54	95,542
581,74	96,472
581,94	96,555
582,15	96,448
582,35	95,566
582,55	95,300
582,75	96,320
582,95	96,476
583,16	95,787
583,36	95,865
583,56	96,160
583,76	95,149
583,96	95,368
584,17	96,138
584,37	96,108
584,57	95,722
584,77	95,346
584,97	95,886
585,18	95,787
585,38	96,481
585,58	95,936
585,78	94,543
585,98	95,347
586,19	94,860
586,39	94,878
586,59	95,927
586,79	95,676
586,99	96,362
587,20	95,503
587,40	95,437
587,60	95,970
587,80	96,239
588,00	94,903
588,20	94,561
588,41	96,915
588,61	95,333
588,81	96,115
589,01	96,072
589,21	94,437
589,41	94,761
589,62	94,857
589,82	95,663
590,02	94,402
590,22	95,229
590,42	94,803
590,62	94,270
590,83	93,310
591,03	93,527
591,23	92,757
591,43	92,452
591,63	91,116
591,83	91,471
592,03	90,275
592,24	90,763
592,44	90,639
592,64	90,582
592,84	90,757
593,04	90,269
593,24	89,853
593,44	90,557
593,65	89,943
593,85	88,479
594,05	89,199
594,25	88,653
594,45	88,509
594,65	88,308
594,85	88,049
595,06	86,869
595,26	86,407
595,46	85,763
595,66	85,126
595,86	83,529
596,06	82,410
596,26	81,679
596,46	81,217
596,66	79,937
596,87	78,834
597,07	78,746
597,27	78,061
597,47	77,209
597,67	76,197
597,87	74,477
598,07	72,940
598,27	72,906
598,47	70,637
598,67	70,411
598,88	69,595
599,08	67,061
599,28	65,986
599,48	64,048
599,68	62,945
599,88	61,512
600,08	60,834
600,28	58,413
600,48	57,872
600,68	55,094
600,88	55,360
601,09	53,851
601,29	51,332
601,49	50,687
601,69	48,801
601,89	47,626
602,09	46,426
602,29	44,353
602,49	42,780
602,69	40,936
602,89	38,854
603,09	37,041
603,29	34,501
603,49	32,345
603,69	30,323
603,90	27,902
604,10	25,683
604,30	23,492
604,50	21,311
604,70	19,239
604,90	17,255
605,10	15,476
605,30	13,201
605,50	11,310
605,70	9,203
605,90	7,427
606,10	5,979
606,30	4,613
606,50	3,996
606,70	2,703
606,90	2,235
607,10	1,709
607,30	1,450
607,50	1,211
607,70	1,117
607,90	0,813
608,10	0,788
608,30	0,604
608,50	0,820
608,70	0,793
608,90	0,706
609,11	0,781
609,31	0,614
609,51	0,737
609,71	0,743
609,91	0,471
610,11	0,525
610,31	0,420
610,51	0,601
610,71	0,530
610,91	0,350
611,11	0,607
611,31	0,345
611,51	0,401
611,71	0,366
611,91	0,502
612,11	0,496
612,31	0,655
612,51	0,414
612,71	0,527
612,91	0,272
613,11	0,498
613,31	0,625
613,51	0,454
613,71	0,271
613,91	0,549
614,11	0,454
614,31	0,475
614,50	0,489
614,70	0,422
614,90	0,514
615,10	0,551
615,30	0,377
615,50	0,270
615,70	0,371
615,90	0,424
616,10	0,543
616,30	0,336
616,50	0,529
616,70	0,351
616,90	0,448
617,10	0,508
617,30	0,386
617,50	0,329
617,70	0,457
617,90	0,403
618,10	0,419
618,30	0,587
618,50	0,544
618,70	0,406
618,90	0,380
619,10	0,340
619,30	0,506
619,49	0,653
619,69	0,461
619,89	0,426
620,09	0,444
620,29	0,374
620,49	0,442
620,69	0,527
620,89	0,381
621,09	0,441
621,29	0,554
621,49	0,449
621,69	0,385
621,89	0,486
622,09	0,367
622,29	0,437
622,48	0,449
622,68	0,137
622,88	0,503
623,08	0,389
623,28	0,331
623,48	0,400
623,68	0,391
623,88	0,296
624,08	0,254
624,28	0,120
624,48	0,478
624,67	0,488
624,87	0,392
625,07	0,395
625,27	0,560
625,47	0,411
625,67	0,676
625,87	0,516
626,07	0,471
626,27	0,359
626,47	0,371
626,66	0,458
626,86	0,397
627,06	0,400
627,26	0,482
627,46	0,302
627,66	0,359
627,86	0,309
628,06	0,405
628,25	0,197
628,45	0,371
628,65	0,442
628,85	0,453
629,05	0,583
629,25	0,429
629,45	0,348
629,65	0,383
629,84	0,583
630,04	0,410
630,24	0,383
630,44	0,304
630,64	0,444
630,84	0,469
631,04	0,462
631,23	0,283
631,43	0,448
631,63	0,378
631,83	0,438
632,03	0,406
632,23	0,422
632,42	0,466
632,62	0,565
632,82	0,408
633,02	0,384
633,22	0,432
633,42	0,495
633,62	0,520
633,81	0,583
634,01	0,282
634,21	0,622
634,41	0,640
634,61	0,549
634,80	0,612
635,00	0,454
635,20	0,590
635,40	0,606
635,60	0,563
635,80	0,510
635,99	0,642
636,19	0,461
636,39	0,922
636,59	0,698
636,79	0,630
636,98	0,739
637,18	0,731
637,38	1,126
637,58	0,919
637,78	0,816
637,97	1,021
638,17	1,267
638,37	1,474
638,57	1,806
638,77	2,131
638,96	2,425
639,16	2,963
639,36	3,533
639,56	4,397
639,76	5,542
639,95	6,465
640,15	7,562
640,35	9,311
640,55	10,630
640,75	12,721
640,94	15,331
641,14	17,462
641,34	20,997
641,54	23,241
641,73	26,077
641,93	29,728
642,13	33,184
642,33	36,451
642,53	39,444
642,72	43,154
642,92	47,062
643,12	49,113
643,32	52,353
643,51	55,694
643,71	57,426
643,91	59,758
644,11	62,328
644,30	62,556
644,50	64,298
644,70	66,160
644,90	68,581
645,09	68,560
645,29	69,812
645,49	70,164
645,69	70,247
645,88	71,852
646,08	73,250
646,28	74,548
646,48	76,097
646,67	74,914
646,87	76,592
647,07	78,212
647,26	79,223
647,46	79,267
647,66	81,334
647,86	82,153
648,05	82,381
648,25	85,396
648,45	86,109
648,65	86,000
648,84	89,121
649,04	88,255
649,24	89,466
649,43	90,625
649,63	92,930
649,83	91,746
650,03	93,596
650,22	93,536
650,42	93,581
650,62	93,794
650,81	94,725
651,01	94,584
651,21	93,974
651,40	94,514
651,60	95,040
651,80	97,428
652,00	95,021
652,19	95,085
652,39	97,765
652,59	94,372
652,78	95,247
652,98	96,727
653,18	95,649
653,37	97,571
653,57	97,206
653,77	96,213
653,96	96,057
654,16	96,498
654,36	97,778
654,55	96,966
654,75	96,214
654,95	97,278
655,14	95,959
655,34	97,183
655,54	95,291
655,73	95,917
655,93	95,613
656,13	95,881
656,32	96,673
656,52	97,073
656,72	96,630
656,91	95,084
657,11	94,924
657,31	94,644
657,50	96,216
657,70	94,286
657,90	93,664
658,09	93,924
658,29	95,511
658,49	93,163
658,68	93,797
658,88	94,776
659,07	94,034
659,27	93,165
659,47	93,355
659,66	93,811
659,86	93,208
660,06	94,259
660,25	93,799
660,45	94,302
660,64	93,803
660,84	92,007
661,04	93,118
661,23	93,033
661,43	91,931
661,63	92,500
661,82	91,507
662,02	92,337
662,21	91,846
662,41	91,825
662,61	91,000
662,80	91,908
663,00	90,740
663,19	90,696
663,39	89,140
663,59	90,298
663,78	90,049
663,98	87,811
664,17	88,018
664,37	87,978
664,57	88,018
664,76	87,486
664,96	85,996
665,15	85,470
665,35	86,602
665,55	83,053
665,74	83,457
665,94	83,858
666,13	81,059
666,33	81,962
666,53	80,213
666,72	77,838
666,92	77,316
667,11	75,510
667,31	74,344
667,50	73,016
667,70	71,035
667,90	70,377
668,09	69,949
668,29	68,006
668,48	66,350
668,68	65,284
668,87	65,318
669,07	62,992
669,26	62,367
669,46	61,700
669,66	61,342
669,85	60,424
670,05	59,286
670,24	58,056
670,44	57,343
670,63	57,411
670,83	56,747
671,02	54,305
671,22	54,641
671,42	51,151
671,61	49,938
671,81	48,694
672,00	46,831
672,20	44,295
672,39	43,223
672,59	40,958
672,78	39,374
672,98	36,436
673,17	35,462
673,37	34,089
673,56	32,490
673,76	30,959
673,95	30,367
674,15	30,079
674,34	29,490
674,54	29,622
674,73	29,269
674,93	28,903
675,13	27,975
675,32	26,747
675,52	26,519
675,71	25,941
675,91	25,267
676,10	23,978
676,30	22,962
676,49	21,960
676,69	21,416
676,88	19,844
677,08	18,999
677,27	18,254
677,47	16,670
677,66	15,830
677,86	15,145
678,05	15,139
678,24	14,129
678,44	14,231
678,63	13,390
678,83	12,708
679,02	11,870
679,22	10,877
679,41	11,094
679,61	10,614
679,80	9,993
680,00	9,008
680,19	8,359
680,39	7,338
680,58	6,324
680,78	5,265
680,97	4,725
681,17	3,632
681,36	3,130
681,56	2,713
681,75	2,163
681,94	1,675
682,14	1,791
682,33	1,188
682,53	1,202
682,72	1,161
682,92	0,854
683,11	0,730
683,31	0,697
683,50	0,566
683,69	0,431
683,89	0,285
684,08	0,622
684,28	0,371
684,47	0,676
684,67	0,288
684,86	0,206
685,06	0,410
685,25	0,359
685,44	0,445
685,64	0,292
685,83	0,521
686,03	0,340
686,22	0,072
686,42	0,191
686,61	0,527
686,80	0,484
687,00	0,373
687,19	0,773
687,39	0,255
687,58	0,232
687,77	0,396
687,97	0,426
688,16	0,022
688,36	0,190
688,55	0,366
688,74	0,383
688,94	0,343
689,13	0,394
689,33	0,409
689,52	0,400
689,71	0,422
689,91	0,245
690,10	0,371
690,30	0,269
690,49	0,312
690,68	0,465
690,88	0,503
691,07	0,133
691,27	0,387
691,46	0,186
691,65	0,335
691,85	0,258
692,04	0,137
692,23	0,424
692,43	0,392
692,62	0,404
692,82	0,368
693,01	0,239
693,20	0,361
693,40	0,236
693,59	0,294
693,78	0,313
693,98	0,241
694,17	0,120
694,36	0,311
694,56	0,452
694,75	0,088
694,94	0,384
695,14	0,257
695,33	0,255
695,53	0,207
695,72	0,293
695,91	0,373
696,11	0,302
696,30	0,292
696,49	0,301
696,69	0,464
696,88	0,261
697,07	0,188
697,27	0,282
697,46	0,334
697,65	0,146
697,85	0,581
698,04	0,176
698,23	0,216
698,43	0,625
698,62	0,407
698,81	0,381
699,01	0,863
699,20	0,526
699,39	0,467
699,58	0,607
699,78	0,503
699,97	0,087
700,16	0,807
700,36	0,411
700,55	0,852
700,74	0,328
700,94	0,785
701,13	0,774
701,32	1,191
701,52	0,861
701,71	0,539
701,90	1,199
702,09	1,001
702,29	0,920
702,48	1,025
702,67	0,829
702,87	0,458
703,06	0,904
703,25	1,314
703,44	0,700
703,64	0,922
703,83	1,195
704,02	1,176
704,22	0,477
704,41	0,550
704,60	1,330
704,79	0,088
704,99	1,052
705,18	1,508
705,37	0,709
705,56	1,220
705,76	0,691
705,95	2,156
706,14	1,333
706,33	2,476
706,53	1,773
706,72	1,139
706,91	2,106
707,11	1,433
707,30	2,115
707,49	1,712
707,68	1,686
707,88	1,842
708,07	0,236
708,26	2,501
708,45	2,827
708,64	1,953
708,84	2,359
709,03	2,074
709,22	0,963
709,41	2,929
709,61	2,660
709,80	3,085
709,99	2,099
710,18	2,995
710,38	2,257
710,57	1,784
710,76	1,749
710,95	2,156
711,14	3,848
711,34	2,115
711,53	3,660
711,72	3,035
711,91	1,515
712,11	4,563
712,30	3,842
712,49	3,950
712,68	4,969
712,87	5,125
713,07	3,523
713,26	4,206
713,45	3,978
713,64	1,693
713,83	3,755
714,03	6,098
714,22	2,860
714,41	4,972
714,60	4,187
714,79	1,327
714,99	1,969
715,18	3,027
715,37	4,051
715,56	4,588
715,75	3,975
715,94	4,280
716,14	4,103
716,33	1,994
716,52	1,715
716,71	3,911
716,90	6,176
717,10	5,514
717,29	2,343
717,48	7,728
717,67	3,173
717,86	1,545
718,05	2,038
718,24	4,733
718,44	4,987
718,63	5,856
718,82	6,423
719,01	5,552
719,20	2,561
719,39	3,804
719,59	4,929
719,78	3,383
719,97	5,370
720,16	5,072
720,35	6,742
720,54	2,962
720,73	3,574
720,93	5,161
721,12	0,664
721,31	8,046
721,50	7,196
721,69	4,779
721,88	6,712
722,07	2,599
722,27	5,122
722,46	4,923
722,65	4,988
722,84	4,710
723,03	1,027
723,22	7,321
723,41	7,498
723,60	9,440
723,79	8,761
723,99	6,443
724,18	8,236
724,37	5,674
724,56	7,493
724,75	8,111
724,94	7,585
725,13	11,592
725,32	6,179
725,51	7,293
725,71	6,629
725,90	8,263
726,09	7,907
726,28	7,922
726,47	8,789
726,66	7,163
726,85	6,557
727,04	7,477
727,23	13,022
727,42	10,732
727,61	6,349
727,81	5,005
728,00	7,310
728,19	6,979
728,38	6,587
728,57	10,377
728,76	7,620
728,95	6,250
729,14	4,870
729,33	8,562
729,52	13,048
729,71	8,955
729,90	8,152
730,09	5,023
730,28	15,704
730,48	10,093
730,67	6,771
730,86	8,582
731,05	6,075
731,24	9,792
731,43	-1,887
731,62	10,902
731,81	10,038
732,00	12,325
732,19	4,853
732,38	6,545
732,57	9,128
732,76	13,452
732,95	2,133
733,14	4,161
733,33	7,967
733,52	12,591
733,71	9,451
733,90	11,440
734,09	5,868
734,28	10,483
734,47	4,079
734,66	12,212
734,85	9,220
735,04	12,125
735,23	12,434
735,42	12,680
735,61	17,867
735,81	10,621
736,00	15,361
736,19	6,065
736,38	9,333
736,57	14,763
736,76	3,721
736,95	11,364
737,14	10,942
737,33	10,915
737,52	12,066
737,71	7,532
737,90	10,590
738,09	6,135
738,28	10,048
738,47	4,412
738,66	6,563
738,85	4,639
739,04	12,054
739,22	13,514
739,41	14,355
739,60	8,528
739,79	7,534
739,98	5,445
740,17	18,197
740,36	20,536
740,55	17,637
740,74	12,348
740,93	17,073
741,12	12,132
741,31	12,868
741,50	4,708
741,69	11,111
741,88	12,400
742,07	20,217
742,26	12,172
742,45	10,079
742,64	21,043
742,83	7,021
743,02	9,910
743,21	15,895
743,40	15,931
743,59	15,574
743,78	27,729
743,97	17,481
744,16	10,200
744,34	15,551
744,53	6,762
744,72	25,780
744,91	10,105
745,10	16,279
745,29	11,820
745,48	14,677
745,67	12,831
745,86	10,329
746,05	16,895
746,24	22,004
746,43	12,293
746,62	2,765
746,81	15,982
747,00	18,163
747,18	28,352
747,37	20,043
747,56	13,708
747,75	16,411
747,94	18,162
748,13	7,306
748,32	22,009
748,51	30,474
748,70	12,710
748,89	19,324
749,08	9,143
749,26	10,263
749,45	26,118
749,64	13,151
749,83	17,303
750,02	18,785
750,21	13,196
750,40	16,406
750,59	24,528
750,78	24,260
750,96	18,994
751,15	16,120
751,34	28,272
751,53	26,108
751,72	20,755
751,91	18,082
752,10	9,259
752,29	24,859
752,47	18,820
752,66	23,380
752,85	23,839
753,04	15,773
753,23	23,179
753,42	24,620
753,61	26,797
753,80	16,531
753,98	21,053
754,17	26,380
754,36	28,249
754,55	26,019
754,74	30,347
754,93	12,104
755,12	18,667
755,30	16,066
755,49	32,110
755,68	31,412
755,87	18,919
756,06	34,078
756,25	29,841
756,43	15,862
756,62	19,288
756,81	26,073
757,00	37,101
757,19	22,260
757,38	30,915
757,56	39,032
757,75	37,582
757,94	22,397
758,13	24,026
758,32	15,909
758,51	29,044
758,69	26,800
758,88	26,727
759,07	18,996
759,26	19,535
759,45	16,594
759,63	36,431
759,82	29,630
760,01	12,375
760,20	43,191
760,39	37,313
760,57	43,802
760,76	24,324
760,95	12,037
761,14	15,102
761,33	35,312
761,51	26,165
761,70	43,448
761,89	14,754
762,08	20,465
762,27	36,996
762,45	33,463
762,64	30,037
762,83	31,858
763,02	36,279
763,21	24,138
763,39	24,898
763,58	20,755
763,77	42,471
763,96	38,153
764,14	24,167
764,33	39,560
764,52	36,052
764,71	20,179
764,89	21,569
765,08	40,948
765,27	29,368
765,46	48,913
765,65	33,624
765,83	39,827
766,02	11,489
766,21	33,149
766,40	28,571
766,58	39,024
766,77	38,806
766,96	21,364
767,15	54,589
767,33	21,053
767,52	39,634
767,71	24,783
767,90	30,337
768,08	33,074
768,27	33,000
768,46	38,672
768,64	48,705
768,83	44,271
769,02	42,500
769,21	32,314
769,39	34,302
769,58	22,543
769,77	49,042
769,96	25,131
770,14	23,810
770,33	44,860
770,52	6,878
770,70	18,667
770,89	49,664
771,08	45,763
771,27	50,000
771,45	26,754
771,64	32,292
771,83	36,916
772,01	22,892
772,20	68,844
772,39	26,667
772,57	32,558
772,76	19,259
772,95	51,064
773,14	51,075
773,32	27,097
773,51	49,254
773,70	71,250
773,88	60,109
774,07	32,984
774,26	46,809
774,44	34,756
774,63	65,482
774,82	60,366
775,00	36,667
775,19	11,200
775,38	80,347
775,56	60,938
775,75	46,386
775,94	41,772
776,12	33,149
776,31	32,941
776,50	40,909
776,68	50,000
776,87	52,273
777,06	40,690
777,24	61,111
777,43	38,462
777,62	67,647
777,80	63,514
777,99	54,857
778,18	76,733
778,36	71,200
778,55	52,893
778,74	70,833
778,92	56,805
779,11	52,500
779,29	53,459
779,48	36,735
779,67	24,031
779,85	78,049
780,04	41,081
780,23	51,079
780,41	51,563
780,60	30,526
780,79	74,576
780,97	51,316
781,16	50,909
781,34	94,845
781,53	35,043
781,72	72,263
781,90	36,719
782,09	69,032
782,28	83,212
782,46	29,630
782,65	85,000
782,83	84,270
783,02	37,500
783,21	66,000
783,39	76,522
783,58	85,207
783,76	52,514
783,95	57,576
784,14	62,252
784,32	73,154
784,51	45,690
784,69	62,712
784,88	109,910
785,06	48,739
785,25	59,873
785,44	66,187
785,62	46,429
785,81	71,831
785,99	89,209
786,18	66,892
786,37	66,667
786,55	41,284
786,74	26,974
786,92	52,344
787,11	50,833
787,29	48,507
787,48	59,333
787,67	98,795
787,85	60,345
788,04	56,436
788,22	50,820
788,41	90,588
788,59	105,505
788,78	46,667
788,96	86,792
789,15	67,368
789,34	84,545
789,52	77,876
789,71	62,791
789,89	170,213
790,08	76,712
790,26	47,143
790,45	33,333
790,63	48,148
790,82	69,091
791,00	48,611
791,19	66,667
791,38	95,833
791,56	78,070
791,75	59,633
791,93	55,172
792,12	64,497
792,30	72,000
792,49	63,025
792,67	61,194
792,86	41,085
793,04	71,963
793,23	66,667
793,41	58,228
793,60	86,869
793,78	68,421
793,97	82,051
794,15	89,091
794,34	43,956
794,52	75,325
794,71	104,938
794,89	47,778
795,08	45,631
795,26	83,333
795,45	56,716
795,63	121,970
795,82	70,093
796,00	60,550
796,19	74,167
796,37	64,234
796,56	88,172
796,74	86,726
796,93	89,888
797,11	69,620
797,30	82,500
797,48	83,448
797,67	67,500
797,85	46,939
798,04	92,708
798,22	91,270
798,41	84,314
798,59	74,737
798,77	63,077
798,96	33,333
799,14	83,621
799,33	67,939
799,51	80,000
799,70	56,376
799,88	72,727
800,07	58,553
800,25	52,414
800,44	86,869
800,62	70,588
800,80	56,522
800,99	38,095
801,17	21,552
801,36	92,414
801,54	105,208
801,73	76,768
801,91	68,852
802,10	70,238
802,28	89,720
802,46	67,901
802,65	54,023
802,83	107,865
803,02	63,158
803,20	90,625
803,39	-22,414
803,57	118,072
803,75	76,351
803,94	60,504
804,12	28,333
804,31	59,292
804,49	53,846
804,67	104,800
804,86	34,821
805,04	95,946
805,23	68,966
805,41	98,361
805,59	54,098
805,78	74,242
805,96	56,410
806,15	60,156
806,33	73,950
806,51	91,150
806,70	136,667
806,88	51,220
807,07	63,492
807,25	57,862
807,43	92,053
807,62	53,659
807,80	95,699
807,99	51,587
808,17	79,433
808,35	90,351
808,54	77,419
808,72	93,600
808,90	76,316
809,09	97,500
809,27	94,595
809,46	88,393
809,64	79,412
809,82	29,885
810,01	60,606
810,19	71,000
810,37	42,308
810,56	96,341
810,74	68,212
810,92	82,576
811,11	119,608
811,29	56,028
811,48	78,788
811,66	84,496
811,84	101,835
812,03	88,182
812,21	5,128
812,39	91,525
812,58	52,941
812,76	60,748
812,94	92,000
813,13	79,365
813,31	80,833
813,49	100,000
813,68	80,870
813,86	87,755
814,04	108,738
814,23	88,889
814,41	74,265
814,59	59,887
814,78	77,206
814,96	106,306
815,14	87,778
815,33	57,971
815,51	85,926
815,69	77,778
815,87	89,565
816,06	68,125
816,24	82,119
816,42	34,615
816,61	114,407
816,79	109,639
816,97	65,766
817,16	42,581
817,34	49,655
817,52	88,966
817,70	76,190
817,89	41,322
818,07	63,793
818,25	79,279
818,44	65,116
818,62	70,690
818,80	48,252
818,98	60,952
819,17	49,231
819,35	45,294
819,53	67,327
819,72	44,186
819,90	36,527
820,08	44,805
820,26	68,421
820,45	65,663
820,63	49,479
820,81	71,141
820,99	71,429
821,18	37,778
821,36	57,619
821,54	72,093
821,73	62,703
821,91	44,681
822,09	47,647
822,27	53,807
822,46	56,250
822,64	75,497
822,82	60,976
823,00	40,541
823,19	25,758
823,37	60,000
823,55	65,882
823,73	62,000
823,91	30,939
824,10	73,184
824,28	60,741
824,46	33,140
824,64	36,275
824,83	43,089
825,01	43,478
825,19	60,571
825,37	45,312
825,56	41,875
825,74	45,714
825,92	52,809
826,10	43,478
826,28	43,624
826,47	10,569
826,65	63,514
826,83	66,667
827,01	40,909
827,19	49,367
827,38	37,306
827,56	62,981
827,74	60,163
827,92	48,780
828,10	46,196
828,29	60,952
828,47	54,386
828,65	28,649
828,83	42,424
829,01	55,333
829,20	22,785
829,38	39,004
829,56	54,656
829,74	65,909
829,92	51,031
830,10	45,045
830,29	37,297
830,47	43,229
830,65	30,804
830,83	49,714
831,01	30,000
831,20	40,594
831,38	40,976
831,56	41,700
831,74	50,286
831,92	42,045
832,10	40,455
832,29	42,180
832,47	28,319
832,65	54,894
832,83	31,163
833,01	21,344
833,19	34,389
833,37	31,852
833,56	34,742
833,74	46,964
833,92	27,876
834,10	52,284
834,28	24,615
834,46	37,370
834,64	43,750
834,83	29,693
835,01	32,296
835,19	37,441
835,37	38,645
835,55	46,570
835,73	45,588
835,91	17,375
836,09	25,311
836,28	46,183
836,46	41,404
836,64	53,689
836,82	29,478
837,00	42,857
837,18	27,273
837,36	28,877
837,54	21,970
837,72	25,100
837,91	25,703
838,09	26,000
838,27	43,223
838,45	38,835
838,63	12,542
838,81	36,513
838,99	35,889
839,17	41,748
839,35	25,556
839,53	33,557
839,72	21,610
839,90	17,629
840,08	31,090
840,26	38,801
840,44	23,148
840,62	29,293
840,80	20,062
840,98	38,066
841,16	10,676
841,34	22,609
841,52	32,907
841,70	34,343
841,89	31,290
842,07	29,459
842,25	9,416
842,43	20,000
842,61	28,150
842,79	24,695
842,97	12,805
843,15	35,530
843,33	28,266
843,51	27,208
843,69	22,222
843,87	24,528
844,05	12,938
844,23	19,459
844,41	17,588
844,59	15,057
844,77	11,816
844,95	21,845
845,13	34,153
845,31	22,905
845,50	25,258
845,68	15,026
845,86	24,057
846,04	24,444
846,22	20,048
846,40	7,612
846,58	11,796
846,76	20,698
846,94	19,952
847,12	22,749
847,30	20,968
847,48	29,017
847,66	28,049
847,84	9,645
848,02	19,751
848,20	19,205
848,38	12,185
848,56	29,247
848,74	15,909
848,92	13,570
849,10	23,438
849,28	22,876
849,46	16,822
849,64	12,619
849,82	17,548
850,00	19,097
850,18	11,085
850,36	19,518
850,54	23,991
850,72	21,414
850,90	25,791
851,08	13,786
851,26	27,935
851,44	7,831
851,62	16,556
851,80	17,893
851,98	25,514
852,16	29,835
852,34	27,514
852,52	9,543
852,70	6,627
852,87	21,905
853,05	22,044
853,23	23,137
853,41	6,135
853,59	13,396
853,77	20,437
853,95	13,559
854,13	16,505
854,31	19,721
854,49	16,433
854,67	12,406
854,85	21,043
855,03	13,602
855,21	25,212
855,39	13,591
855,57	28,261
855,75	13,828
855,93	11,307
856,11	19,936
856,28	14,236
856,46	12,582
856,64	17,961
856,82	8,901
857,00	13,322
857,18	15,649
857,36	11,261
857,54	15,372
857,72	16,694
857,90	14,168
858,08	12,654
858,26	9,327
858,44	12,578
858,61	11,612
858,79	17,364
858,97	7,880
859,15	10,502
859,33	7,055
859,51	9,585
859,69	12,202
859,87	8,492
860,05	18,968
860,23	5,606
860,40	12,442
860,58	8,908
860,76	16,949
860,94	7,023
861,12	11,473
861,30	16,553
861,48	15,439
861,66	13,670
861,84	9,637
862,01	19,251
862,19	18,157
862,37	14,286
862,55	4,318
862,73	11,549
862,91	10,771
863,09	13,914
863,27	4,318
863,44	10,596
863,62	10,519
863,80	5,810
863,98	13,027
864,16	10,111
864,34	8,831
864,52	9,795
864,69	14,699
864,87	10,608
865,05	9,395
865,23	10,990
865,41	13,111
865,59	13,350
865,76	6,072
865,94	6,236
866,12	12,571
866,30	5,276
866,48	9,476
866,66	13,341
866,83	6,893
867,01	13,772
867,19	4,591
867,37	11,164
867,55	14,709
867,73	9,909
867,90	10,628
868,08	9,259
868,26	5,359
868,44	6,009
868,62	6,897
868,79	8,874
868,97	10,448
869,15	9,342
869,33	5,623
869,51	11,783
869,69	6,361
869,86	8,718
870,04	3,704
870,22	6,868
870,40	8,485
870,57	12,100
870,75	8,238
870,93	7,284
871,11	5,290
871,29	10,061
871,46	8,056
871,64	7,913
871,82	5,659
872,00	8,408
872,18	6,953
872,35	9,804
872,53	8,696
872,71	5,679
872,89	7,600
873,06	7,565
873,24	10,386
873,42	7,616
873,60	4,683
873,77	8,630
873,95	8,588
874,13	6,082
874,31	6,150
874,49	6,888
874,66	5,412
874,84	7,460
875,02	9,601
875,20	6,281
875,37	2,300
875,55	2,456
875,73	5,091
875,91	6,172
876,08	6,768
876,26	3,497
876,44	3,275
876,61	8,550
876,79	7,555
876,97	5,813
877,15	7,328
877,32	5,591
877,50	5,577
877,68	5,733
877,86	4,458
878,03	5,833
878,21	6,932
878,39	5,704
878,56	5,973
878,74	4,266
878,92	4,377
879,10	6,361
879,27	6,311
879,45	9,042
879,63	2,142
879,80	4,691
879,98	4,769
880,16	4,487
880,34	3,038
880,51	5,581
880,69	4,828
880,87	4,605
881,04	2,450
881,22	5,797
881,40	2,650
881,57	3,940
881,75	3,890
881,93	4,564
882,10	8,905
882,28	3,858
882,46	5,447
882,63	5,779
882,81	3,908
882,99	5,296
883,16	4,869
883,34	4,553
883,52	3,335
883,69	5,201
883,87	5,619
884,05	2,482
884,22	5,221
884,40	5,136
884,58	5,754
884,75	2,322
884,93	7,801
885,11	2,394
885,28	4,324
885,46	3,793
885,64	5,131
885,81	6,747
885,99	3,455
886,17	2,586
886,34	3,041
886,52	5,438
886,70	3,541
886,87	4,764
887,05	4,370
887,22	1,948
887,40	4,460
887,58	4,279
887,75	4,237
887,93	4,021
888,11	0,643
888,28	3,367
888,46	2,274
888,63	4,079
888,81	2,997
888,99	2,133
889,16	3,376
889,34	2,870
889,51	3,716
889,69	3,855
889,87	2,115
890,04	0,583
890,22	4,717
890,39	1,769
890,57	3,641
890,75	5,430
890,92	2,853
891,10	4,825
891,27	2,600
891,45	2,917
891,63	6,635
891,80	2,873
891,98	5,230
892,15	3,257
892,33	3,103
892,51	4,493
892,68	2,391
892,86	2,979
893,03	4,068
893,21	3,500
893,38	4,517
893,56	2,088
893,74	3,425
893,91	4,336
894,09	3,087
894,26	4,114
894,44	3,238
894,61	3,742
894,79	2,421
894,96	3,495
895,14	3,796
895,32	2,527
895,49	1,822
895,67	2,764
895,84	3,605
896,02	2,543
896,19	1,963
896,37	3,180
896,54	2,209
896,72	3,095
896,89	4,205
897,07	2,744
897,25	3,228
897,42	2,654
897,60	2,361
897,77	4,759
897,95	2,151
898,12	2,512
898,30	1,336
898,47	3,018
898,65	2,292
898,82	1,819
899,00	2,826
899,17	3,710
899,35	2,557
899,52	3,015
899,70	1,971
899,87	1,639
900,05	3,738
900,22	1,753
900,40	1,328
900,57	3,165
900,75	1,281
900,92	2,364
901,10	3,479
901,27	3,579
901,45	3,700
901,62	2,521
901,80	3,472
901,97	2,410
902,15	4,547
902,32	3,183
902,50	2,292
902,67	1,977
902,85	2,598
903,02	3,894
903,20	1,773
903,37	3,573
903,54	3,331
903,72	1,711
903,89	1,879
904,07	2,804
904,24	3,184
904,42	2,155
904,59	2,047
904,77	2,304
904,94	2,856
905,12	0,396
905,29	3,544
905,47	3,240
905,64	3,170
905,81	1,741
905,99	2,009
906,16	2,567
906,34	2,159
906,51	2,301
906,69	1,770
906,86	2,002
907,03	2,811
907,21	1,527
907,38	1,996
907,56	1,567
907,73	2,884
907,91	2,847
908,08	2,167
908,25	2,956
908,43	3,135
908,60	2,492
908,78	3,310
908,95	2,877
909,13	2,834
909,30	1,307
909,47	1,498
909,65	2,779
909,82	2,823
910,00	1,808
910,17	2,035
910,34	1,934
910,52	1,505
910,69	2,662
910,87	2,975
911,04	2,598
911,21	2,994
911,39	2,453
911,56	2,073
911,73	1,225
911,91	2,359
912,08	2,423
912,26	1,870
912,43	1,368
912,60	3,178
912,78	1,831
912,95	3,399
913,13	2,115
913,30	2,474
913,47	3,414
913,65	1,999
913,82	2,284
913,99	2,075
914,17	1,378
914,34	2,164
914,51	2,905
914,69	1,758
914,86	2,646
915,03	1,931
915,21	2,203
915,38	1,451
915,56	1,967
915,73	1,959
915,90	2,751
916,08	3,075
916,25	2,067
916,42	1,623
916,60	2,092
916,77	0,976
916,94	1,342
917,12	2,229
917,29	2,838
917,46	1,101
917,64	2,192
917,81	1,849
917,98	1,618
918,16	2,753
918,33	1,660
918,50	1,397
918,67	1,358
918,85	2,250
919,02	1,899
919,19	2,303
919,37	1,723
919,54	2,241
919,71	2,438
919,89	1,671
920,06	1,228
920,23	1,860
920,41	1,634
920,58	1,313
920,75	2,362
920,92	0,977
921,10	1,501
921,27	0,640
921,44	2,082
921,62	1,423
921,79	2,449
921,96	1,372
922,13	1,599
922,31	1,364
922,48	1,801
922,65	1,209
922,82	1,265
923,00	2,082
923,17	0,534
923,34	1,465
923,52	1,611
923,69	1,821
923,86	1,032
924,03	1,822
924,21	2,221
924,38	2,955
924,55	2,036
924,72	1,745
924,90	1,032
925,07	2,359
925,24	1,388
925,41	1,143
925,59	1,699
925,76	1,473
925,93	2,243
926,10	2,017
926,28	1,857
926,45	1,960
926,62	0,942
926,79	1,024
926,96	2,256
927,14	2,252
927,31	1,643
927,48	1,886
927,65	0,843
927,83	0,584
928,00	1,075
928,17	1,707
928,34	1,688
928,51	1,897
928,69	1,054
928,86	2,372
929,03	2,167
929,20	1,825
929,37	2,223
929,55	0,645
929,72	2,209
929,89	0,978
930,06	1,681
930,23	1,693
930,41	1,474
930,58	1,852
930,75	1,696
930,92	1,584
931,09	1,605
931,27	1,285
931,44	1,321
931,61	1,713
931,78	1,229
931,95	0,977
932,12	1,754
932,30	1,365
932,47	2,508
932,64	1,427
932,81	1,809
932,98	1,272
933,16	1,064
933,33	1,327
933,50	1,852
933,67	2,160
933,84	1,344
934,01	1,211
934,18	1,564
934,36	1,466
934,53	0,771
934,70	2,015
934,87	1,625
935,04	1,797
935,21	1,200
935,38	1,029
935,56	1,015
935,73	1,526
935,90	0,055
936,07	1,624
936,24	1,685
936,41	1,181
936,58	0,460
936,76	1,456
936,93	0,608
937,10	1,069
937,27	1,099
937,44	1,716
937,61	1,830
937,78	1,527
937,95	0,802
938,13	1,160
938,30	1,357
938,47	1,608
938,64	1,836
938,81	0,537
938,98	1,364
939,15	0,641
939,32	1,311
939,49	1,772
939,66	2,014
939,84	1,839
940,01	1,113
940,18	1,160
940,35	1,992
940,52	0,808
940,69	2,978
940,86	1,220
941,03	0,872
941,20	2,516
941,37	1,736
941,54	0,336
941,71	-0,297
941,89	1,590
942,06	0,615
942,23	2,000
942,40	1,051
942,57	1,771
942,74	1,469
942,91	0,537
943,08	1,714
943,25	2,137
943,42	1,261
943,59	1,634
943,76	1,572
943,93	1,302
944,10	1,122
944,27	2,056
944,44	2,082
944,61	1,553
944,79	1,678
944,96	2,514
945,13	1,638
945,30	0,890
945,47	1,889
945,64	2,030
945,81	2,395
945,98	3,001
946,15	2,165
946,32	1,996
946,49	1,128
946,66	2,340
946,83	1,811
947,00	1,439
947,17	1,196
947,34	1,337
947,51	2,211
947,68	3,294
947,85	1,557
948,02	2,368
948,19	2,539
948,36	1,915
948,53	2,755
948,70	3,330
948,87	3,482
949,04	1,827
949,21	1,883
949,38	2,516
949,55	1,787
949,72	2,522
949,89	2,402
950,06	0,589
950,23	2,298
950,40	2,810
950,57	1,084
950,74	3,351
950,91	1,925
951,08	2,002
951,25	3,293
951,42	4,696
951,59	1,926
951,76	3,036
951,93	3,216
952,10	3,614
952,27	2,790
952,44	1,982
952,61	2,955
952,77	2,003
952,94	2,085
953,11	5,358
953,28	3,350
953,45	2,681
953,62	2,651
953,79	4,256
953,96	2,898
954,13	2,276
954,30	5,096
954,47	3,374
954,64	3,566
954,81	3,652
954,98	2,902
955,15	3,522
955,32	4,467
955,49	1,508
955,65	4,650
955,82	5,604
955,99	5,949
956,16	5,519
956,33	5,858
956,50	4,619
956,67	5,742
956,84	4,593
957,01	3,198
957,18	5,869
957,35	7,842
957,52	5,956
957,68	6,167
957,85	9,021
958,02	6,632
958,19	9,574
958,36	10,727
958,53	6,267
958,70	4,615
958,87	7,730
959,04	12,956
959,21	11,818
959,37	8,442
959,54	11,687
959,71	5,989
959,88	3,183
960,05	9,934
960,22	2,604
960,39	12,800
960,56	6,203
960,72	8,156
960,89	14,068
961,06	12,484
961,23	9,025
961,40	6,638
961,57	8,559
961,74	5,063
961,90	6,875
962,07	12,785
962,24	15,610
962,41	9,548
962,58	20,826
962,75	14,867
962,92	18,879
963,08	13,455
963,25	12,973
963,42	13,768
963,59	13,430
963,76	24,944
963,93	11,899
964,10	21,627
964,26	19,956
964,43	24,031
964,60	21,503
964,77	26,747
964,94	16,477
965,10	21,429
965,27	19,843
965,44	34,286
965,61	23,967
965,78	20,128
965,95	27,246
966,11	33,437
966,28	20,074
966,45	30,218
966,62	32,000
966,79	36,327
966,95	27,463
967,12	33,123
967,29	24,306
967,46	28,409
967,63	27,170
967,79	39,640
967,96	37,662
968,13	33,000
968,30	29,839
968,47	45,017
968,63	41,892
968,80	32,569
968,97	48,077
969,14	47,674
969,31	51,667
969,47	45,882
969,64	48,485
969,81	39,896
969,98	50,000
970,14	46,626
970,31	50,943
970,48	56,667
970,65	34,320
970,81	41,096
970,98	64,964
971,15	68,367
971,32	50,000
971,48	65,306
971,65	36,923
971,82	35,294
971,99	98,851
972,15	66,197
972,32	94,595
972,49	79,720
972,66	102,727
972,82	75,581
972,99	77,236
973,16	96,552
973,33	59,821
973,49	73,684
973,66	60,215
973,83	79,612
974,00	112,791
974,16	69,608
974,33	100,000
974,50	64,211
974,67	109,474
974,83	89,286
975,00	85,263
975,17	79,121
975,33	66,292
975,50	126,866
975,67	122,449
975,84	114,925
976,00	133,708
976,17	137,705
976,34	79,000
976,50	103,371
976,67	81,553
976,84	766,667
977,00	169,388
977,17	164,444
977,34	129,670
977,50	116,418
977,67	178,571
977,84	130,645
978,01	221,277
978,17	44,444
978,34	147,222
978,51	182,353
978,67	177,632
978,84	108,594
979,01	224,324
979,17	82,051
979,34	68,493
979,51	167,347
979,67	104,938
979,84	110,204
980,01	215,556
980,17	167,606
980,34	407,407
980,51	165,217
980,67	96,471
980,84	256,667
981,01	210,000
981,17	276,000
981,34	700,000
981,50	136,765
981,67	200,000
981,84	2500,000
982,00	330,000
982,17	138,095
982,34	100,000
982,50	646,667
982,67	103,125
982,84	2260,000
983,00	616,667
983,17	102,985
983,33	110,345
983,50	980,000
983,67	-206,897
983,83	287,879
984,00	-542,857
984,17	411,111
984,33	-5500,000
984,50	317,143
984,66	221,739
984,83	154,545
985,00	-354,167
985,16	331,034
985,33	694,118
985,49	355,556
985,66	282,353
985,83	156,522
985,99	302,564
986,16	-1275,000
986,32	442,857
986,49	5500,000
986,66	239,394
986,82	566,667
986,99	237,736
987,15	-373,684
987,32	-232,143
987,49	130,000
987,65	3600,000
987,82	220,833
987,98	169,388
988,15	266,667
988,31	690,000
988,48	-900,000
988,65	235,714
988,81	194,444
988,98	258,537
989,14	307,143
989,31	438,095
989,47	120,588
989,64	-623,077
989,80	531,250
989,97	248,649
990,14	-108,696
990,30	-350,000
990,47	248,980
990,63	219,444
990,80	140,000
990,96	-310,000
991,13	309,375
991,29	382,759
991,46	0,000
991,62	-553,846
991,79	1050,000
991,95	8500,000
992,12	-750,000
992,29	-275,000
992,45	180,000
992,62	248,837
992,78	243,182
992,95	-366,667
993,11	400,000
993,28	780,000
993,44	-900,000
993,61	-437,500
993,77	-2600,000
993,94	-2533,333
994,10	-53,333
994,27	578,947
994,43	286,047
994,60	0,000
994,76	2900,000
994,93	480,000
995,09	-629,412
995,26	522,222
995,42	290,196
995,59	457,143
995,75	407,692
995,92	1700,000
996,08	308,333
996,25	-687,500
996,41	-4150,000
996,58	606,667
996,74	279,545
996,91	286,207
997,07	0,000
997,23	9300,000
997,40	-15900,000
997,56	-692,308
997,73	-1150,000
997,89	334,211
998,06	861,538
998,22	-338,889
998,39	436,000
998,55	1122,222
998,72	-1425,000
998,88	-293,333
999,05	-33,333
999,21	190,476
999,37	-293,333
999,54	-666,667
999,70	-270,000
999,87	618,750
1000,03	302,564
1000,20	214,583
1000,36	0,000
1000,52	391,667
1000,69	-442,857
1000,85	-600,000
1001,02	-337,500
1001,18	1525,000
1001,35	730,769
1001,51	388,235
1001,67	-915,385
1001,84	-1960,000
1002,00	186,486
1002,17	727,273
1002,33	-1525,000
1002,50	314,286
1002,66	-484,615
1002,82	222,500
1002,99	885,714
1003,15	-1042,857
1003,32	-618,182
1003,48	332,143
1003,64	626,667
1003,81	418,519
1003,97	-5150,000
1004,14	581,818
1004,30	240,000
1004,46	-420,000
1004,63	557,143
1004,79	313,889
1004,95	660,000
1005,12	3150,000
1005,28	513,793
1005,45	275,676
1005,61	444,828
1005,77	-212,500
1005,94	-166,667
1006,10	-3850,000
1006,26	900,000
1006,43	-196,154
1006,59	-872,727
1006,76	692,857
1006,92	1133,333
1007,08	9300,000
1007,25	-311,111
1007,41	413,793
1007,57	2000,000
1007,74	500,000
1007,90	-348,276
1008,06	147,826
1008,23	705,882
1008,39	-337,500
1008,55	-142,308
1008,72	-1214,286
1008,88	0,000
1009,04	195,122
1009,21	-105,263
1009,37	-633,333
1009,53	221,429
1009,70	2300,000
1009,86	-485,714
1010,02	3166,667
1010,19	1109,091
1010,35	175,000
1010,51	-3800,000
1010,68	-1387,500
1010,84	-115,909
1011,00	387,500
1011,17	-354,545
1011,33	0,000
1011,49	-833,333
1011,66	507,143
1011,82	422,581
1011,98	421,429
1012,14	-145,455
1012,31	294,872
1012,47	0,000
1012,63	1300,000
1012,80	600,000
1012,96	-593,750
1013,12	-1500,000
1013,29	611,111
1013,45	319,512
1013,61	3600,000
1013,77	-78,571
1013,94	1520,000
1014,10	113,559
1014,26	-1725,000
1014,43	-444,000
1014,59	585,000
1014,75	-400,000
1014,91	-593,333
1015,08	322,222
1015,24	6800,000
1015,40	564,706
1015,56	-12000,000
1015,73	180,952
1015,89	136,364
1016,05	2750,000
1016,21	-600,000
1016,38	642,105
1016,54	853,846
1016,70	-2100,000
1016,86	278,125
1017,03	656,250
1017,19	-476,923
1017,35	-476,471
1017,51	-1040,000
1017,68	-650,000
1017,84	-1600,000
1018,00	202,381
1018,16	300,000
1018,33	-385,714
1018,49	-483,333
1018,65	-64,865
1018,81	251,282
1018,97	-428,571
1019,14	-1700,000
1019,30	-202,564
1019,46	0,000
1019,62	-329,412
1019,79	-3233,333
1019,95	916,667
1020,11	5300,000
1020,27	-174,074
1020,43	-307,692
1020,60	1400,000
1020,76	483,333
1020,92	513,333
1021,08	630,000
1021,24	1110,000
1021,41	1200,000
1021,57	1125,000
1021,73	700,000
1021,89	2040,000
1022,05	-367,857
1022,21	635,000
1022,38	-200,000
1022,54	-2216,667
1022,70	240,000
1022,86	-1025,000
1023,02	404,167
1023,19	1860,000
1023,35	3633,333
1023,51	245,833
1023,67	477,778
1023,83	-556,250
1023,99	223,684
1024,16	-369,231
1024,32	-1022,222
1024,48	-630,000
1024,64	278,571
1024,80	473,913
1024,96	256,410
1025,12	585,714
1025,29	400,000
1025,45	263,158
1025,61	550,000
1025,77	-1240,000
1025,93	-6900,000
1026,09	-1271,429
1026,26	691,667
1026,42	681,250
1026,58	345,455
1026,74	1500,000
1026,90	308,000
1027,06	200,000
1027,22	978,571
1027,38	305,769
1027,55	3333,333
1027,71	1516,667
1027,87	-280,000
1028,03	820,000
1028,19	87,500
1028,35	490,000
1028,51	1320,000
1028,67	758,333
1028,83	-1175,000
1029,00	-133,333
1029,16	830,000
1029,32	-232,143
1029,48	126,667
1029,64	266,667
1029,80	4100,000
1029,96	926,667
1030,12	504,348
1030,28	-1966,667
1030,44	-276,923
1030,61	-250,000
1030,77	-134,286
1030,93	-500,000
1031,09	1266,667
1031,25	-8400,000
1031,41	-86,667
1031,57	253,846
1031,73	493,750
1031,89	-681,818
1032,05	-274,074
1032,21	1127,273
1032,37	-172,222
1032,53	-564,286
1032,69	-116,667
1032,86	251,852
1033,02	-130,000
1033,18	-525,000
1033,34	405,263
1033,50	-3850,000
1033,66	-217,073
1033,82	386,957
1033,98	-314,815
1034,14	117,949
1034,30	406,452
1034,46	-3933,333
1034,62	490,000
1034,78	-266,667
1034,94	223,684
1035,10	-376,923
1035,26	-9,302
1035,42	-217,241
1035,58	-433,333
1035,74	850,000
1035,90	-692,308
1036,06	-1233,333
1036,22	1083,333
1036,38	-576,471
1036,54	-304,167
1036,70	-169,697
1036,86	7000,000
1037,02	522,222
1037,18	331,579
1037,34	149,524
1037,50	-85,366
1037,66	-182,353
1037,82	2240,000
1037,98	-359,259
1038,14	-204,000
1038,30	-350,000
1038,46	-357,143
1038,62	456,522
1038,78	-2300,000
1038,94	-363,158
1039,10	304,545
1039,26	181,481
1039,42	-683,333
1039,58	1300,000
1039,74	-178,947
1039,90	371,875
1040,06	-330,769
>>>>>End Processed Spectral Data<<<<<
