SpectraSuite Data File
++++++++++++++++++++++++++++++++++++
Date: Wed Feb 01 15:39:00 EET 2017
User: optolab
Dark Spectrum Present: Yes
Reference Spectrum Present: Yes
Number of Sampled Component Spectra: 1
Spectrometers: USB4C02475
Integration Time (usec): 100000 (USB4C02475)
Spectra Averaged: 1 (USB4C02475)
Boxcar Smoothing: 0 (USB4C02475)
Correct for Electrical Dark: No (USB4C02475)
Strobe/Lamp Enabled: No (USB4C02475)
Correct for Detector Non-linearity: No (USB4C02475)
Correct for Stray Light: No (USB4C02475)
Number of Pixels in Processed Spectrum: 3648
>>>>>Begin Processed Spectral Data<<<<<
344,91	3350,000
345,13	3350,000
345,35	3350,000
345,57	0,000
345,79	131,579
346,00	-1211,111
346,22	-1228,571
346,44	382,353
346,66	-458,333
346,87	-7600,000
347,09	330,303
347,31	-136,364
347,53	-217,949
347,74	186,154
347,96	415,152
348,18	657,895
348,40	403,226
348,61	782,353
348,83	311,905
349,05	229,412
349,27	-4250,000
349,48	461,538
349,70	-265,517
349,92	361,290
350,14	226,415
350,35	160,000
350,57	2050,000
350,79	500,000
351,01	-680,952
351,22	207,407
351,44	661,538
351,66	-288,000
351,87	-185,714
352,09	196,154
352,31	196,721
352,53	170,313
352,74	425,000
352,96	212,987
353,18	584,211
353,40	504,000
353,61	217,778
353,83	276,471
354,05	272,727
354,26	2166,667
354,48	90,000
354,70	248,485
354,92	-203,448
355,13	177,778
355,35	272,727
355,57	375,000
355,78	192,771
356,00	-1675,000
356,22	334,615
356,44	2450,000
356,65	227,273
356,87	492,308
357,09	433,333
357,30	268,889
357,52	275,862
357,74	765,000
357,95	251,282
358,17	134,426
358,39	196,774
358,60	356,757
358,82	370,833
359,04	300,000
359,26	408,571
359,47	2400,000
359,69	290,000
359,91	378,788
360,12	352,381
360,34	479,167
360,56	-27,778
360,77	2150,000
360,99	485,714
361,21	226,000
361,42	5300,000
361,64	142,857
361,86	147,692
362,07	-370,968
362,29	181,333
362,51	-423,529
362,72	540,000
362,94	350,000
363,16	225,581
363,37	-678,571
363,59	438,462
363,81	245,455
364,02	366,667
364,24	395,833
364,46	833,333
364,67	663,636
364,89	1742,857
365,11	151,429
365,32	362,069
365,54	330,556
365,76	236,735
365,97	214,706
366,19	184,483
366,41	395,455
366,62	370,370
366,84	183,721
367,05	312,245
367,27	1400,000
367,49	-446,154
367,70	723,529
367,92	190,164
368,14	293,750
368,35	-10100,000
368,57	476,000
368,79	406,897
369,00	267,391
369,22	-1287,500
369,43	178,824
369,65	190,323
369,87	286,486
370,08	113,253
370,30	232,143
370,51	214,754
370,73	217,778
370,95	182,258
371,16	164,286
371,38	346,667
371,60	1037,500
371,81	145,312
372,03	686,667
372,24	416,667
372,46	183,019
372,68	132,857
372,89	272,727
373,11	365,385
373,32	327,273
373,54	-800,000
373,76	484,615
373,97	633,333
374,19	468,182
374,40	207,812
374,62	-2233,333
374,84	4275,000
375,05	385,714
375,27	268,000
375,48	-8500,000
375,70	166,667
375,92	228,571
376,13	346,875
376,35	138,356
376,56	668,750
376,78	241,667
376,99	160,714
377,21	243,750
377,43	190,909
377,64	97,101
377,86	375,862
378,07	302,564
378,29	-1050,000
378,51	474,194
378,72	202,083
378,94	-1022,222
379,15	278,788
379,37	588,235
379,58	236,923
379,80	633,333
380,01	637,500
380,23	237,255
380,45	1200,000
380,66	3100,000
380,88	231,818
381,09	181,429
381,31	144,444
381,52	250,980
381,74	955,556
381,95	436,364
382,17	400,000
382,39	452,381
382,60	169,388
382,82	302,564
383,03	276,923
383,25	290,323
383,46	279,545
383,68	259,259
383,89	560,000
384,11	248,387
384,32	-2933,333
384,54	644,444
384,76	-2833,333
384,97	309,091
385,19	331,034
385,40	205,882
385,62	221,053
385,83	297,619
386,05	205,882
386,26	222,000
386,48	155,172
386,69	216,667
386,91	405,000
387,12	177,966
387,34	174,138
387,55	229,032
387,77	406,250
387,98	384,615
388,20	125,000
388,41	276,471
388,63	7100,000
388,84	198,361
389,06	242,857
389,27	621,053
389,49	297,222
389,70	234,694
389,92	260,000
390,13	197,959
390,35	235,294
390,56	203,704
390,78	474,074
390,99	550,000
391,21	547,368
391,42	311,111
391,64	292,683
391,85	122,414
392,07	181,818
392,28	106,667
392,50	181,818
392,71	-1012,500
392,93	207,692
393,14	272,222
393,36	163,265
393,57	127,068
393,79	844,444
394,00	257,447
394,22	163,014
394,43	121,687
394,65	293,023
394,86	1125,000
395,08	619,048
395,29	143,396
395,50	338,462
395,72	438,889
395,93	628,571
396,15	128,169
396,36	116,176
396,58	238,333
396,79	235,000
397,01	212,000
397,22	227,778
397,44	233,333
397,65	154,386
397,87	292,857
398,08	118,367
398,29	378,125
398,51	207,143
398,72	175,610
398,94	126,154
399,15	325,714
399,37	200,000
399,58	153,846
399,80	486,364
400,01	148,148
400,22	266,667
400,44	176,543
400,65	235,714
400,87	147,059
401,08	192,857
401,30	158,696
401,51	177,193
401,72	292,308
401,94	118,987
402,15	425,000
402,37	127,731
402,58	422,222
402,80	200,000
403,01	215,493
403,22	718,182
403,44	201,449
403,65	128,571
403,87	167,143
404,08	241,026
404,30	97,647
404,51	-1166,667
404,72	122,857
404,94	170,588
405,15	86,000
405,37	124,051
405,58	157,647
405,79	185,366
406,01	253,659
406,22	141,379
406,44	140,426
406,65	124,561
406,86	125,000
407,08	117,722
407,29	103,883
407,51	112,195
407,72	112,037
407,93	150,000
408,15	69,231
408,36	190,698
408,58	159,794
408,79	70,000
409,00	136,458
409,22	107,937
409,43	125,316
409,64	68,323
409,86	78,616
410,07	83,846
410,29	64,179
410,50	100,000
410,71	45,536
410,93	45,223
411,14	100,000
411,35	79,762
411,57	77,632
411,78	79,688
412,00	77,707
412,21	56,774
412,42	85,714
412,64	66,094
412,85	48,969
413,06	48,171
413,28	55,405
413,49	50,237
413,70	49,638
413,92	78,261
414,13	46,888
414,34	61,686
414,56	63,287
414,77	88,608
414,98	67,114
415,20	63,668
415,41	69,972
415,63	59,453
415,84	65,833
416,05	56,319
416,27	58,140
416,48	66,292
416,69	63,496
416,91	68,108
417,12	78,877
417,33	67,789
417,55	65,795
417,76	82,341
417,97	72,822
418,19	75,944
418,40	97,021
418,61	98,148
418,83	87,091
419,04	89,432
419,25	86,293
419,46	95,940
419,68	103,175
419,89	91,803
420,10	89,796
420,32	89,539
420,53	96,578
420,74	95,807
420,96	94,000
421,17	93,303
421,38	95,212
421,60	90,728
421,81	95,444
422,02	93,417
422,23	86,197
422,45	90,892
422,66	87,521
422,87	92,153
423,09	84,353
423,30	93,652
423,51	91,654
423,73	85,821
423,94	84,314
424,15	89,184
424,36	87,623
424,58	83,250
424,79	90,069
425,00	86,563
425,22	88,072
425,43	87,305
425,64	85,968
425,85	82,699
426,07	86,314
426,28	86,927
426,49	86,088
426,71	82,455
426,92	78,938
427,13	81,802
427,34	84,941
427,56	86,955
427,77	80,928
427,98	85,598
428,19	85,774
428,41	88,167
428,62	89,209
428,83	87,627
429,04	87,555
429,26	90,154
429,47	87,959
429,68	87,566
429,89	91,698
430,11	88,908
430,32	88,322
430,53	86,801
430,74	87,668
430,96	89,146
431,17	88,385
431,38	89,324
431,59	86,719
431,81	88,820
432,02	87,889
432,23	88,365
432,44	88,838
432,66	87,861
432,87	90,755
433,08	90,303
433,29	88,179
433,51	88,273
433,72	90,924
433,93	88,323
434,14	89,090
434,35	92,621
434,57	89,679
434,78	93,080
434,99	89,040
435,20	89,658
435,42	87,892
435,63	86,749
435,84	86,492
436,05	84,059
436,26	83,501
436,48	82,037
436,69	81,482
436,90	79,738
437,11	79,355
437,32	79,381
437,54	77,038
437,75	76,855
437,96	75,747
438,17	72,862
438,38	74,702
438,60	73,761
438,81	73,063
439,02	74,429
439,23	73,269
439,44	71,684
439,66	72,538
439,87	72,321
440,08	72,065
440,29	72,101
440,50	71,907
440,72	71,521
440,93	72,184
441,14	73,016
441,35	73,930
441,56	74,022
441,77	73,714
441,99	74,541
442,20	76,485
442,41	74,923
442,62	76,557
442,83	76,589
443,04	76,133
443,26	76,356
443,47	75,632
443,68	73,591
443,89	71,493
444,10	71,128
444,31	68,837
444,53	66,760
444,74	64,094
444,95	61,786
445,16	60,205
445,37	56,939
445,58	53,461
445,80	50,622
446,01	48,146
446,22	44,610
446,43	41,987
446,64	38,103
446,85	35,009
447,06	30,951
447,28	28,280
447,49	25,092
447,70	22,763
447,91	21,265
448,12	18,598
448,33	17,097
448,54	15,101
448,76	14,314
448,97	12,233
449,18	10,887
449,39	9,275
449,60	8,233
449,81	6,535
450,02	5,203
450,23	3,941
450,45	3,011
450,66	2,790
450,87	2,016
451,08	1,606
451,29	1,603
451,50	1,066
451,71	0,952
451,92	0,726
452,13	0,738
452,35	0,947
452,56	0,864
452,77	1,023
452,98	0,489
453,19	0,602
453,40	0,665
453,61	1,113
453,82	0,567
454,03	0,848
454,25	0,753
454,46	0,674
454,67	1,079
454,88	0,876
455,09	0,847
455,30	1,002
455,51	0,842
455,72	0,661
455,93	0,505
456,14	1,058
456,35	1,038
456,56	0,826
456,78	0,779
456,99	0,833
457,20	0,900
457,41	0,667
457,62	0,840
457,83	0,862
458,04	0,755
458,25	0,646
458,46	0,577
458,67	0,975
458,88	0,689
459,09	0,499
459,30	0,580
459,51	0,662
459,73	0,550
459,94	0,721
460,15	0,723
460,36	0,606
460,57	0,691
460,78	0,355
460,99	0,502
461,20	0,428
461,41	0,492
461,62	0,669
461,83	0,555
462,04	0,730
462,25	0,742
462,46	0,448
462,67	0,441
462,88	0,417
463,09	0,618
463,30	0,474
463,51	0,627
463,72	0,526
463,93	0,533
464,15	0,562
464,36	0,484
464,57	0,336
464,78	0,375
464,99	0,587
465,20	0,413
465,41	0,522
465,62	0,547
465,83	0,529
466,04	0,420
466,25	0,529
466,46	0,504
466,67	0,495
466,88	0,588
467,09	0,541
467,30	0,530
467,51	0,714
467,72	0,613
467,93	0,482
468,14	0,517
468,35	0,646
468,56	0,461
468,77	0,488
468,98	0,522
469,19	0,565
469,40	0,453
469,61	0,481
469,82	0,493
470,03	0,630
470,24	0,671
470,45	0,599
470,66	0,423
470,87	0,472
471,08	0,595
471,29	0,503
471,50	0,488
471,71	0,664
471,92	0,608
472,13	0,510
472,34	0,450
472,55	0,665
472,76	0,591
472,97	0,697
473,18	0,554
473,39	0,659
473,60	0,703
473,81	0,513
474,01	0,662
474,22	0,652
474,43	0,820
474,64	0,694
474,85	0,643
475,06	0,517
475,27	0,680
475,48	0,597
475,69	0,585
475,90	0,538
476,11	0,991
476,32	0,670
476,53	0,789
476,74	0,935
476,95	0,854
477,16	0,606
477,37	0,816
477,58	0,837
477,79	1,071
478,00	0,711
478,21	0,736
478,41	0,956
478,62	0,666
478,83	1,120
479,04	0,812
479,25	0,910
479,46	1,096
479,67	1,505
479,88	1,686
480,09	1,839
480,30	2,453
480,51	3,164
480,72	4,058
480,93	4,704
481,14	5,646
481,34	6,787
481,55	7,583
481,76	9,037
481,97	10,556
482,18	11,998
482,39	13,686
482,60	15,617
482,81	17,706
483,02	19,917
483,23	22,560
483,44	24,740
483,65	27,397
483,85	29,967
484,06	32,206
484,27	34,544
484,48	36,980
484,69	39,260
484,90	41,993
485,11	44,799
485,32	47,814
485,53	50,578
485,73	53,347
485,94	55,983
486,15	58,974
486,36	60,935
486,57	62,889
486,78	65,163
486,99	66,731
487,20	68,062
487,41	70,599
487,61	72,485
487,82	73,626
488,03	75,486
488,24	76,890
488,45	77,685
488,66	79,213
488,87	79,528
489,08	79,580
489,28	78,518
489,49	79,547
489,70	78,703
489,91	79,165
490,12	78,367
490,33	77,917
490,54	78,427
490,74	78,459
490,95	77,560
491,16	77,860
491,37	78,405
491,58	78,504
491,79	78,998
492,00	79,419
492,20	79,020
492,41	79,158
492,62	79,439
492,83	79,438
493,04	79,710
493,25	80,689
493,45	80,919
493,66	81,786
493,87	81,339
494,08	82,171
494,29	83,466
494,50	84,933
494,70	85,886
494,91	88,606
495,12	88,227
495,33	89,783
495,54	89,947
495,75	91,020
495,95	91,203
496,16	91,398
496,37	92,525
496,58	92,023
496,79	91,657
496,99	91,010
497,20	91,632
497,41	91,699
497,62	91,264
497,83	91,313
498,04	89,749
498,24	89,465
498,45	89,666
498,66	89,026
498,87	90,575
499,08	89,436
499,28	90,444
499,49	89,343
499,70	89,863
499,91	91,055
500,12	90,435
500,32	91,444
500,53	91,906
500,74	91,570
500,95	91,504
501,15	92,887
501,36	92,564
501,57	94,165
501,78	92,926
501,99	92,828
502,19	92,379
502,40	92,232
502,61	93,241
502,82	92,943
503,02	92,055
503,23	92,915
503,44	93,560
503,65	92,031
503,86	92,164
504,06	91,408
504,27	91,888
504,48	93,006
504,69	91,254
504,89	91,789
505,10	91,329
505,31	90,722
505,52	90,713
505,72	91,941
505,93	92,200
506,14	92,175
506,35	92,178
506,55	91,273
506,76	91,417
506,97	92,143
507,18	92,504
507,38	91,421
507,59	90,738
507,80	89,917
508,01	89,958
508,21	89,436
508,42	89,345
508,63	88,489
508,84	87,753
509,04	87,195
509,25	87,769
509,46	86,222
509,67	86,811
509,87	86,089
510,08	86,395
510,29	86,569
510,49	85,888
510,70	85,886
510,91	86,646
511,12	86,652
511,32	86,052
511,53	85,628
511,74	86,625
511,94	86,355
512,15	86,250
512,36	86,958
512,57	85,794
512,77	86,255
512,98	85,364
513,19	84,527
513,39	85,028
513,60	84,653
513,81	84,285
514,01	84,365
514,22	83,964
514,43	84,274
514,64	84,612
514,84	83,802
515,05	84,183
515,26	84,364
515,46	86,491
515,67	86,636
515,88	87,027
516,08	88,945
516,29	90,088
516,50	90,076
516,70	90,518
516,91	92,058
517,12	92,288
517,32	92,516
517,53	93,110
517,74	93,061
517,95	93,005
518,15	92,289
518,36	92,347
518,57	92,923
518,77	92,662
518,98	92,815
519,19	91,003
519,39	90,172
519,60	90,373
519,80	89,324
520,01	87,854
520,22	87,477
520,42	85,447
520,63	84,361
520,84	83,628
521,04	80,236
521,25	78,961
521,46	76,700
521,66	74,678
521,87	73,366
522,08	70,725
522,28	69,289
522,49	66,441
522,70	64,672
522,90	63,069
523,11	61,790
523,31	59,896
523,52	56,669
523,73	55,558
523,93	53,953
524,14	52,148
524,35	49,966
524,55	48,465
524,76	47,089
524,97	45,608
525,17	43,828
525,38	42,166
525,58	40,436
525,79	38,719
526,00	36,830
526,20	36,105
526,41	34,236
526,61	33,089
526,82	30,437
527,03	28,852
527,23	27,037
527,44	24,956
527,64	23,244
527,85	20,952
528,06	18,766
528,26	16,656
528,47	14,596
528,68	11,849
528,88	10,115
529,09	8,377
529,29	6,501
529,50	5,301
529,70	4,249
529,91	3,382
530,12	2,557
530,32	1,635
530,53	1,583
530,73	1,243
530,94	1,102
531,15	0,985
531,35	0,714
531,56	0,712
531,76	0,817
531,97	0,783
532,17	0,625
532,38	0,720
532,59	0,779
532,79	0,766
533,00	0,912
533,20	0,739
533,41	0,460
533,61	0,663
533,82	0,702
534,03	0,706
534,23	0,723
534,44	0,735
534,64	0,779
534,85	0,687
535,05	0,693
535,26	0,488
535,46	0,700
535,67	0,552
535,88	0,468
536,08	0,386
536,29	0,433
536,49	0,600
536,70	0,592
536,90	0,562
537,11	0,519
537,31	0,479
537,52	0,676
537,72	0,677
537,93	0,726
538,13	0,793
538,34	0,574
538,55	0,747
538,75	0,620
538,96	0,533
539,16	0,573
539,37	0,676
539,57	0,677
539,78	0,680
539,98	0,667
540,19	0,542
540,39	0,573
540,60	0,524
540,80	0,661
541,01	0,767
541,21	0,705
541,42	0,595
541,62	0,705
541,83	0,646
542,03	0,780
542,24	0,370
542,44	0,686
542,65	0,497
542,85	0,606
543,06	0,553
543,26	0,611
543,47	0,432
543,67	0,555
543,88	0,879
544,08	0,436
544,29	0,631
544,49	0,606
544,70	0,599
544,90	0,589
545,11	0,546
545,31	0,736
545,52	0,453
545,72	0,797
545,93	0,619
546,13	0,701
546,34	0,622
546,54	0,658
546,75	0,571
546,95	0,570
547,15	0,564
547,36	0,667
547,56	0,712
547,77	0,519
547,97	0,679
548,18	0,677
548,38	0,502
548,59	0,540
548,79	0,399
549,00	0,359
549,20	0,769
549,41	0,620
549,61	0,633
549,81	0,513
550,02	0,818
550,22	0,634
550,43	0,689
550,63	0,662
550,84	0,594
551,04	0,590
551,25	0,861
551,45	0,561
551,65	0,776
551,86	0,677
552,06	0,771
552,27	0,536
552,47	0,713
552,68	0,842
552,88	0,628
553,08	0,629
553,29	0,752
553,49	0,666
553,70	0,927
553,90	0,696
554,11	0,892
554,31	1,095
554,51	0,973
554,72	1,239
554,92	1,424
555,13	1,751
555,33	2,053
555,53	2,106
555,74	2,418
555,94	2,913
556,15	3,657
556,35	4,542
556,56	5,736
556,76	6,804
556,96	8,204
557,17	9,636
557,37	11,917
557,58	14,226
557,78	16,758
557,98	19,545
558,19	22,814
558,39	25,723
558,59	29,514
558,80	33,297
559,00	37,127
559,21	41,258
559,41	44,133
559,61	48,913
559,82	52,362
560,02	55,040
560,23	58,295
560,43	60,762
560,63	63,254
560,84	65,081
561,04	66,314
561,24	67,673
561,45	67,845
561,65	68,321
561,85	69,131
562,06	68,999
562,26	70,552
562,47	69,874
562,67	70,244
562,87	72,474
563,08	72,427
563,28	72,875
563,48	74,105
563,69	75,343
563,89	76,776
564,09	79,056
564,30	80,538
564,50	82,962
564,70	84,575
564,91	86,073
565,11	86,204
565,31	88,051
565,52	88,730
565,72	89,900
565,92	91,297
566,13	91,163
566,33	91,306
566,53	93,313
566,74	92,200
566,94	90,999
567,14	90,984
567,35	89,787
567,55	90,672
567,75	90,177
567,96	89,094
568,16	89,048
568,36	88,977
568,57	89,665
568,77	89,371
568,97	89,536
569,18	90,096
569,38	90,781
569,58	89,561
569,79	90,770
569,99	91,207
570,19	91,825
570,39	92,686
570,60	91,767
570,80	92,468
571,00	94,069
571,21	93,034
571,41	92,988
571,61	93,763
571,82	94,267
572,02	94,258
572,22	94,982
572,42	94,350
572,63	94,779
572,83	94,595
573,03	95,358
573,24	94,857
573,44	95,334
573,64	94,585
573,84	94,532
574,05	95,679
574,25	95,339
574,45	94,257
574,66	93,656
574,86	94,812
575,06	93,975
575,26	93,225
575,47	93,827
575,67	93,471
575,87	95,164
576,07	95,215
576,28	93,986
576,48	93,974
576,68	94,406
576,88	93,043
577,09	93,772
577,29	93,994
577,49	94,385
577,69	94,686
577,90	93,878
578,10	92,661
578,30	93,504
578,50	93,590
578,71	93,721
578,91	94,500
579,11	94,777
579,31	94,448
579,52	95,348
579,72	93,055
579,92	93,587
580,12	93,929
580,33	94,796
580,53	94,489
580,73	93,929
580,93	93,882
581,13	95,118
581,34	95,586
581,54	94,783
581,74	94,879
581,94	95,119
582,15	93,646
582,35	94,016
582,55	93,149
582,75	93,128
582,95	93,046
583,16	91,618
583,36	92,352
583,56	90,449
583,76	90,424
583,96	89,357
584,17	88,940
584,37	89,290
584,57	87,223
584,77	88,165
584,97	87,264
585,18	86,836
585,38	85,869
585,58	84,904
585,78	84,280
585,98	84,711
586,19	84,179
586,39	84,430
586,59	84,456
586,79	84,580
586,99	83,699
587,20	83,057
587,40	83,095
587,60	81,802
587,80	82,020
588,00	79,749
588,20	78,889
588,41	79,496
588,61	77,066
588,81	76,116
589,01	74,838
589,21	73,317
589,41	71,857
589,62	70,664
589,82	69,936
590,02	67,749
590,22	67,954
590,42	66,665
590,62	64,982
590,83	63,646
591,03	62,848
591,23	61,363
591,43	59,861
591,63	58,360
591,83	56,622
592,03	54,967
592,24	53,964
592,44	52,704
592,64	50,697
592,84	49,322
593,04	47,658
593,24	46,160
593,44	44,849
593,65	44,504
593,85	43,651
594,05	42,527
594,25	41,790
594,45	41,412
594,65	41,170
594,85	40,713
595,06	40,563
595,26	40,338
595,46	39,519
595,66	38,503
595,86	38,487
596,06	37,381
596,26	37,201
596,46	35,477
596,66	34,456
596,87	32,759
597,07	31,199
597,27	29,152
597,47	27,386
597,67	25,461
597,87	23,590
598,07	21,187
598,27	19,349
598,47	17,680
598,67	15,718
598,88	14,144
599,08	12,573
599,28	11,034
599,48	9,650
599,68	8,217
599,88	6,668
600,08	5,679
600,28	4,615
600,48	3,799
600,68	2,977
600,88	2,455
601,09	1,845
601,29	1,547
601,49	1,416
601,69	1,221
601,89	0,877
602,09	0,925
602,29	0,829
602,49	0,694
602,69	0,615
602,89	0,672
603,09	0,588
603,29	0,447
603,49	0,574
603,69	0,660
603,90	0,666
604,10	0,478
604,30	0,570
604,50	0,506
604,70	0,564
604,90	0,571
605,10	0,413
605,30	0,428
605,50	0,388
605,70	0,508
605,90	0,466
606,10	0,464
606,30	0,470
606,50	0,638
606,70	0,372
606,90	0,459
607,10	0,463
607,30	0,206
607,50	0,322
607,70	0,561
607,90	0,335
608,10	0,416
608,30	0,331
608,50	0,524
608,70	0,452
608,90	0,433
609,11	0,568
609,31	0,567
609,51	0,612
609,71	0,571
609,91	0,483
610,11	0,346
610,31	0,443
610,51	0,554
610,71	0,269
610,91	0,275
611,11	0,513
611,31	0,436
611,51	0,424
611,71	0,335
611,91	0,467
612,11	0,365
612,31	0,355
612,51	0,469
612,71	0,404
612,91	0,465
613,11	0,396
613,31	0,566
613,51	0,442
613,71	0,452
613,91	0,392
614,11	0,307
614,31	0,444
614,50	0,585
614,70	0,578
614,90	0,475
615,10	0,458
615,30	0,408
615,50	0,223
615,70	0,379
615,90	0,456
616,10	0,473
616,30	0,356
616,50	0,580
616,70	0,417
616,90	0,429
617,10	0,379
617,30	0,555
617,50	0,467
617,70	0,433
617,90	0,478
618,10	0,396
618,30	0,426
618,50	0,548
618,70	0,528
618,90	0,336
619,10	0,402
619,30	0,486
619,49	0,293
619,69	0,481
619,89	0,398
620,09	0,361
620,29	0,565
620,49	0,537
620,69	0,381
620,89	0,449
621,09	0,378
621,29	0,510
621,49	0,300
621,69	0,420
621,89	0,419
622,09	0,351
622,29	0,390
622,48	0,390
622,68	0,347
622,88	0,356
623,08	0,389
623,28	0,404
623,48	0,384
623,68	0,355
623,88	0,415
624,08	0,551
624,28	0,309
624,48	0,467
624,67	0,275
624,87	0,442
625,07	0,403
625,27	0,390
625,47	0,338
625,67	0,330
625,87	0,348
626,07	0,445
626,27	0,303
626,47	0,420
626,66	0,573
626,86	0,386
627,06	0,434
627,26	0,534
627,46	0,398
627,66	0,363
627,86	0,354
628,06	0,371
628,25	0,449
628,45	0,474
628,65	0,420
628,85	0,519
629,05	0,525
629,25	0,487
629,45	0,418
629,65	0,475
629,84	0,609
630,04	0,532
630,24	0,770
630,44	0,742
630,64	0,876
630,84	1,011
631,04	1,343
631,23	1,320
631,43	1,852
631,63	2,086
631,83	2,408
632,03	2,874
632,23	3,665
632,42	4,102
632,62	5,085
632,82	6,053
633,02	6,804
633,22	8,516
633,42	10,018
633,62	11,444
633,81	13,213
634,01	15,204
634,21	17,659
634,41	19,846
634,61	22,155
634,80	24,507
635,00	26,774
635,20	29,600
635,40	32,534
635,60	35,287
635,80	37,669
635,99	40,576
636,19	42,411
636,39	45,618
636,59	47,345
636,79	49,486
636,98	51,632
637,18	52,993
637,38	55,221
637,58	57,187
637,78	57,442
637,97	59,423
638,17	60,813
638,37	61,989
638,57	62,604
638,77	64,604
638,96	65,548
639,16	65,739
639,36	66,717
639,56	68,299
639,76	69,929
639,95	70,768
640,15	71,724
640,35	72,280
640,55	74,287
640,75	74,540
640,94	77,276
641,14	78,379
641,34	79,192
641,54	80,877
641,73	82,317
641,93	83,718
642,13	85,530
642,33	87,292
642,53	88,020
642,72	88,541
642,92	89,187
643,12	90,247
643,32	92,554
643,51	94,545
643,71	93,900
643,91	95,063
644,11	95,094
644,30	94,046
644,50	96,384
644,70	96,527
644,90	95,967
645,09	97,682
645,29	95,902
645,49	96,843
645,69	95,342
645,88	96,303
646,08	97,850
646,28	97,007
646,48	96,716
646,67	96,729
646,87	96,647
647,07	97,611
647,26	96,431
647,46	97,143
647,66	96,824
647,86	96,913
648,05	95,841
648,25	96,462
648,45	95,624
648,65	95,181
648,84	96,066
649,04	95,976
649,24	94,903
649,43	93,869
649,63	94,843
649,83	93,731
650,03	93,469
650,22	94,171
650,42	93,392
650,62	93,730
650,81	94,547
651,01	92,758
651,21	92,084
651,40	93,100
651,60	93,532
651,80	93,690
652,00	92,985
652,19	90,670
652,39	93,697
652,59	92,645
652,78	92,149
652,98	92,864
653,18	92,152
653,37	92,848
653,57	90,372
653,77	89,901
653,96	90,399
654,16	88,249
654,36	89,812
654,55	88,316
654,75	85,740
654,95	85,897
655,14	85,039
655,34	85,438
655,54	82,514
655,73	81,368
655,93	81,824
656,13	79,808
656,32	79,273
656,52	78,912
656,72	77,331
656,91	77,063
657,11	75,325
657,31	74,122
657,50	73,505
657,70	73,248
657,90	72,073
658,09	70,325
658,29	70,711
658,49	67,958
658,68	67,805
658,88	66,985
659,07	65,741
659,27	64,752
659,47	63,007
659,66	61,537
659,86	61,473
660,06	60,600
660,25	58,878
660,45	58,201
660,64	56,725
660,84	55,056
661,04	54,421
661,23	55,043
661,43	52,865
661,63	53,632
661,82	52,478
662,02	52,812
662,21	51,031
662,41	51,089
662,61	51,386
662,80	50,630
663,00	51,341
663,19	50,786
663,39	50,004
663,59	49,730
663,78	47,777
663,98	48,208
664,17	45,604
664,37	45,463
664,57	42,584
664,76	41,696
664,96	39,118
665,15	36,957
665,35	34,955
665,55	32,954
665,74	30,813
665,94	29,335
666,13	27,470
666,33	24,989
666,53	25,169
666,72	22,792
666,92	21,612
667,11	20,802
667,31	20,759
667,50	20,465
667,70	19,664
667,90	19,864
668,09	19,849
668,29	19,871
668,48	20,054
668,68	19,628
668,87	19,845
669,07	20,016
669,26	19,877
669,46	20,031
669,66	19,269
669,85	18,696
670,05	18,460
670,24	18,366
670,44	17,289
670,63	17,017
670,83	16,440
671,02	16,097
671,22	15,312
671,42	13,917
671,61	13,881
671,81	12,940
672,00	13,064
672,20	12,469
672,39	11,915
672,59	11,807
672,78	11,448
672,98	10,998
673,17	10,456
673,37	9,760
673,56	8,843
673,76	7,921
673,95	6,756
674,15	6,075
674,34	5,819
674,54	4,870
674,73	4,050
674,93	3,578
675,13	2,622
675,32	2,794
675,52	2,806
675,71	1,747
675,91	1,560
676,10	1,035
676,30	0,876
676,49	0,842
676,69	0,981
676,88	1,329
677,08	0,720
677,27	0,536
677,47	0,597
677,66	0,753
677,86	0,590
678,05	0,687
678,24	0,520
678,44	0,525
678,63	0,356
678,83	0,523
679,02	0,764
679,22	0,417
679,41	0,429
679,61	0,277
679,80	0,281
680,00	0,595
680,19	0,398
680,39	0,568
680,58	0,544
680,78	0,381
680,97	0,505
681,17	0,424
681,36	0,514
681,56	0,643
681,75	0,522
681,94	0,362
682,14	0,599
682,33	0,574
682,53	0,598
682,72	0,611
682,92	0,750
683,11	0,596
683,31	0,303
683,50	0,390
683,69	0,468
683,89	0,385
684,08	0,195
684,28	0,282
684,47	0,384
684,67	0,313
684,86	0,211
685,06	0,324
685,25	0,225
685,44	0,425
685,64	0,345
685,83	0,355
686,03	-0,039
686,22	0,245
686,42	0,248
686,61	0,353
686,80	0,333
687,00	0,490
687,19	0,544
687,39	0,096
687,58	0,009
687,77	0,218
687,97	0,275
688,16	0,081
688,36	0,101
688,55	0,318
688,74	0,405
688,94	0,228
689,13	0,372
689,33	0,384
689,52	0,295
689,71	0,464
689,91	0,299
690,10	0,379
690,30	0,182
690,49	0,292
690,68	0,352
690,88	0,398
691,07	0,358
691,27	0,346
691,46	0,178
691,65	0,270
691,85	0,282
692,04	0,315
692,23	0,236
692,43	0,126
692,62	0,259
692,82	0,206
693,01	0,142
693,20	0,428
693,40	0,236
693,59	0,434
693,78	0,230
693,98	0,228
694,17	0,197
694,36	0,479
694,56	0,357
694,75	0,190
694,94	0,429
695,14	0,450
695,33	0,204
695,53	0,277
695,72	0,355
695,91	0,349
696,11	0,362
696,30	0,409
696,49	0,176
696,69	0,378
696,88	0,288
697,07	0,089
697,27	0,220
697,46	0,451
697,65	0,352
697,85	0,269
698,04	0,339
698,23	0,556
698,43	0,726
698,62	0,091
698,81	0,187
699,01	0,774
699,20	0,366
699,39	0,514
699,58	0,502
699,78	0,746
699,97	0,294
700,16	0,682
700,36	0,512
700,55	1,012
700,74	0,628
700,94	0,765
701,13	0,630
701,32	0,822
701,52	0,872
701,71	0,607
701,90	0,978
702,09	0,806
702,29	1,053
702,48	0,822
702,67	0,803
702,87	0,942
703,06	1,342
703,25	1,214
703,44	0,572
703,64	1,436
703,83	1,551
704,02	1,208
704,22	0,346
704,41	1,134
704,60	2,221
704,79	0,334
704,99	1,213
705,18	1,269
705,37	1,704
705,56	1,627
705,76	1,501
705,95	1,088
706,14	1,645
706,33	2,476
706,53	1,427
706,72	1,227
706,91	1,603
707,11	2,350
707,30	2,764
707,49	2,324
707,68	1,737
707,88	1,970
708,07	1,231
708,26	2,607
708,45	1,658
708,64	2,228
708,84	2,190
709,03	1,786
709,22	0,632
709,41	2,278
709,61	1,865
709,80	2,258
709,99	2,256
710,18	2,740
710,38	2,423
710,57	0,858
710,76	1,535
710,95	2,191
711,14	3,883
711,34	2,760
711,53	2,050
711,72	2,810
711,91	2,176
712,11	4,022
712,30	4,475
712,49	4,071
712,68	4,676
712,87	4,447
713,07	3,828
713,26	1,116
713,45	4,280
713,64	3,029
713,83	2,369
714,03	5,181
714,22	3,813
714,41	3,893
714,60	4,041
714,79	2,753
714,99	2,362
715,18	1,744
715,37	4,051
715,56	3,806
715,75	3,713
715,94	4,280
716,14	4,682
716,33	5,981
716,52	2,859
716,71	4,469
716,90	4,476
717,10	5,117
717,29	4,457
717,48	5,913
717,67	3,844
717,86	3,956
718,05	1,499
718,24	4,554
718,44	6,023
718,63	3,774
718,82	7,872
719,01	2,932
719,20	2,101
719,39	5,774
719,59	1,958
719,78	3,857
719,97	4,393
720,16	5,483
720,35	4,775
720,54	4,020
720,73	2,144
720,93	7,312
721,12	2,952
721,31	6,466
721,50	3,709
721,69	5,214
721,88	8,597
722,07	3,823
722,27	3,659
722,46	3,228
722,65	4,252
722,84	2,904
723,03	7,106
723,22	7,965
723,41	6,234
723,60	8,855
723,79	5,762
723,99	5,584
724,18	9,758
724,37	4,852
724,56	6,066
724,75	6,952
724,94	9,677
725,13	12,370
725,32	4,943
725,51	9,227
725,71	1,894
725,90	8,169
726,09	7,907
726,28	7,083
726,47	7,715
726,66	5,023
726,85	5,020
727,04	5,192
727,23	9,145
727,42	12,390
727,61	5,926
727,81	8,342
728,00	14,721
728,19	8,352
728,38	4,320
728,57	7,652
728,76	11,691
728,95	8,259
729,14	5,096
729,33	14,160
729,52	8,549
729,71	7,003
729,90	5,281
730,09	5,607
730,28	11,085
730,48	8,701
730,67	11,125
730,86	5,721
731,05	10,748
731,24	6,365
731,43	6,415
731,62	11,404
731,81	9,784
732,00	7,624
732,19	-0,511
732,38	5,105
732,57	8,311
732,76	9,286
732,95	6,933
733,14	2,341
733,33	13,462
733,52	13,317
733,71	9,323
733,90	14,267
734,09	9,238
734,28	13,241
734,47	9,737
734,66	10,041
734,85	8,227
735,04	9,128
735,23	17,460
735,42	11,239
735,61	14,400
735,81	16,828
736,00	14,157
736,19	17,604
736,38	4,444
736,57	12,674
736,76	6,047
736,95	14,848
737,14	13,678
737,33	17,496
737,52	9,351
737,71	8,013
737,90	14,523
738,09	15,644
738,28	15,470
738,47	13,725
738,66	14,219
738,85	7,560
739,04	14,431
739,22	7,939
739,41	16,290
739,60	9,365
739,79	4,281
739,98	5,263
740,17	11,224
740,36	11,250
740,55	12,875
740,74	13,913
740,93	20,325
741,12	13,419
741,31	10,294
741,50	7,156
741,69	10,185
741,88	8,200
742,07	15,343
742,26	10,861
742,45	14,229
742,64	24,640
742,83	1,915
743,02	12,432
743,21	13,078
743,40	13,052
743,59	15,164
743,78	18,559
743,97	19,549
744,16	11,308
744,34	17,913
744,53	12,090
744,72	25,780
744,91	6,947
745,10	10,148
745,29	16,076
745,48	14,677
745,67	19,756
745,86	2,582
746,05	24,658
746,24	17,647
746,43	22,222
746,62	4,378
746,81	22,146
747,00	16,075
747,18	20,000
747,37	13,220
747,56	12,360
747,75	17,068
747,94	27,352
748,13	21,689
748,32	22,863
748,51	20,316
748,70	29,017
748,89	18,599
749,08	3,714
749,26	13,365
749,45	27,529
749,64	20,099
749,83	18,830
750,02	18,785
750,21	17,595
750,40	14,323
750,59	22,877
750,78	24,556
750,96	12,570
751,15	8,743
751,34	28,272
751,53	30,542
751,72	23,181
751,91	6,301
752,10	4,630
752,29	19,492
752,47	18,820
752,66	17,183
752,85	13,932
753,04	11,041
753,23	2,318
753,42	31,003
753,61	26,471
753,80	20,867
753,98	10,877
754,17	21,779
754,36	33,051
754,55	8,777
754,74	22,254
754,93	21,614
755,12	23,733
755,30	19,391
755,49	38,226
755,68	27,378
755,87	22,222
756,06	22,626
756,25	23,810
756,43	25,517
756,62	28,190
756,81	10,231
757,00	30,145
757,19	35,959
757,38	21,136
757,56	33,548
757,75	16,993
757,94	22,397
758,13	13,961
758,32	32,955
758,51	28,309
758,69	15,600
758,88	36,637
759,07	30,108
759,26	12,093
759,45	22,707
759,63	24,907
759,82	19,529
760,01	21,739
760,20	25,681
760,39	23,507
760,57	33,058
760,76	8,559
760,95	26,852
761,14	22,857
761,33	33,750
761,51	26,882
761,70	36,897
761,89	25,000
762,08	24,651
762,27	34,066
762,45	28,016
762,64	28,938
762,83	34,513
763,02	6,977
763,21	25,862
763,39	26,939
763,58	33,585
763,77	35,907
763,96	49,799
764,14	44,583
764,33	27,473
764,52	38,627
764,71	28,700
764,89	19,118
765,08	40,948
765,27	37,918
765,46	16,848
765,65	24,017
765,83	28,139
766,02	19,149
766,21	19,337
766,40	39,048
766,58	38,618
766,77	41,791
766,96	43,636
767,15	43,961
767,33	37,427
767,52	35,976
767,71	32,174
767,90	42,697
768,08	25,681
768,27	38,500
768,46	35,547
768,64	47,668
768,83	35,417
769,02	48,500
769,21	18,341
769,39	33,721
769,58	30,636
769,77	44,444
769,96	53,927
770,14	11,565
770,33	46,729
770,52	15,344
770,70	50,667
770,89	53,020
771,08	38,983
771,27	52,577
771,45	39,035
771,64	45,313
771,83	59,346
772,01	30,723
772,20	64,824
772,39	43,333
772,57	32,558
772,76	19,259
772,95	61,702
773,14	52,688
773,32	34,194
773,51	55,224
773,70	61,250
773,88	71,038
774,07	40,838
774,26	2,837
774,44	30,488
774,63	65,482
774,82	45,122
775,00	37,333
775,19	33,600
775,38	64,740
775,56	56,771
775,75	41,566
775,94	44,304
776,12	46,409
776,31	40,000
776,50	61,932
776,68	61,053
776,87	41,477
777,06	44,828
777,24	62,778
777,43	47,436
777,62	46,324
777,80	68,919
777,99	45,714
778,18	46,040
778,36	79,200
778,55	63,636
778,74	53,472
778,92	46,746
779,11	62,500
779,29	59,119
779,48	37,415
779,67	33,333
779,85	67,480
780,04	49,730
780,23	35,971
780,41	56,250
780,60	40,526
780,79	60,452
780,97	45,395
781,16	36,970
781,34	38,144
781,53	53,846
781,72	31,387
781,90	46,875
782,09	58,710
782,28	86,861
782,46	59,259
782,65	41,429
782,83	48,315
783,02	23,750
783,21	84,000
783,39	75,652
783,58	66,272
783,76	45,251
783,95	28,485
784,14	66,887
784,32	86,577
784,51	58,621
784,69	77,119
784,88	106,306
785,06	39,496
785,25	77,070
785,44	82,734
785,62	57,143
785,81	85,915
785,99	70,504
786,18	56,757
786,37	42,963
786,55	50,459
786,74	44,737
786,92	66,406
787,11	90,000
787,29	60,448
787,48	38,667
787,67	65,060
787,85	71,552
788,04	55,446
788,22	51,639
788,41	109,412
788,59	84,404
788,78	80,606
788,96	94,340
789,15	84,211
789,34	56,364
789,52	28,319
789,71	66,667
789,89	114,894
790,08	63,014
790,26	50,000
790,45	71,212
790,63	44,444
790,82	67,879
791,00	51,389
791,19	81,720
791,38	71,528
791,56	66,667
791,75	83,486
791,93	64,368
792,12	58,580
792,30	80,000
792,49	63,866
792,67	72,388
792,86	45,736
793,04	94,393
793,23	50,000
793,41	78,481
793,60	86,869
793,78	95,614
793,97	121,795
794,15	60,000
794,34	71,429
794,52	58,442
794,71	83,951
794,89	65,556
795,08	68,932
795,26	81,667
795,45	108,955
795,63	113,636
795,82	87,850
796,00	82,569
796,19	80,000
796,37	83,942
796,56	118,280
796,74	44,248
796,93	79,775
797,11	81,013
797,30	62,500
797,48	63,448
797,67	99,167
797,85	61,224
798,04	75,000
798,22	75,397
798,41	81,373
798,59	60,000
798,77	76,923
798,96	100,000
799,14	105,172
799,33	78,626
799,51	53,077
799,70	55,034
799,88	106,061
800,07	58,553
800,25	51,724
800,44	89,899
800,62	69,412
800,80	107,246
800,99	100,000
801,17	59,483
801,36	72,414
801,54	91,667
801,73	58,586
801,91	74,590
802,10	73,810
802,28	80,374
802,46	64,198
802,65	85,057
802,83	89,888
803,02	53,684
803,20	71,875
803,39	8,621
803,57	101,205
803,75	81,757
803,94	71,429
804,12	46,667
804,31	73,451
804,49	55,769
804,67	64,800
804,86	33,036
805,04	77,703
805,23	77,931
805,41	72,951
805,59	56,557
805,78	48,485
805,96	76,282
806,15	84,375
806,33	79,832
806,51	65,487
806,70	63,333
806,88	56,098
807,07	56,349
807,25	64,780
807,43	74,172
807,62	62,602
807,80	116,129
807,99	80,159
808,17	63,121
808,35	71,930
808,54	61,290
808,72	62,400
808,90	42,105
809,09	85,833
809,27	68,468
809,46	108,036
809,64	48,039
809,82	39,080
810,01	80,303
810,19	72,000
810,37	67,692
810,56	98,780
810,74	72,185
810,92	80,303
811,11	58,824
811,29	62,411
811,48	92,929
811,66	72,868
811,84	62,385
812,03	37,273
812,21	12,821
812,39	80,508
812,58	54,902
812,76	81,308
812,94	98,000
813,13	64,286
813,31	41,667
813,49	103,261
813,68	80,000
813,86	69,388
814,04	101,942
814,23	76,768
814,41	67,647
814,59	53,672
814,78	58,088
814,96	60,360
815,14	97,778
815,33	57,246
815,51	42,222
815,69	48,148
815,87	86,957
816,06	49,375
816,24	62,252
816,42	50,000
816,61	56,780
816,79	69,880
816,97	87,387
817,16	52,903
817,34	80,000
817,52	69,655
817,70	89,683
817,89	33,058
818,07	88,793
818,25	72,072
818,44	62,209
818,62	43,966
818,80	74,126
818,98	78,095
819,17	61,538
819,35	67,647
819,53	32,673
819,72	67,442
819,90	46,707
820,08	67,532
820,26	95,614
820,45	91,566
820,63	67,187
820,81	73,826
820,99	39,850
821,18	35,556
821,36	67,619
821,54	49,419
821,73	50,811
821,91	44,681
822,09	52,941
822,27	53,807
822,46	51,875
822,64	42,384
822,82	44,390
823,00	62,162
823,19	19,697
823,37	58,571
823,55	62,941
823,73	80,000
823,91	40,331
824,10	54,749
824,28	66,667
824,46	55,814
824,64	55,392
824,83	3,252
825,01	60,870
825,19	52,000
825,37	58,854
825,56	43,125
825,74	54,286
825,92	53,371
826,10	70,807
826,28	59,060
826,47	3,252
826,65	50,676
826,83	32,796
827,01	56,061
827,19	55,063
827,38	46,632
827,56	61,058
827,74	48,374
827,92	67,805
828,10	52,174
828,29	55,238
828,47	48,684
828,65	43,243
828,83	45,455
829,01	44,000
829,20	49,367
829,38	29,876
829,56	41,700
829,74	85,606
829,92	27,835
830,10	58,559
830,29	33,514
830,47	69,792
830,65	33,929
830,83	42,857
831,01	35,000
831,20	33,168
831,38	48,293
831,56	44,130
831,74	30,286
831,92	54,545
832,10	57,273
832,29	44,550
832,47	34,513
832,65	47,234
832,83	50,233
833,01	33,202
833,19	36,652
833,37	45,185
833,56	35,681
833,74	46,154
833,92	31,416
834,10	51,269
834,28	40,769
834,46	41,522
834,64	46,094
834,83	33,106
835,01	53,307
835,19	26,066
835,37	35,857
835,55	38,267
835,73	37,500
835,91	38,996
836,09	14,938
836,28	46,183
836,46	46,667
836,64	46,311
836,82	26,866
837,00	37,755
837,18	47,431
837,36	56,150
837,54	14,015
837,72	21,912
837,91	30,924
838,09	31,200
838,27	25,275
838,45	40,453
838,63	22,034
838,81	38,487
838,99	35,540
839,17	44,013
839,35	16,667
839,53	36,913
839,72	7,203
839,90	20,061
840,08	28,526
840,26	29,338
840,44	19,136
840,62	34,680
840,80	40,741
840,98	25,982
841,16	23,843
841,34	20,000
841,52	27,476
841,70	25,589
841,89	35,161
842,07	26,486
842,25	22,727
842,43	30,645
842,61	24,665
842,79	26,220
842,97	11,280
843,15	32,951
843,33	20,903
843,51	23,389
843,69	22,500
843,87	33,693
844,05	29,919
844,23	28,378
844,41	21,357
844,59	22,443
844,77	21,614
844,95	24,515
845,13	28,142
845,31	30,447
845,50	26,289
845,68	20,984
845,86	25,708
846,04	20,000
846,22	22,673
846,40	2,625
846,58	10,724
846,76	17,706
846,94	15,865
847,12	13,981
847,30	26,959
847,48	23,261
847,66	17,805
847,84	8,629
848,02	23,077
848,20	21,634
848,38	19,118
848,56	28,387
848,74	21,901
848,92	17,745
849,10	23,214
849,28	19,172
849,46	13,084
849,64	15,714
849,82	14,183
850,00	18,070
850,18	19,400
850,36	19,518
850,54	25,336
850,72	23,493
850,90	20,681
851,08	3,704
851,26	21,255
851,44	21,687
851,62	21,854
851,80	9,543
851,98	24,691
852,16	29,835
852,34	19,165
852,52	13,519
852,70	13,454
852,87	16,762
853,05	16,433
853,23	12,941
853,41	10,020
853,59	13,962
853,77	16,865
853,95	14,619
854,13	15,728
854,31	16,579
854,49	12,224
854,67	21,241
854,85	21,217
855,03	14,559
855,21	12,521
855,39	17,785
855,57	19,203
855,75	14,840
855,93	13,781
856,11	26,316
856,28	14,757
856,46	14,216
856,64	16,990
856,82	4,188
857,00	15,052
857,18	16,588
857,36	7,731
857,54	14,358
857,72	13,189
857,90	12,356
858,08	10,340
858,26	13,303
858,44	9,783
858,61	15,251
858,79	11,008
858,97	15,043
859,15	10,807
859,33	7,055
859,51	10,064
859,69	13,244
859,87	13,763
860,05	13,808
860,23	5,909
860,40	11,982
860,58	5,172
860,76	12,994
860,94	9,924
861,12	12,181
861,30	15,869
861,48	9,773
861,66	15,156
861,84	19,832
862,01	14,439
862,19	13,957
862,37	10,933
862,55	8,078
862,73	7,201
862,91	13,709
863,09	14,174
863,27	5,989
863,44	9,669
863,62	7,994
863,80	7,169
863,98	5,364
864,16	10,111
864,34	7,792
864,52	13,098
864,69	15,542
864,87	12,515
865,05	11,326
865,23	10,266
865,41	12,634
865,59	8,776
865,76	14,341
865,94	13,279
866,12	10,419
866,30	6,135
866,48	8,978
866,66	14,859
866,83	6,018
867,01	11,976
867,19	10,862
867,37	8,643
867,55	12,184
867,73	10,820
867,90	12,923
868,08	7,843
868,26	2,965
868,44	5,687
868,62	9,300
868,79	7,035
868,97	9,808
869,15	10,403
869,33	8,820
869,51	9,342
869,69	8,551
869,86	9,538
870,04	10,794
870,22	6,972
870,40	8,182
870,57	10,900
870,75	10,249
870,93	8,741
871,11	3,764
871,29	3,354
871,46	4,935
871,64	8,803
871,82	6,732
872,00	10,188
872,18	11,894
872,35	13,369
872,53	13,894
872,71	6,930
872,89	9,639
873,06	7,934
873,24	5,423
873,42	7,437
873,60	3,398
873,77	7,562
873,95	8,010
874,13	8,318
874,31	5,882
874,49	7,759
874,66	7,474
874,84	2,487
875,02	6,998
875,20	7,521
875,37	7,325
875,55	4,996
875,73	4,142
875,91	6,875
876,08	5,653
876,26	6,578
876,44	3,594
876,61	7,328
876,79	8,411
876,97	7,148
877,15	9,924
877,32	4,488
877,50	7,105
877,68	5,815
877,86	6,918
878,03	6,677
878,21	3,392
878,39	6,667
878,56	7,227
878,74	2,169
878,92	3,783
879,10	5,547
879,27	5,895
879,45	7,368
879,63	4,284
879,80	4,827
879,98	5,409
880,16	5,642
880,34	2,228
880,51	7,841
880,69	5,464
880,87	2,474
881,04	3,095
881,22	6,719
881,40	0,418
881,57	3,804
881,75	4,911
881,93	4,915
882,10	4,484
882,28	5,165
882,46	3,794
882,63	6,156
882,81	5,345
882,99	5,109
883,16	7,067
883,34	3,689
883,52	3,157
883,69	5,615
883,87	5,161
884,05	3,073
884,22	2,754
884,40	3,478
884,58	4,190
884,75	5,362
884,93	4,555
885,11	2,938
885,28	4,379
885,46	2,119
885,64	4,084
885,81	5,640
885,99	4,957
886,17	2,735
886,34	3,723
886,52	3,729
886,70	3,642
886,87	5,800
887,05	5,030
887,22	3,127
887,40	3,801
887,58	3,930
887,75	5,683
887,93	5,412
888,11	0,198
888,28	2,229
888,46	1,681
888,63	5,532
888,81	2,902
888,99	1,896
889,16	2,520
889,34	4,352
889,51	3,525
889,69	2,257
889,87	3,618
890,04	2,377
890,22	3,774
890,39	1,504
890,57	4,161
890,75	3,420
890,92	3,121
891,10	5,124
891,27	2,643
891,45	3,458
891,63	5,160
891,80	3,483
891,98	4,483
892,15	3,130
892,33	2,558
892,51	3,910
892,68	2,721
892,86	2,184
893,03	4,276
893,21	4,574
893,38	3,162
893,56	2,783
893,74	4,142
893,91	1,853
894,09	2,326
894,26	4,075
894,44	2,185
894,61	3,190
894,79	3,367
894,96	4,954
895,14	2,926
895,32	2,716
895,49	3,140
895,67	2,219
895,84	4,088
896,02	1,632
896,19	2,481
896,37	3,853
896,54	2,577
896,72	3,795
896,89	2,840
897,07	3,189
897,25	3,866
897,42	2,138
897,60	4,222
897,77	5,283
897,95	4,518
898,12	2,088
898,30	1,968
898,47	2,551
898,65	2,154
898,82	2,883
899,00	3,245
899,17	2,920
899,35	3,327
899,52	3,673
899,70	1,556
899,87	1,988
900,05	4,150
900,22	2,371
900,40	2,145
900,57	3,472
900,75	-0,381
900,92	2,467
901,10	2,242
901,27	2,026
901,45	3,469
901,62	2,689
901,80	3,674
901,97	2,858
902,15	3,995
902,32	2,420
902,50	2,359
902,67	2,747
902,85	3,610
903,02	3,612
903,20	2,409
903,37	4,007
903,54	2,332
903,72	1,185
903,89	2,439
904,07	2,902
904,24	3,671
904,42	2,599
904,59	1,248
904,77	2,824
904,94	2,791
905,12	1,583
905,29	3,352
905,47	2,182
905,64	3,613
905,81	3,637
905,99	2,418
906,16	1,879
906,34	2,476
906,51	3,559
906,69	1,304
906,86	2,161
907,03	2,566
907,21	1,924
907,38	1,321
907,56	2,079
907,73	3,491
907,91	4,227
908,08	3,204
908,25	0,549
908,43	2,282
908,60	1,952
908,78	3,517
908,95	2,427
909,13	3,043
909,30	0,760
909,47	2,703
909,65	3,763
909,82	2,940
910,00	2,129
910,17	1,357
910,34	2,684
910,52	1,447
910,69	3,568
910,87	2,689
911,04	2,344
911,21	3,188
911,39	2,509
911,56	1,485
911,73	2,136
911,91	3,608
912,08	2,674
912,26	2,512
912,43	2,763
912,60	2,689
912,78	3,444
912,95	2,929
913,13	2,436
913,30	2,022
913,47	2,736
913,65	0,506
913,82	0,690
913,99	1,471
914,17	2,297
914,34	3,040
914,51	3,111
914,69	2,446
914,86	2,775
915,03	2,884
915,21	2,608
915,38	1,451
915,56	2,144
915,73	1,959
915,90	2,776
916,08	1,959
916,25	2,018
916,42	1,498
916,60	2,789
916,77	1,703
916,94	1,391
917,12	3,724
917,29	1,590
917,46	1,860
917,64	1,834
917,81	2,401
917,98	1,451
918,16	1,553
918,33	2,087
918,50	1,854
918,67	2,263
918,85	2,036
919,02	2,516
919,19	3,188
919,37	1,062
919,54	2,675
919,71	1,748
919,89	1,305
920,06	0,773
920,23	1,497
920,41	1,498
920,58	3,010
920,75	1,912
920,92	1,295
921,10	1,232
921,27	0,160
921,44	2,630
921,62	0,289
921,79	2,471
921,96	1,394
922,13	1,858
922,31	2,023
922,48	2,213
922,65	1,533
922,82	1,072
923,00	2,704
923,17	0,684
923,34	1,550
923,52	1,869
923,69	1,059
923,86	1,959
924,03	1,586
924,21	1,544
924,38	1,740
924,55	3,128
924,72	1,745
924,90	1,347
925,07	1,428
925,24	2,377
925,41	1,579
925,59	0,921
925,76	0,565
925,93	1,184
926,10	2,388
926,28	1,122
926,45	1,286
926,62	1,351
926,79	1,433
926,96	2,114
927,14	2,311
927,31	2,236
927,48	2,809
927,65	1,264
927,83	0,745
928,00	1,291
928,17	1,687
928,34	1,132
928,51	2,134
928,69	1,620
928,86	1,653
929,03	2,984
929,20	1,216
929,37	1,482
929,55	0,919
929,72	1,229
929,89	1,361
930,06	1,451
930,23	1,181
930,41	0,804
930,58	1,508
930,75	2,024
930,92	1,094
931,09	1,949
931,27	1,134
931,44	0,623
931,61	1,542
931,78	1,748
931,95	1,743
932,12	2,090
932,30	1,384
932,47	2,413
932,64	2,010
932,81	0,848
932,98	0,655
933,16	1,493
933,33	1,250
933,50	1,403
933,67	2,010
933,84	1,306
934,01	0,972
934,18	1,098
934,36	1,188
934,53	0,997
934,70	1,695
934,87	1,681
935,04	2,019
935,21	0,535
935,38	1,580
935,56	0,775
935,73	0,836
935,90	0,423
936,07	1,531
936,24	2,216
936,41	1,162
936,58	0,423
936,76	2,248
936,93	0,387
937,10	1,750
937,27	1,411
937,44	0,840
937,61	1,849
937,78	0,927
937,95	0,280
938,13	0,692
938,30	1,577
938,47	2,137
938,64	2,114
938,81	1,464
938,98	0,903
939,15	1,075
939,32	1,273
939,49	2,108
939,66	2,202
939,84	1,989
940,01	1,554
940,18	1,237
940,35	1,111
940,52	0,750
940,69	2,073
940,86	0,620
941,03	1,512
941,20	2,132
941,37	1,774
941,54	0,296
941,71	0,396
941,89	2,237
942,06	0,993
942,23	1,640
942,40	1,253
942,57	2,676
942,74	1,891
942,91	0,827
943,08	2,540
943,25	0,996
943,42	1,955
943,59	1,696
943,76	2,910
943,93	1,386
944,10	1,864
944,27	1,728
944,44	1,682
944,61	1,100
944,79	0,873
944,96	2,937
945,13	1,301
945,30	0,799
945,47	2,571
945,64	2,215
945,81	3,367
945,98	2,861
946,15	2,450
946,32	2,590
946,49	2,761
946,66	2,389
946,83	2,630
947,00	2,978
947,17	2,263
947,34	3,061
947,51	3,008
947,68	3,029
947,85	1,530
948,02	2,722
948,19	4,041
948,36	2,414
948,53	4,090
948,70	3,922
948,87	4,110
949,04	2,652
949,21	2,899
949,38	4,314
949,55	2,120
949,72	4,397
949,89	3,748
950,06	2,620
950,23	4,344
950,40	3,659
950,57	1,762
950,74	4,732
950,91	4,194
951,08	3,458
951,25	5,082
951,42	5,099
951,59	3,474
951,76	4,377
951,93	3,647
952,10	4,567
952,27	1,355
952,44	3,712
952,61	4,744
952,77	3,366
952,94	5,546
953,11	5,088
953,28	5,770
953,45	5,644
953,62	4,241
953,79	4,065
953,96	5,992
954,13	3,932
954,30	5,903
954,47	5,249
954,64	8,302
954,81	5,506
954,98	6,417
955,15	5,925
955,32	5,420
955,49	4,146
955,65	7,850
955,82	7,036
955,99	6,684
956,16	7,884
956,33	7,810
956,50	8,798
956,67	10,014
956,84	9,259
957,01	6,162
957,18	8,618
957,35	7,764
957,52	5,453
957,68	10,833
957,85	9,702
958,02	5,254
958,19	9,661
958,36	15,160
958,53	7,373
958,70	7,059
958,87	9,100
959,04	10,766
959,21	8,283
959,37	11,039
959,54	14,443
959,71	11,979
959,88	7,684
960,05	15,894
960,22	5,325
960,39	14,133
960,56	5,190
960,72	8,783
960,89	15,082
961,06	15,669
961,23	15,138
961,40	11,111
961,57	13,980
961,74	11,392
961,90	15,625
962,07	12,938
962,24	15,935
962,41	8,878
962,58	19,105
962,75	16,991
962,92	20,374
963,08	18,727
963,25	15,495
963,42	6,039
963,59	25,000
963,76	23,596
963,93	13,730
964,10	12,420
964,26	25,439
964,43	19,380
964,60	20,984
964,77	17,108
964,94	17,330
965,10	30,060
965,27	29,504
965,44	24,935
965,61	26,446
965,78	16,933
965,95	25,449
966,11	25,387
966,28	19,703
966,45	38,006
966,62	28,615
966,79	39,184
966,95	31,940
967,12	19,558
967,29	18,750
967,46	35,606
967,63	43,019
967,79	34,685
967,96	35,498
968,13	33,000
968,30	25,403
968,47	32,990
968,63	49,550
968,80	57,339
968,97	42,788
969,14	52,907
969,31	37,778
969,47	18,235
969,64	51,010
969,81	18,653
969,98	50,000
970,14	50,920
970,31	50,314
970,48	39,167
970,65	57,396
970,81	56,849
970,98	59,854
971,15	107,143
971,32	45,313
971,48	76,190
971,65	55,385
971,82	75,490
971,99	109,195
972,15	64,789
972,32	107,207
972,49	74,126
972,66	121,818
972,82	84,884
972,99	58,537
973,16	77,011
973,33	61,607
973,49	41,053
973,66	115,054
973,83	89,320
974,00	161,628
974,16	93,137
974,33	108,772
974,50	85,263
974,67	118,947
974,83	77,381
975,00	118,947
975,17	73,626
975,33	122,472
975,50	98,507
975,67	161,224
975,84	143,284
976,00	102,247
976,17	126,230
976,34	70,000
976,50	146,067
976,67	80,583
976,84	933,333
977,00	83,673
977,17	182,222
977,34	116,484
977,50	61,194
977,67	173,214
977,84	143,548
978,01	208,511
978,17	333,333
978,34	208,333
978,51	164,706
978,67	82,895
978,84	84,375
979,01	175,676
979,17	84,615
979,34	114,384
979,51	202,041
979,67	123,457
979,84	220,408
980,01	213,333
980,17	188,732
980,34	300,000
980,51	115,942
980,67	121,176
980,84	326,667
981,01	480,000
981,17	484,000
981,34	633,333
981,50	117,647
981,67	196,610
981,84	3000,000
982,00	326,667
982,17	207,143
982,34	111,111
982,50	726,667
982,67	135,417
982,84	2340,000
983,00	816,667
983,17	183,582
983,33	150,000
983,50	1380,000
983,67	-255,172
983,83	266,667
984,00	-985,714
984,17	444,444
984,33	-4450,000
984,50	260,000
984,66	245,652
984,83	145,455
985,00	-337,500
985,16	410,345
985,33	511,765
985,49	450,000
985,66	173,529
985,83	226,087
985,99	217,949
986,16	-2000,000
986,32	314,286
986,49	8200,000
986,66	184,848
986,82	666,667
986,99	205,660
987,15	-305,263
987,32	-296,429
987,49	198,000
987,65	4500,000
987,82	395,833
987,98	228,571
988,15	163,333
988,31	720,000
988,48	-1233,333
988,65	261,905
988,81	236,111
988,98	326,829
989,14	285,714
989,31	423,810
989,47	191,176
989,64	-469,231
989,80	687,500
989,97	289,189
990,14	-182,609
990,30	-386,364
990,47	302,041
990,63	200,000
990,80	166,000
990,96	-215,000
991,13	281,250
991,29	355,172
991,46	0,000
991,62	-561,538
991,79	575,000
991,95	6400,000
992,12	-1090,000
992,29	-393,750
992,45	160,000
992,62	265,116
992,78	270,455
992,95	-433,333
993,11	364,286
993,28	740,000
993,44	-690,000
993,61	-318,750
993,77	-1975,000
993,94	-5666,667
994,10	-52,000
994,27	594,737
994,43	313,953
994,60	0,000
994,76	1925,000
994,93	520,000
995,09	-794,118
995,26	1033,333
995,42	254,902
995,59	609,524
995,75	607,692
995,92	2085,714
996,08	272,222
996,25	-712,500
996,41	-3250,000
996,58	393,333
996,74	170,455
996,91	334,483
997,07	0,000
997,23	7900,000
997,40	-13000,000
997,56	-684,615
997,73	-1250,000
997,89	302,632
998,06	530,769
998,22	-300,000
998,39	508,000
998,55	911,111
998,72	-1075,000
998,88	-186,667
999,05	-85,897
999,21	197,619
999,37	-153,333
999,54	-908,333
999,70	-250,000
999,87	637,500
1000,03	325,641
1000,20	293,750
1000,36	0,000
1000,52	420,833
1000,69	-376,190
1000,85	-760,000
1001,02	-466,667
1001,18	1025,000
1001,35	592,308
1001,51	688,235
1001,67	-584,615
1001,84	-1960,000
1002,00	218,919
1002,17	663,636
1002,33	-2325,000
1002,50	347,619
1002,66	-323,077
1002,82	197,500
1002,99	728,571
1003,15	-1400,000
1003,32	-745,455
1003,48	264,286
1003,64	793,333
1003,81	292,593
1003,97	-3450,000
1004,14	563,636
1004,30	203,333
1004,46	-446,667
1004,63	678,571
1004,79	352,778
1004,95	473,333
1005,12	3000,000
1005,28	410,345
1005,45	259,459
1005,61	382,759
1005,77	-181,250
1005,94	-376,190
1006,10	-3400,000
1006,26	915,385
1006,43	-215,385
1006,59	-890,909
1006,76	485,714
1006,92	966,667
1007,08	8200,000
1007,25	-270,370
1007,41	289,655
1007,57	2950,000
1007,74	690,000
1007,90	-355,172
1008,06	176,087
1008,23	647,059
1008,39	-368,750
1008,55	-261,538
1008,72	-1200,000
1008,88	0,000
1009,04	268,293
1009,21	-168,421
1009,37	-600,000
1009,53	188,095
1009,70	1466,667
1009,86	-614,286
1010,02	2666,667
1010,19	481,818
1010,35	189,706
1010,51	-5350,000
1010,68	-1062,500
1010,84	-113,636
1011,00	625,000
1011,17	-127,273
1011,33	0,000
1011,49	-553,333
1011,66	707,143
1011,82	383,871
1011,98	528,571
1012,14	-427,273
1012,31	200,000
1012,47	0,000
1012,63	1133,333
1012,80	685,714
1012,96	-606,250
1013,12	-1500,000
1013,29	566,667
1013,45	253,659
1013,61	3333,333
1013,77	-110,714
1013,94	2520,000
1014,10	167,797
1014,26	-2375,000
1014,43	-228,000
1014,59	260,000
1014,75	-333,333
1014,91	-286,667
1015,08	275,000
1015,24	8100,000
1015,40	364,706
1015,56	-6900,000
1015,73	233,333
1015,89	463,636
1016,05	2575,000
1016,21	-950,000
1016,38	631,579
1016,54	753,846
1016,70	-3633,333
1016,86	268,750
1017,03	1050,000
1017,19	-592,308
1017,35	-576,471
1017,51	-1700,000
1017,68	-590,000
1017,84	-1385,714
1018,00	173,810
1018,16	265,385
1018,33	-971,429
1018,49	-683,333
1018,65	-162,162
1018,81	338,462
1018,97	-1371,429
1019,14	-1766,667
1019,30	-251,282
1019,46	0,000
1019,62	-241,176
1019,79	-2766,667
1019,95	950,000
1020,11	6550,000
1020,27	-248,148
1020,43	-311,538
1020,60	1416,667
1020,76	450,000
1020,92	786,667
1021,08	655,000
1021,24	960,000
1021,41	1066,667
1021,57	1425,000
1021,73	738,462
1021,89	2380,000
1022,05	-228,571
1022,21	670,000
1022,38	-600,000
1022,54	-1750,000
1022,70	293,333
1022,86	-1000,000
1023,02	466,667
1023,19	1760,000
1023,35	2633,333
1023,51	450,000
1023,67	355,556
1023,83	-506,250
1023,99	142,105
1024,16	-419,231
1024,32	-966,667
1024,48	-510,000
1024,64	226,190
1024,80	408,696
1024,96	333,333
1025,12	457,143
1025,29	314,286
1025,45	252,632
1025,61	616,667
1025,77	-1720,000
1025,93	-1300,000
1026,09	-1314,286
1026,26	650,000
1026,42	387,500
1026,58	357,576
1026,74	1133,333
1026,90	376,000
1027,06	285,714
1027,22	900,000
1027,38	209,615
1027,55	3266,667
1027,71	1266,667
1027,87	-172,000
1028,03	700,000
1028,19	390,625
1028,35	615,000
1028,51	1000,000
1028,67	766,667
1028,83	-2175,000
1029,00	-123,810
1029,16	880,000
1029,32	-189,286
1029,48	208,889
1029,64	225,000
1029,80	4150,000
1029,96	580,000
1030,12	382,609
1030,28	-1800,000
1030,44	-723,077
1030,61	-341,667
1030,77	-140,000
1030,93	-793,333
1031,09	983,333
1031,25	-8100,000
1031,41	-173,333
1031,57	323,077
1031,73	650,000
1031,89	-1036,364
1032,05	-337,037
1032,21	718,182
1032,37	-118,519
1032,53	-771,429
1032,69	-241,667
1032,86	255,556
1033,02	-105,000
1033,18	-556,250
1033,34	415,789
1033,50	-4700,000
1033,66	-160,976
1033,82	465,217
1033,98	-259,259
1034,14	143,590
1034,30	351,613
1034,46	-2533,333
1034,62	575,000
1034,78	-376,190
1034,94	236,842
1035,10	-407,692
1035,26	-186,047
1035,42	-293,103
1035,58	-488,889
1035,74	800,000
1035,90	-715,385
1036,06	-1550,000
1036,22	1583,333
1036,38	-535,294
1036,54	-229,167
1036,70	-78,788
1036,86	6300,000
1037,02	411,111
1037,18	673,684
1037,34	109,524
1037,50	-163,415
1037,66	-235,294
1037,82	2240,000
1037,98	-537,037
1038,14	-340,000
1038,30	-1000,000
1038,46	-242,857
1038,62	417,391
1038,78	-2300,000
1038,94	-357,895
1039,10	463,636
1039,26	296,296
1039,42	-350,000
1039,58	1085,714
1039,74	-263,158
1039,90	315,625
1040,06	-150,000
>>>>>End Processed Spectral Data<<<<<
