SpectraSuite Data File
++++++++++++++++++++++++++++++++++++
Date: Wed Feb 01 15:39:51 EET 2017
User: optolab
Dark Spectrum Present: Yes
Reference Spectrum Present: Yes
Number of Sampled Component Spectra: 1
Spectrometers: USB4C02475
Integration Time (usec): 100000 (USB4C02475)
Spectra Averaged: 1 (USB4C02475)
Boxcar Smoothing: 0 (USB4C02475)
Correct for Electrical Dark: No (USB4C02475)
Strobe/Lamp Enabled: No (USB4C02475)
Correct for Detector Non-linearity: No (USB4C02475)
Correct for Stray Light: No (USB4C02475)
Number of Pixels in Processed Spectrum: 3648
>>>>>Begin Processed Spectral Data<<<<<
344,91	2600,000
345,13	2600,000
345,35	2600,000
345,57	0,000
345,79	326,316
346,00	-1233,333
346,22	-1385,714
346,44	208,824
346,66	-258,333
346,87	-9500,000
347,09	421,212
347,31	-300,000
347,53	-302,564
347,74	166,154
347,96	400,000
348,18	621,053
348,40	303,226
348,61	923,529
348,83	252,381
349,05	176,471
349,27	-2000,000
349,48	457,692
349,70	-282,759
349,92	322,581
350,14	194,340
350,35	256,000
350,57	2475,000
350,79	360,000
351,01	-880,952
351,22	264,815
351,44	430,769
351,66	-168,000
351,87	-400,000
352,09	190,385
352,31	237,705
352,53	198,438
352,74	302,778
352,96	206,494
353,18	515,789
353,40	380,000
353,61	246,667
353,83	255,882
354,05	709,091
354,26	1516,667
354,48	182,000
354,70	284,848
354,92	-313,793
355,13	179,798
355,35	288,636
355,57	412,500
355,78	200,000
356,00	-2475,000
356,22	338,462
356,44	4350,000
356,65	329,545
356,87	288,462
357,09	462,500
357,30	308,889
357,52	231,034
357,74	625,000
357,95	251,282
358,17	177,049
358,39	187,097
358,60	389,189
358,82	275,000
359,04	437,037
359,26	374,286
359,47	8200,000
359,69	215,000
359,91	333,333
360,12	290,476
360,34	429,167
360,56	-62,963
360,77	2725,000
360,99	495,238
361,21	222,000
361,42	3450,000
361,64	167,347
361,86	181,538
362,07	-422,581
362,29	162,667
362,51	-388,235
362,72	264,000
362,94	308,824
363,16	216,279
363,37	-614,286
363,59	326,923
363,81	270,455
364,02	561,111
364,24	633,333
364,46	2833,333
364,67	1036,364
364,89	1542,857
365,11	180,000
365,32	372,414
365,54	252,778
365,76	212,245
365,97	302,941
366,19	170,690
366,41	495,455
366,62	288,889
366,84	202,326
367,05	271,429
367,27	1316,667
367,49	-492,308
367,70	464,706
367,92	149,180
368,14	208,333
368,35	-9300,000
368,57	504,000
368,79	306,897
369,00	250,000
369,22	-1262,500
369,43	187,059
369,65	198,387
369,87	362,162
370,08	189,157
370,30	271,429
370,51	177,049
370,73	235,556
370,95	153,226
371,16	216,667
371,38	330,000
371,60	1087,500
371,81	154,688
372,03	693,333
372,24	370,000
372,46	100,000
372,68	120,000
372,89	406,061
373,11	323,077
373,32	261,364
373,54	-738,462
373,76	707,692
373,97	646,667
374,19	481,818
374,40	284,375
374,62	-2400,000
374,84	3925,000
375,05	389,286
375,27	252,000
375,48	-5700,000
375,70	128,000
375,92	214,286
376,13	215,625
376,35	165,753
376,56	856,250
376,78	193,056
376,99	300,000
377,21	208,333
377,43	196,970
377,64	156,522
377,86	382,759
378,07	276,923
378,29	-1487,500
378,51	383,871
378,72	177,083
378,94	-1011,111
379,15	172,727
379,37	617,647
379,58	215,385
379,80	620,000
380,01	487,500
380,23	174,510
380,45	1360,000
380,66	3300,000
380,88	225,000
381,09	177,143
381,31	167,778
381,52	227,451
381,74	1166,667
381,95	495,455
382,17	300,000
382,39	280,952
382,60	200,000
382,82	238,462
383,03	275,000
383,25	393,548
383,46	218,182
383,68	492,593
383,89	425,000
384,11	251,613
384,32	-2100,000
384,54	505,556
384,76	-3900,000
384,97	321,212
385,19	400,000
385,40	186,275
385,62	171,930
385,83	221,429
386,05	231,373
386,26	212,000
386,48	205,747
386,69	220,833
386,91	390,000
387,12	161,017
387,34	167,241
387,55	203,226
387,77	459,375
387,98	423,077
388,20	143,478
388,41	126,471
388,63	8400,000
388,84	126,230
389,06	269,048
389,27	678,947
389,49	358,333
389,70	183,673
389,92	283,333
390,13	236,735
390,35	303,922
390,56	227,778
390,78	374,074
390,99	820,000
391,21	231,579
391,42	228,889
391,64	270,732
391,85	158,621
392,07	250,000
392,28	72,000
392,50	233,333
392,71	-762,500
392,93	223,077
393,14	311,111
393,36	279,592
393,57	92,481
393,79	1011,111
394,00	219,149
394,22	106,849
394,43	193,976
394,65	274,419
394,86	862,500
395,08	480,952
395,29	141,509
395,50	-7,692
395,72	427,778
395,93	690,476
396,15	149,296
396,36	207,353
396,58	131,667
396,79	207,500
397,01	246,000
397,22	266,667
397,44	128,788
397,65	185,965
397,87	280,952
398,08	171,429
398,29	325,000
398,51	180,357
398,72	219,512
398,94	155,385
399,15	291,429
399,37	115,789
399,58	135,165
399,80	463,636
400,01	101,852
400,22	333,333
400,44	130,864
400,65	342,857
400,87	202,941
401,08	157,143
401,30	256,522
401,51	149,123
401,72	373,077
401,94	193,671
402,15	175,000
402,37	107,563
402,58	416,667
402,80	285,714
403,01	197,183
403,22	890,909
403,44	153,623
403,65	137,500
403,87	194,286
404,08	330,769
404,30	156,471
404,51	-1233,333
404,72	101,429
404,94	73,529
405,15	164,000
405,37	134,177
405,58	124,706
405,79	147,561
406,01	263,415
406,22	189,655
406,44	174,468
406,65	212,281
406,86	108,333
407,08	110,127
407,29	110,680
407,51	119,512
407,72	120,370
407,93	114,130
408,15	61,538
408,36	118,605
408,58	101,031
408,79	74,167
409,00	139,583
409,22	150,794
409,43	124,051
409,64	60,248
409,86	76,730
410,07	108,462
410,29	62,687
410,50	95,035
410,71	109,821
410,93	80,892
411,14	140,310
411,35	83,333
411,57	78,947
411,78	111,719
412,00	103,822
412,21	100,645
412,42	62,434
412,64	72,961
412,85	74,227
413,06	85,976
413,28	62,613
413,49	90,047
413,70	78,623
413,92	63,241
414,13	65,975
414,34	65,900
414,56	58,741
414,77	92,827
414,98	68,121
415,20	73,010
415,41	79,320
415,63	79,104
415,84	77,500
416,05	91,209
416,27	84,496
416,48	96,067
416,69	87,389
416,91	100,000
417,12	101,337
417,33	93,053
417,55	90,141
417,76	102,875
417,97	83,402
418,19	85,487
418,40	104,681
418,61	92,593
418,83	86,545
419,04	75,710
419,25	87,539
419,46	87,669
419,68	84,762
419,89	83,756
420,10	80,272
420,32	85,679
420,53	83,650
420,74	82,465
420,96	88,375
421,17	84,065
421,38	82,481
421,60	81,015
421,81	80,866
422,02	82,968
422,23	75,869
422,45	80,865
422,66	75,293
422,87	83,522
423,09	77,284
423,30	83,594
423,51	81,732
423,73	82,671
423,94	78,221
424,15	78,027
424,36	86,006
424,58	79,438
424,79	83,198
425,00	82,291
425,22	84,096
425,43	80,846
425,64	82,581
425,85	79,761
426,07	81,804
426,28	83,428
426,49	81,154
426,71	78,333
426,92	81,858
427,13	77,758
427,34	81,599
427,56	84,202
427,77	76,209
427,98	79,382
428,19	80,401
428,41	78,890
428,62	81,412
428,83	81,864
429,04	83,035
429,26	82,809
429,47	83,872
429,68	81,256
429,89	84,122
430,11	81,571
430,32	81,368
430,53	80,473
430,74	82,774
430,96	80,736
431,17	79,128
431,38	77,173
431,59	74,027
431,81	74,599
432,02	71,230
432,23	69,896
432,44	69,003
432,66	68,346
432,87	66,617
433,08	64,182
433,29	62,796
433,51	62,169
433,72	60,694
433,93	58,019
434,14	57,951
434,35	59,271
434,57	58,473
434,78	59,069
434,99	58,328
435,20	58,680
435,42	59,323
435,63	58,772
435,84	60,701
436,05	60,530
436,26	61,078
436,48	60,935
436,69	62,977
436,90	63,442
437,11	65,159
437,32	66,513
437,54	66,423
437,75	66,847
437,96	66,448
438,17	65,021
438,38	67,140
438,60	64,683
438,81	62,461
439,02	62,308
439,23	60,331
439,44	57,397
439,66	56,086
439,87	53,549
440,08	50,513
440,29	47,441
440,50	45,682
440,72	42,654
440,93	40,240
441,14	37,603
441,35	35,144
441,56	31,811
441,77	29,419
441,99	26,881
442,20	24,559
442,41	21,436
442,62	19,540
442,83	17,708
443,04	16,346
443,26	14,767
443,47	14,345
443,68	12,830
443,89	11,389
444,10	10,496
444,31	9,765
444,53	8,532
444,74	7,783
444,95	6,800
445,16	6,285
445,37	5,359
445,58	4,362
445,80	3,845
446,01	2,990
446,22	2,390
446,43	2,181
446,64	1,338
446,85	1,126
447,06	1,082
447,28	0,886
447,49	0,653
447,70	0,899
447,91	0,806
448,12	0,591
448,33	0,902
448,54	0,563
448,76	0,896
448,97	0,718
449,18	0,762
449,39	0,595
449,60	0,619
449,81	0,941
450,02	0,778
450,23	0,670
450,45	0,666
450,66	0,688
450,87	0,650
451,08	0,569
451,29	0,902
451,50	0,666
451,71	0,774
451,92	0,803
452,13	0,488
452,35	0,817
452,56	0,698
452,77	0,892
452,98	0,724
453,19	0,462
453,40	0,536
453,61	0,785
453,82	0,450
454,03	0,716
454,25	1,015
454,46	0,774
454,67	0,868
454,88	0,705
455,09	0,708
455,30	0,911
455,51	0,979
455,72	0,674
455,93	0,588
456,14	0,875
456,35	0,975
456,56	0,795
456,78	0,962
456,99	0,925
457,20	0,689
457,41	0,433
457,62	0,788
457,83	0,654
458,04	0,587
458,25	0,707
458,46	0,451
458,67	0,791
458,88	0,906
459,09	0,578
459,30	0,684
459,51	0,754
459,73	0,591
459,94	0,862
460,15	0,771
460,36	0,713
460,57	0,627
460,78	0,360
460,99	0,571
461,20	0,459
461,41	0,383
461,62	0,522
461,83	0,637
462,04	0,605
462,25	0,686
462,46	0,629
462,67	0,363
462,88	0,553
463,09	0,651
463,30	0,441
463,51	0,453
463,72	0,598
463,93	0,576
464,15	0,550
464,36	0,357
464,57	0,386
464,78	0,539
464,99	0,641
465,20	0,409
465,41	0,507
465,62	0,461
465,83	0,467
466,04	0,509
466,25	0,493
466,46	0,442
466,67	0,410
466,88	0,570
467,09	0,515
467,30	0,382
467,51	0,604
467,72	0,447
467,93	0,538
468,14	0,513
468,35	0,335
468,56	0,541
468,77	0,574
468,98	0,654
469,19	0,568
469,40	0,602
469,61	0,642
469,82	0,361
470,03	0,566
470,24	0,754
470,45	0,499
470,66	0,454
470,87	0,692
471,08	0,549
471,29	0,594
471,50	0,794
471,71	0,534
471,92	0,803
472,13	0,738
472,34	0,755
472,55	0,844
472,76	0,768
472,97	0,853
473,18	0,722
473,39	1,008
473,60	1,021
473,81	1,018
474,01	1,237
474,22	1,552
474,43	2,072
474,64	2,535
474,85	2,754
475,06	3,601
475,27	4,366
475,48	5,400
475,69	6,184
475,90	7,057
476,11	8,154
476,32	9,153
476,53	10,071
476,74	11,505
476,95	13,039
477,16	14,215
477,37	15,905
477,58	17,843
477,79	19,551
478,00	21,891
478,21	24,175
478,41	26,226
478,62	28,073
478,83	29,999
479,04	32,741
479,25	34,492
479,46	36,775
479,67	39,093
479,88	41,959
480,09	44,363
480,30	47,077
480,51	49,896
480,72	52,551
480,93	55,109
481,14	56,990
481,34	59,009
481,55	60,499
481,76	61,414
481,97	62,932
482,18	63,713
482,39	65,309
482,60	65,982
482,81	67,134
483,02	67,613
483,23	69,320
483,44	69,929
483,65	70,834
483,85	70,985
484,06	70,916
484,27	69,383
484,48	68,653
484,69	67,671
484,90	66,886
485,11	66,255
485,32	65,794
485,53	65,232
485,73	65,933
485,94	66,161
486,15	66,078
486,36	67,034
486,57	66,663
486,78	67,693
486,99	67,869
487,20	68,468
487,41	68,858
487,61	69,971
487,82	70,678
488,03	72,043
488,24	73,391
488,45	74,481
488,66	75,188
488,87	77,017
489,08	78,543
489,28	80,625
489,49	82,374
489,70	82,688
489,91	83,937
490,12	85,820
490,33	85,724
490,54	86,213
490,74	87,443
490,95	86,334
491,16	86,584
491,37	86,146
491,58	85,273
491,79	85,423
492,00	85,461
492,20	84,007
492,41	84,223
492,62	82,766
492,83	83,115
493,04	83,042
493,25	83,317
493,45	83,591
493,66	82,811
493,87	83,253
494,08	83,047
494,29	83,666
494,50	84,079
494,70	84,478
494,91	86,154
495,12	85,291
495,33	86,825
495,54	85,706
495,75	86,752
495,95	86,978
496,16	88,908
496,37	89,055
496,58	88,947
496,79	88,942
496,99	90,136
497,20	90,283
497,41	90,478
497,62	90,097
497,83	90,680
498,04	89,429
498,24	88,955
498,45	88,932
498,66	88,509
498,87	88,808
499,08	88,271
499,28	89,204
499,49	88,236
499,70	88,090
499,91	87,693
500,12	87,226
500,32	86,805
500,53	87,881
500,74	87,072
500,95	86,934
501,15	87,029
501,36	87,465
501,57	87,307
501,78	86,452
501,99	86,392
502,19	86,148
502,40	85,126
502,61	85,028
502,82	84,859
503,02	84,044
503,23	83,450
503,44	82,670
503,65	81,115
503,86	80,868
504,06	80,389
504,27	80,565
504,48	80,367
504,69	80,066
504,89	80,392
505,10	79,147
505,31	79,349
505,52	78,972
505,72	78,714
505,93	79,070
506,14	79,644
506,35	79,734
506,55	79,058
506,76	78,323
506,97	78,822
507,18	77,761
507,38	78,282
507,59	76,831
507,80	77,379
508,01	76,527
508,21	76,607
508,42	76,920
508,63	77,689
508,84	77,832
509,04	78,085
509,25	79,550
509,46	80,447
509,67	80,302
509,87	82,058
510,08	82,200
510,29	83,312
510,49	85,041
510,70	86,108
510,91	86,444
511,12	86,835
511,32	88,539
511,53	88,899
511,74	88,937
511,94	88,548
512,15	89,013
512,36	89,295
512,57	88,562
512,77	88,764
512,98	87,810
513,19	87,028
513,39	85,540
513,60	83,840
513,81	83,606
514,01	82,010
514,22	81,413
514,43	78,768
514,64	76,511
514,84	74,533
515,05	72,461
515,26	70,051
515,46	68,834
515,67	65,780
515,88	64,505
516,08	62,455
516,29	60,193
516,50	57,256
516,70	55,627
516,91	54,366
517,12	51,891
517,32	50,951
517,53	49,168
517,74	47,687
517,95	45,272
518,15	44,371
518,36	43,041
518,57	41,728
518,77	40,829
518,98	39,452
519,19	37,807
519,39	36,855
519,60	35,142
519,80	34,105
520,01	33,092
520,22	31,359
520,42	30,292
520,63	28,800
520,84	27,446
521,04	26,753
521,25	24,861
521,46	23,480
521,66	22,147
521,87	20,416
522,08	18,999
522,28	17,770
522,49	15,330
522,70	13,910
522,90	11,938
523,11	10,051
523,31	9,032
523,52	7,306
523,73	5,934
523,93	4,961
524,14	3,881
524,35	3,054
524,55	2,503
524,76	1,808
524,97	1,577
525,17	1,195
525,38	1,032
525,58	0,971
525,79	0,821
526,00	0,718
526,20	0,674
526,41	0,581
526,61	0,661
526,82	0,633
527,03	0,642
527,23	0,581
527,44	0,664
527,64	0,578
527,85	0,575
528,06	0,791
528,26	0,734
528,47	0,577
528,68	0,810
528,88	0,874
529,09	0,611
529,29	0,721
529,50	0,508
529,70	0,703
529,91	0,650
530,12	0,546
530,32	0,554
530,53	0,616
530,73	0,660
530,94	0,618
531,15	0,592
531,35	0,504
531,56	0,443
531,76	0,538
531,97	0,537
532,17	0,477
532,38	0,573
532,59	0,628
532,79	0,721
533,00	0,700
533,20	0,675
533,41	0,596
533,61	0,578
533,82	0,507
534,03	0,528
534,23	0,706
534,44	0,542
534,64	0,522
534,85	0,520
535,05	0,578
535,26	0,525
535,46	0,790
535,67	0,618
535,88	0,406
536,08	0,642
536,29	0,391
536,49	0,726
536,70	0,596
536,90	0,546
537,11	0,596
537,31	0,471
537,52	0,583
537,72	0,791
537,93	0,698
538,13	0,685
538,34	0,558
538,55	0,633
538,75	0,535
538,96	0,717
539,16	0,536
539,37	0,619
539,57	0,498
539,78	0,688
539,98	0,542
540,19	0,719
540,39	0,747
540,60	0,568
540,80	0,584
541,01	0,553
541,21	0,680
541,42	0,691
541,62	0,565
541,83	0,682
542,03	0,707
542,24	0,370
542,44	0,730
542,65	0,497
542,85	0,746
543,06	0,553
543,26	0,571
543,47	0,436
543,67	0,799
543,88	0,883
544,08	0,480
544,29	0,675
544,49	0,830
544,70	0,619
544,90	0,673
545,11	0,575
545,31	0,756
545,52	0,651
545,72	0,912
545,93	0,512
546,13	0,860
546,34	0,674
546,54	0,705
546,75	0,776
546,95	0,801
547,15	0,806
547,36	0,810
547,56	1,101
547,77	1,132
547,97	1,247
548,18	1,438
548,38	1,610
548,59	1,795
548,79	2,155
549,00	2,326
549,20	2,908
549,41	3,464
549,61	4,025
549,81	4,873
550,02	6,016
550,22	6,697
550,43	8,062
550,63	9,483
550,84	11,251
551,04	13,252
551,25	15,604
551,45	17,146
551,65	19,716
551,86	22,345
552,06	25,457
552,27	28,152
552,47	31,241
552,68	34,208
552,88	36,186
553,08	39,640
553,29	42,661
553,49	44,786
553,70	47,440
553,90	50,464
554,11	52,834
554,31	54,050
554,51	56,206
554,72	57,177
554,92	58,431
555,13	59,051
555,33	60,944
555,53	62,168
555,74	61,368
555,94	62,142
556,15	63,714
556,35	64,867
556,56	66,220
556,76	67,375
556,96	68,956
557,17	70,127
557,37	72,436
557,58	73,807
557,78	75,578
557,98	77,063
558,19	79,105
558,39	80,641
558,59	82,354
558,80	83,668
559,00	84,610
559,21	85,940
559,41	86,060
559,61	86,312
559,82	87,058
560,02	87,021
560,23	86,804
560,43	86,334
560,63	85,513
560,84	85,301
561,04	85,646
561,24	84,085
561,45	84,421
561,65	84,079
561,85	83,573
562,06	83,064
562,26	83,618
562,47	83,193
562,67	83,431
562,87	85,389
563,08	84,132
563,28	83,838
563,48	84,692
563,69	84,736
563,89	86,012
564,09	87,163
564,30	87,409
564,50	87,804
564,70	89,034
564,91	88,575
565,11	89,392
565,31	89,618
565,52	90,213
565,72	90,817
565,92	91,443
566,13	91,067
566,33	91,396
566,53	92,450
566,74	92,555
566,94	91,748
567,14	91,756
567,35	91,553
567,55	91,364
567,75	92,676
567,96	91,605
568,16	92,461
568,36	92,295
568,57	92,892
568,77	92,619
568,97	92,957
569,18	93,169
569,38	94,132
569,58	92,059
569,79	93,148
569,99	94,040
570,19	93,072
570,39	94,077
570,60	93,005
570,80	93,504
571,00	95,030
571,21	93,108
571,41	93,906
571,61	93,016
571,82	93,975
572,02	93,477
572,22	92,860
572,42	93,048
572,63	92,749
572,83	92,985
573,03	92,808
573,24	92,311
573,44	92,416
573,64	92,096
573,84	92,183
574,05	92,456
574,25	91,594
574,45	90,031
574,66	89,556
574,86	90,397
575,06	88,361
575,26	87,912
575,47	86,745
575,67	85,920
575,87	85,663
576,07	85,479
576,28	83,695
576,48	82,407
576,68	81,190
576,88	80,429
577,09	79,920
577,29	79,298
577,49	79,365
577,69	78,797
577,90	78,556
578,10	78,375
578,30	77,201
578,50	78,690
578,71	77,731
578,91	77,751
579,11	78,463
579,31	77,771
579,52	77,885
579,72	76,562
579,92	75,224
580,12	75,108
580,33	74,566
580,53	73,340
580,73	71,752
580,93	70,411
581,13	69,032
581,34	68,057
581,54	65,171
581,74	63,226
581,94	62,164
582,15	60,582
582,35	58,609
582,55	57,110
582,75	55,911
582,95	54,519
583,16	53,162
583,36	52,603
583,56	51,179
583,76	49,995
583,96	49,368
584,17	48,379
584,37	47,013
584,57	45,637
584,77	45,072
584,97	44,004
585,18	42,707
585,38	41,286
585,58	39,656
585,78	38,891
585,98	37,897
586,19	36,865
586,39	36,205
586,59	35,926
586,79	34,556
586,99	34,668
587,20	34,245
587,40	34,105
587,60	34,421
587,80	34,002
588,00	33,367
588,20	33,822
588,41	34,339
588,61	33,891
588,81	33,706
589,01	33,403
589,21	32,629
589,41	32,545
589,62	31,511
589,82	31,034
590,02	29,060
590,22	28,592
590,42	27,318
590,62	25,597
590,83	23,768
591,03	21,970
591,23	20,041
591,43	19,072
591,63	16,949
591,83	15,278
592,03	13,848
592,24	12,643
592,44	11,251
592,64	9,550
592,84	8,563
593,04	7,487
593,24	6,241
593,44	5,203
593,65	4,572
593,85	4,052
594,05	3,246
594,25	2,837
594,45	2,024
594,65	1,767
594,85	1,459
595,06	1,533
595,26	1,114
595,46	0,921
595,66	0,736
595,86	1,000
596,06	0,670
596,26	0,599
596,46	0,566
596,66	0,561
596,87	0,621
597,07	0,443
597,27	0,607
597,47	0,523
597,67	0,576
597,87	0,720
598,07	0,454
598,27	0,708
598,47	0,538
598,67	0,368
598,88	0,478
599,08	0,417
599,28	0,357
599,48	0,541
599,68	0,396
599,88	0,483
600,08	0,546
600,28	0,553
600,48	0,432
600,68	0,477
600,88	0,505
601,09	0,328
601,29	0,401
601,49	0,660
601,69	0,508
601,89	0,252
602,09	0,455
602,29	0,475
602,49	0,360
602,69	0,452
602,89	0,522
603,09	0,480
603,29	0,425
603,49	0,287
603,69	0,645
603,90	0,565
604,10	0,463
604,30	0,430
604,50	0,333
604,70	0,530
604,90	0,216
605,10	0,413
605,30	0,306
605,50	0,388
605,70	0,365
605,90	0,332
606,10	0,460
606,30	0,412
606,50	0,496
606,70	0,356
606,90	0,520
607,10	0,359
607,30	0,261
607,50	0,437
607,70	0,387
607,90	0,312
608,10	0,322
608,30	0,335
608,50	0,563
608,70	0,464
608,90	0,355
609,11	0,486
609,31	0,505
609,51	0,573
609,71	0,625
609,91	0,212
610,11	0,374
610,31	0,306
610,51	0,421
610,71	0,293
610,91	0,220
611,11	0,360
611,31	0,178
611,51	0,326
611,71	0,437
611,91	0,443
612,11	0,373
612,31	0,572
612,51	0,320
612,71	0,420
612,91	0,382
613,11	0,490
613,31	0,527
613,51	0,280
613,71	0,303
613,91	0,318
614,11	0,454
614,31	0,556
614,50	0,486
614,70	0,566
614,90	0,656
615,10	0,489
615,30	0,385
615,50	0,309
615,70	0,367
615,90	0,582
616,10	0,461
616,30	0,469
616,50	0,526
616,70	0,413
616,90	0,334
617,10	0,476
617,30	0,460
617,50	0,498
617,70	0,472
617,90	0,545
618,10	0,498
618,30	0,378
618,50	0,548
618,70	0,461
618,90	0,336
619,10	0,480
619,30	0,300
619,49	0,507
619,69	0,449
619,89	0,386
620,09	0,448
620,29	0,541
620,49	0,734
620,69	0,456
620,89	0,536
621,09	0,342
621,29	0,566
621,49	0,457
621,69	0,603
621,89	0,633
622,09	0,621
622,29	0,882
622,48	0,878
622,68	0,909
622,88	0,932
623,08	1,234
623,28	1,401
623,48	1,475
623,68	1,613
623,88	2,180
624,08	2,564
624,28	2,706
624,48	3,306
624,67	3,851
624,87	4,549
625,07	5,142
625,27	6,094
625,47	7,390
625,67	8,487
625,87	9,037
626,07	10,570
626,27	11,757
626,47	13,212
626,66	14,985
626,86	16,174
627,06	18,007
627,26	20,593
627,46	22,180
627,66	24,479
627,86	26,205
628,06	28,393
628,25	29,865
628,45	32,657
628,65	34,181
628,85	35,874
629,05	38,050
629,25	39,627
629,45	41,592
629,65	43,133
629,84	44,835
630,04	45,912
630,24	48,262
630,44	49,121
630,64	51,237
630,84	52,544
631,04	53,331
631,23	54,311
631,43	55,816
631,63	57,501
631,83	58,876
632,03	59,057
632,23	62,113
632,42	62,872
632,62	65,322
632,82	66,237
633,02	67,749
633,22	69,210
633,42	71,084
633,62	71,938
633,81	75,349
634,01	75,731
634,21	78,261
634,41	80,020
634,61	81,495
634,80	83,212
635,00	84,596
635,20	85,741
635,40	86,578
635,60	89,132
635,80	89,844
635,99	91,053
636,19	91,467
636,39	92,769
636,59	92,196
636,79	93,896
636,98	94,278
637,18	94,777
637,38	94,966
637,58	95,047
637,78	95,375
637,97	95,602
638,17	95,398
638,37	95,285
638,57	95,103
638,77	95,687
638,96	94,231
639,16	94,582
639,36	93,788
639,56	93,630
639,76	93,438
639,95	94,136
640,15	92,060
640,35	92,145
640,55	92,805
640,75	91,736
640,94	91,313
641,14	92,919
641,34	92,329
641,54	90,416
641,73	91,702
641,93	91,846
642,13	90,831
642,33	92,177
642,53	89,899
642,72	90,373
642,92	89,596
643,12	91,094
643,32	89,674
643,51	90,591
643,71	90,589
643,91	89,592
644,11	90,153
644,30	87,042
644,50	87,716
644,70	87,415
644,90	86,395
645,09	86,285
645,29	84,836
645,49	83,352
645,69	81,473
645,88	80,734
646,08	79,975
646,28	78,463
646,48	77,267
646,67	75,127
646,87	74,740
647,07	74,024
647,26	72,333
647,46	70,433
647,66	70,326
647,86	68,485
648,05	66,979
648,25	65,301
648,45	64,605
648,65	62,858
648,84	62,513
649,04	61,745
649,24	60,979
649,43	59,239
649,63	59,428
649,83	58,723
650,03	58,668
650,22	57,318
650,42	55,503
650,62	55,038
650,81	54,520
651,01	53,741
651,21	52,127
651,40	52,751
651,60	51,169
651,80	51,598
652,00	49,067
652,19	48,735
652,39	49,239
652,59	46,148
652,78	46,927
652,98	45,763
653,18	45,645
653,37	45,511
653,57	43,818
653,77	43,433
653,96	43,577
654,16	42,373
654,36	42,102
654,55	41,237
654,75	40,875
654,95	40,541
655,14	39,012
655,34	41,025
655,54	38,601
655,73	37,966
655,93	38,619
656,13	36,359
656,32	36,628
656,52	35,555
656,72	35,399
656,91	34,039
657,11	32,361
657,31	31,594
657,50	29,262
657,70	28,383
657,90	27,101
658,09	25,619
658,29	24,050
658,49	22,458
658,68	20,937
658,88	19,924
659,07	18,517
659,27	17,044
659,47	17,320
659,66	15,780
659,86	15,972
660,06	15,425
660,25	15,383
660,45	15,535
660,64	15,094
660,84	14,996
661,04	15,050
661,23	15,924
661,43	15,628
661,63	16,524
661,82	16,933
662,02	17,207
662,21	17,071
662,41	17,343
662,61	17,637
662,80	17,347
663,00	16,651
663,19	16,870
663,39	16,519
663,59	16,016
663,78	15,027
663,98	13,916
664,17	14,138
664,37	13,238
664,57	12,747
664,76	13,357
664,96	12,038
665,15	11,334
665,35	10,974
665,55	11,176
665,74	10,228
665,94	10,313
666,13	9,390
666,33	8,881
666,53	8,601
666,72	7,555
666,92	7,201
667,11	6,173
667,31	5,363
667,50	5,478
667,70	4,346
667,90	3,956
668,09	3,149
668,29	2,967
668,48	2,590
668,68	2,152
668,87	1,656
669,07	1,959
669,26	1,600
669,46	1,455
669,66	1,144
669,85	0,995
670,05	0,911
670,24	0,830
670,44	0,987
670,63	0,586
670,83	0,717
671,02	0,933
671,22	1,069
671,42	0,919
671,61	0,822
671,81	0,825
672,00	0,838
672,20	0,599
672,39	0,356
672,59	0,381
672,78	0,601
672,98	0,471
673,17	0,349
673,37	0,553
673,56	0,544
673,76	0,376
673,95	0,678
674,15	0,447
674,34	0,845
674,54	0,611
674,73	0,824
674,93	0,764
675,13	0,254
675,32	0,525
675,52	0,714
675,71	0,495
675,91	0,616
676,10	0,548
676,30	0,276
676,49	0,638
676,69	0,474
676,88	0,813
677,08	0,687
677,27	0,397
677,47	0,525
677,66	0,572
677,86	0,628
678,05	0,623
678,24	0,308
678,44	0,626
678,63	0,550
678,83	0,801
679,02	0,576
679,22	0,168
679,41	0,527
679,61	0,437
679,80	0,384
680,00	0,553
680,19	0,404
680,39	0,443
680,58	0,335
680,78	0,328
680,97	0,376
681,17	0,459
681,36	0,368
681,56	0,643
681,75	0,511
681,94	0,470
682,14	0,644
682,33	0,318
682,53	0,720
682,72	0,506
682,92	0,586
683,11	0,569
683,31	0,043
683,50	0,491
683,69	0,452
683,89	0,137
684,08	0,417
684,28	0,188
684,47	0,441
684,67	0,354
684,86	0,065
685,06	0,460
685,25	0,294
685,44	0,280
685,64	0,170
685,83	0,482
686,03	0,175
686,22	0,249
686,42	0,158
686,61	0,400
686,80	0,469
687,00	0,406
687,19	0,366
687,39	0,228
687,58	0,196
687,77	0,187
687,97	0,457
688,16	0,211
688,36	0,128
688,55	0,230
688,74	0,427
688,94	0,268
689,13	0,476
689,33	0,205
689,52	0,198
689,71	0,325
689,91	0,274
690,10	0,309
690,30	0,219
690,49	0,234
690,68	0,210
690,88	0,211
691,07	0,298
691,27	0,250
691,46	0,194
691,65	0,343
691,85	0,318
692,04	0,178
692,23	0,208
692,43	0,131
692,62	0,368
692,82	0,348
693,01	0,203
693,20	0,332
693,40	0,187
693,59	0,385
693,78	0,426
693,98	0,254
694,17	0,274
694,36	0,566
694,56	0,457
694,75	0,256
694,94	0,518
695,14	0,390
695,33	0,153
695,53	0,569
695,72	0,331
695,91	0,315
696,11	0,416
696,30	0,154
696,49	0,311
696,69	0,341
696,88	0,331
697,07	0,072
697,27	0,417
697,46	0,316
697,65	0,146
697,85	0,306
698,04	0,527
698,23	0,438
698,43	0,356
698,62	0,140
698,81	0,718
699,01	0,796
699,20	0,496
699,39	0,692
699,58	0,381
699,78	0,595
699,97	0,364
700,16	0,700
700,36	0,301
700,55	0,778
700,74	0,647
700,94	0,755
701,13	0,640
701,32	1,096
701,52	1,324
701,71	0,697
701,90	0,570
702,09	1,254
702,29	0,787
702,48	1,151
702,67	0,931
702,87	0,740
703,06	0,726
703,25	1,128
703,44	0,729
703,64	1,875
703,83	1,706
704,02	1,320
704,22	0,741
704,41	0,634
704,60	2,053
704,79	0,825
704,99	1,034
705,18	1,158
705,37	1,934
705,56	2,924
705,76	1,936
705,95	1,108
706,14	1,624
706,33	2,134
706,53	1,319
706,72	1,578
706,91	1,419
707,11	2,444
707,30	2,620
707,49	2,886
707,68	1,586
707,88	1,561
708,07	0,969
708,26	2,075
708,45	1,957
708,64	3,273
708,84	2,359
709,03	1,815
709,22	2,467
709,41	2,189
709,61	3,027
709,80	2,640
709,99	2,914
710,18	2,166
710,38	1,726
710,57	2,093
710,76	1,820
710,95	1,878
711,14	4,774
711,34	3,118
711,53	2,306
711,72	3,222
711,91	2,448
712,11	4,254
712,30	2,772
712,49	4,111
712,68	1,628
712,87	4,320
713,07	4,785
713,26	2,446
713,45	3,718
713,64	3,608
713,83	3,532
714,03	5,823
714,22	3,718
714,41	4,128
714,60	3,213
714,79	2,163
714,99	3,248
715,18	1,180
715,37	5,114
715,56	4,692
715,75	3,452
715,94	3,549
716,14	3,998
716,33	4,041
716,52	3,888
716,71	6,034
716,90	4,589
717,10	4,719
717,29	4,971
717,48	5,913
717,67	0,854
717,86	5,562
718,05	-0,540
718,24	4,554
718,44	5,699
718,63	5,856
718,82	5,730
719,01	5,490
719,20	3,480
719,39	4,620
719,59	0,608
719,78	2,300
719,97	5,091
720,16	6,648
720,35	6,320
720,54	5,430
720,73	2,073
720,93	5,878
721,12	1,919
721,31	5,603
721,50	4,674
721,69	4,707
721,88	5,505
722,07	5,505
722,27	6,016
722,46	3,551
722,65	1,799
722,84	6,515
723,03	4,709
723,22	7,482
723,41	3,033
723,60	7,519
723,79	6,472
723,99	5,412
724,18	12,175
724,37	7,730
724,56	7,047
724,75	7,932
724,94	9,765
725,13	11,505
725,32	6,749
725,51	8,260
725,71	7,292
725,90	8,357
726,09	9,164
726,28	13,048
726,47	4,980
726,66	6,698
726,85	5,020
727,04	5,400
727,23	7,256
727,42	6,537
727,61	2,751
727,81	7,299
728,00	8,528
728,19	6,293
728,38	2,484
728,57	10,377
728,76	13,674
728,95	5,692
729,14	5,210
729,33	8,233
729,52	12,373
729,71	13,662
729,90	9,070
730,09	8,645
730,28	9,700
730,48	7,425
730,67	9,432
730,86	6,219
731,05	9,930
731,24	6,732
731,43	8,050
731,62	12,281
731,81	6,480
732,00	6,353
732,19	3,448
732,38	9,031
732,57	11,308
732,76	12,381
732,95	2,533
733,14	2,861
733,33	13,736
733,52	13,559
733,71	5,619
733,90	16,452
734,09	8,864
734,28	13,931
734,47	12,632
734,66	13,569
734,85	10,071
735,04	9,264
735,23	13,492
735,42	11,671
735,61	14,133
735,81	6,621
736,00	13,855
736,19	5,621
736,38	8,889
736,57	16,852
736,76	8,217
736,95	6,212
737,14	12,310
737,33	18,780
737,52	15,535
737,71	12,821
737,90	14,221
738,09	7,822
738,28	9,888
738,47	8,824
738,66	15,000
738,85	7,732
739,04	20,034
739,22	10,135
739,41	20,000
739,60	8,194
739,79	11,473
739,98	5,808
740,17	15,476
740,36	18,750
740,55	20,459
740,74	14,957
740,93	11,382
741,12	20,404
741,31	4,412
741,50	10,358
741,69	7,037
741,88	7,800
742,07	12,635
742,26	11,236
742,45	13,043
742,64	20,504
742,83	11,489
743,02	18,559
743,21	16,097
743,40	15,547
743,59	8,197
743,78	16,157
743,97	18,045
744,16	9,534
744,34	15,748
744,53	14,344
744,72	15,593
744,91	15,368
745,10	20,719
745,29	13,948
745,48	19,374
745,67	17,515
745,86	-3,286
746,05	18,037
746,24	15,686
746,43	25,768
746,62	13,825
746,81	15,525
747,00	18,789
747,18	29,451
747,37	18,763
747,56	14,157
747,75	20,131
747,94	26,258
748,13	17,352
748,32	26,923
748,51	17,381
748,70	21,103
748,89	16,908
749,08	12,000
749,26	13,842
749,45	13,412
749,64	15,136
749,83	15,013
750,02	30,387
750,21	21,701
750,40	10,156
750,59	19,811
750,78	17,160
750,96	17,877
751,15	20,219
751,34	29,843
751,53	30,788
751,72	15,364
751,91	16,712
752,10	11,111
752,29	15,537
752,47	18,258
752,66	15,211
752,85	13,313
753,04	21,451
753,23	31,788
753,42	23,100
753,61	9,804
753,80	19,512
753,98	4,561
754,17	19,018
754,36	25,141
754,55	21,944
754,74	28,613
754,93	18,156
755,12	28,800
755,30	21,607
755,49	16,820
755,68	32,565
755,87	23,423
756,06	25,140
756,25	23,492
756,43	14,138
756,62	21,662
756,81	24,422
757,00	31,884
757,19	18,151
757,38	29,653
757,56	21,935
757,75	27,451
757,94	25,552
758,13	24,026
758,32	10,227
758,51	26,103
758,69	8,800
758,88	39,640
759,07	31,900
759,26	40,465
759,45	22,707
759,63	42,007
759,82	21,212
760,01	19,398
760,20	36,187
760,39	35,075
760,57	38,430
760,76	28,378
760,95	24,074
761,14	32,653
761,33	29,375
761,51	31,183
761,70	38,966
761,89	29,098
762,08	22,791
762,27	34,799
762,45	26,848
762,64	32,234
762,83	36,283
763,02	31,163
763,21	23,276
763,39	40,816
763,58	31,698
763,77	22,780
763,96	45,783
764,14	19,167
764,33	33,333
764,52	51,931
764,71	13,453
764,89	26,471
765,08	36,207
765,27	40,149
765,46	29,348
765,65	37,118
765,83	31,602
766,02	25,957
766,21	45,304
766,40	33,333
766,58	25,203
766,77	22,886
766,96	49,545
767,15	65,700
767,33	18,713
767,52	37,195
767,71	40,000
767,90	29,213
768,08	41,245
768,27	38,000
768,46	37,891
768,64	45,596
768,83	38,021
769,02	41,000
769,21	21,834
769,39	12,791
769,58	57,803
769,77	55,172
769,96	29,319
770,14	42,177
770,33	18,692
770,52	26,455
770,70	30,000
770,89	46,309
771,08	32,627
771,27	62,371
771,45	47,807
771,64	78,125
771,83	46,262
772,01	33,735
772,20	55,276
772,39	30,000
772,57	33,333
772,76	31,111
772,95	48,936
773,14	60,215
773,32	60,000
773,51	43,284
773,70	81,250
773,88	71,038
774,07	44,503
774,26	24,113
774,44	24,390
774,63	60,914
774,82	59,756
775,00	71,333
775,19	11,200
775,38	64,162
775,56	57,292
775,75	57,831
775,94	60,127
776,12	16,575
776,31	43,529
776,50	51,136
776,68	41,579
776,87	60,795
777,06	53,793
777,24	60,000
777,43	42,308
777,62	88,235
777,80	82,432
777,99	48,000
778,18	54,455
778,36	62,400
778,55	43,802
778,74	51,389
778,92	44,970
779,11	52,500
779,29	45,283
779,48	40,816
779,67	37,209
779,85	62,602
780,04	61,622
780,23	61,871
780,41	54,688
780,60	27,368
780,79	55,932
780,97	64,474
781,16	49,091
781,34	46,392
781,53	52,991
781,72	43,796
781,90	46,094
782,09	58,065
782,28	60,584
782,46	58,519
782,65	47,143
782,83	49,438
783,02	85,000
783,21	76,000
783,39	106,087
783,58	62,130
783,76	58,101
783,95	48,485
784,14	66,225
784,32	62,416
784,51	42,241
784,69	52,542
784,88	50,450
785,06	52,941
785,25	73,248
785,44	66,187
785,62	62,857
785,81	39,437
785,99	71,223
786,18	45,946
786,37	58,519
786,55	57,798
786,74	49,342
786,92	79,688
787,11	63,333
787,29	33,582
787,48	54,667
787,67	102,410
787,85	62,931
788,04	58,416
788,22	54,098
788,41	49,412
788,59	84,404
788,78	72,121
788,96	72,642
789,15	97,895
789,34	88,182
789,52	63,717
789,71	60,465
789,89	114,894
790,08	72,603
790,26	81,429
790,45	53,788
790,63	70,370
790,82	58,788
791,00	36,806
791,19	63,441
791,38	100,694
791,56	69,298
791,75	100,000
791,93	96,552
792,12	54,438
792,30	86,400
792,49	77,311
792,67	74,627
792,86	59,690
793,04	73,832
793,23	40,000
793,41	97,468
793,60	95,960
793,78	102,632
793,97	71,795
794,15	44,545
794,34	54,945
794,52	89,610
794,71	87,654
794,89	47,778
795,08	65,049
795,26	73,889
795,45	41,791
795,63	67,424
795,82	66,355
796,00	77,064
796,19	85,000
796,37	75,182
796,56	120,430
796,74	122,124
796,93	48,315
797,11	79,747
797,30	51,667
797,48	67,586
797,67	55,833
797,85	60,204
798,04	121,875
798,22	77,778
798,41	95,098
798,59	78,947
798,77	64,615
798,96	56,989
799,14	115,517
799,33	64,122
799,51	55,385
799,70	64,430
799,88	89,394
800,07	57,895
800,25	44,138
800,44	81,818
800,62	105,882
800,80	50,725
800,99	84,127
801,17	29,310
801,36	68,966
801,54	100,000
801,73	66,667
801,91	62,295
802,10	83,333
802,28	73,832
802,46	100,000
802,65	77,011
802,83	105,618
803,02	86,316
803,20	64,063
803,39	13,793
803,57	54,217
803,75	58,784
803,94	90,756
804,12	45,833
804,31	92,920
804,49	49,038
804,67	63,200
804,86	14,286
805,04	85,135
805,23	77,241
805,41	53,279
805,59	45,902
805,78	76,515
805,96	75,641
806,15	97,656
806,33	57,143
806,51	88,496
806,70	128,333
806,88	44,715
807,07	37,302
807,25	69,182
807,43	75,497
807,62	80,488
807,80	76,344
807,99	65,079
808,17	73,050
808,35	97,368
808,54	76,344
808,72	80,000
808,90	56,579
809,09	100,000
809,27	81,081
809,46	130,357
809,64	74,510
809,82	36,782
810,01	87,879
810,19	69,000
810,37	73,077
810,56	120,732
810,74	53,642
810,92	89,394
811,11	115,686
811,29	96,454
811,48	110,101
811,66	65,891
811,84	86,239
812,03	40,909
812,21	76,923
812,39	86,441
812,58	69,608
812,76	71,963
812,94	95,333
813,13	99,206
813,31	73,333
813,49	105,435
813,68	80,870
813,86	95,918
814,04	115,534
814,23	122,222
814,41	68,382
814,59	76,271
814,78	77,941
814,96	78,378
815,14	77,778
815,33	86,232
815,51	27,407
815,69	74,074
815,87	88,696
816,06	77,500
816,24	82,781
816,42	26,282
816,61	87,288
816,79	133,735
816,97	74,775
817,16	44,516
817,34	71,724
817,52	64,138
817,70	119,841
817,89	59,504
818,07	57,759
818,25	86,486
818,44	73,256
818,62	86,207
818,80	72,727
818,98	82,857
819,17	42,308
819,35	60,000
819,53	67,327
819,72	59,884
819,90	83,234
820,08	68,182
820,26	79,825
820,45	45,181
820,63	62,500
820,81	60,403
820,99	51,880
821,18	30,370
821,36	48,095
821,54	55,814
821,73	68,649
821,91	51,064
822,09	75,882
822,27	56,345
822,46	46,875
822,64	54,305
822,82	40,976
823,00	35,135
823,19	43,182
823,37	60,714
823,55	55,294
823,73	60,667
823,91	39,227
824,10	76,536
824,28	57,037
824,46	44,186
824,64	50,490
824,83	52,033
825,01	50,725
825,19	66,286
825,37	39,062
825,56	66,875
825,74	57,619
825,92	60,674
826,10	77,019
826,28	58,389
826,47	39,024
826,65	75,676
826,83	54,301
827,01	39,394
827,19	56,329
827,38	43,523
827,56	48,558
827,74	47,561
827,92	59,512
828,10	69,565
828,29	62,381
828,47	54,386
828,65	45,405
828,83	59,091
829,01	32,000
829,20	24,051
829,38	41,909
829,56	41,700
829,74	49,242
829,92	45,876
830,10	53,604
830,29	46,486
830,47	56,250
830,65	37,946
830,83	44,000
831,01	21,667
831,20	56,436
831,38	35,610
831,56	35,223
831,74	55,429
831,92	32,955
832,10	44,545
832,29	41,232
832,47	46,018
832,65	44,255
832,83	43,256
833,01	36,759
833,19	40,271
833,37	35,185
833,56	45,540
833,74	35,628
833,92	22,124
834,10	62,944
834,28	35,000
834,46	49,135
834,64	24,219
834,83	37,884
835,01	30,350
835,19	22,275
835,37	29,482
835,55	41,516
835,73	55,147
835,91	30,116
836,09	21,162
836,28	28,626
836,46	49,123
836,64	40,984
836,82	20,522
837,00	51,020
837,18	45,850
837,36	20,321
837,54	23,485
837,72	33,068
837,91	32,530
838,09	19,600
838,27	47,619
838,45	32,362
838,63	27,797
838,81	41,776
838,99	37,631
839,17	35,275
839,35	12,963
839,53	35,235
839,72	23,729
839,90	21,884
840,08	23,397
840,26	33,754
840,44	20,062
840,62	41,077
840,80	20,679
840,98	29,003
841,16	16,370
841,34	26,087
841,52	30,671
841,70	30,303
841,89	38,065
842,07	40,000
842,25	28,896
842,43	28,710
842,61	25,737
842,79	33,537
842,97	30,488
843,15	16,619
843,33	33,017
843,51	35,800
843,69	21,111
843,87	21,024
844,05	21,833
844,23	29,730
844,41	17,337
844,59	32,955
844,77	20,173
844,95	23,786
845,13	32,240
845,31	15,642
845,50	29,897
845,68	23,316
845,86	25,943
846,04	21,481
846,22	32,697
846,40	19,685
846,58	20,912
846,76	30,175
846,94	17,308
847,12	23,697
847,30	25,576
847,48	29,257
847,66	27,073
847,84	15,990
848,02	26,819
848,20	28,698
848,38	21,218
848,56	33,548
848,74	18,802
848,92	13,987
849,10	21,652
849,28	18,519
849,46	10,514
849,64	16,905
849,82	14,663
850,00	8,624
850,18	17,090
850,36	19,298
850,54	21,973
850,72	18,711
850,90	12,895
851,08	12,346
851,26	21,053
851,44	19,478
851,62	22,296
851,80	21,074
851,98	24,897
852,16	32,305
852,34	29,222
852,52	11,928
852,70	13,855
852,87	20,952
853,05	20,641
853,23	21,765
853,41	8,180
853,59	14,340
853,77	24,008
853,95	23,941
854,13	8,544
854,31	21,291
854,49	10,621
854,67	17,857
854,85	16,174
855,03	18,966
855,21	14,721
855,39	19,295
855,57	22,101
855,75	16,863
855,93	16,078
856,11	17,065
856,28	15,278
856,46	13,399
856,64	19,741
856,82	11,344
857,00	16,955
857,18	17,371
857,36	9,580
857,54	10,473
857,72	11,185
857,90	11,038
858,08	13,426
858,26	13,303
858,44	11,646
858,61	15,078
858,79	20,155
858,97	9,169
859,15	8,067
859,33	6,902
859,51	7,987
859,69	8,780
859,87	12,299
860,05	12,413
860,23	8,182
860,40	15,975
860,58	12,213
860,76	14,124
860,94	10,229
861,12	17,847
861,30	11,354
861,48	15,581
861,66	15,156
861,84	15,084
862,01	13,636
862,19	16,667
862,37	16,327
862,55	11,142
862,73	8,967
862,91	10,159
863,09	12,744
863,27	3,064
863,44	9,536
863,62	10,940
863,80	11,990
863,98	11,367
864,16	9,864
864,34	12,078
864,52	13,326
864,69	12,771
864,87	16,091
865,05	14,028
865,23	10,266
865,41	11,561
865,59	11,867
865,76	8,010
865,94	8,199
866,12	11,552
866,30	8,712
866,48	9,601
866,66	14,425
866,83	7,768
867,01	12,096
867,19	10,526
867,37	8,764
867,55	12,075
867,73	9,339
867,90	11,836
868,08	7,516
868,26	9,692
868,44	6,116
868,62	8,255
868,79	6,061
868,97	8,635
869,15	9,130
869,33	5,182
869,51	9,766
869,69	9,072
869,86	9,026
870,04	8,995
870,22	4,579
870,40	6,162
870,57	11,300
870,75	10,824
870,93	7,388
871,11	8,342
871,29	7,724
871,46	7,049
871,64	9,990
871,82	7,122
872,00	11,177
872,18	12,168
872,35	10,695
872,53	9,830
872,71	5,197
872,89	9,175
873,06	7,657
873,24	7,077
873,42	8,602
873,60	4,040
873,77	4,181
873,95	6,111
874,13	8,855
874,31	5,882
874,49	8,806
874,66	8,247
874,84	4,085
875,02	8,137
875,20	9,339
875,37	3,407
875,55	1,948
875,73	4,918
875,91	7,969
876,08	5,334
876,26	4,330
876,44	4,872
876,61	7,481
876,79	8,178
876,97	6,991
877,15	10,229
877,32	7,323
877,50	9,778
877,68	8,354
877,86	10,300
878,03	8,826
878,21	9,071
878,39	7,111
878,56	8,702
878,74	4,845
878,92	5,193
879,10	5,251
879,27	7,212
879,45	8,104
879,63	5,957
879,80	7,070
879,98	4,769
880,16	4,351
880,34	4,997
880,51	6,977
880,69	5,527
880,87	1,581
881,04	5,029
881,22	6,061
881,40	1,674
881,57	4,416
881,75	4,528
881,93	4,506
882,10	8,136
882,28	6,970
882,46	8,201
882,63	7,412
882,81	5,460
882,99	5,109
883,16	5,048
883,34	5,072
883,52	2,501
883,69	4,728
883,87	5,619
884,05	3,251
884,22	3,098
884,40	6,956
884,58	3,240
884,75	4,975
884,93	6,283
885,11	3,373
885,28	4,762
885,46	3,291
885,64	5,759
885,81	5,799
885,99	1,452
886,17	4,625
886,34	4,457
886,52	2,434
886,70	3,187
886,87	3,884
887,05	2,490
887,22	2,358
887,40	6,589
887,58	3,582
887,75	4,088
887,93	4,845
888,11	3,164
888,28	2,940
888,46	3,065
888,63	6,423
888,81	4,805
888,99	2,417
889,16	2,425
889,34	4,398
889,51	5,479
889,69	2,586
889,87	2,632
890,04	3,004
890,22	3,816
890,39	2,742
890,57	3,554
890,75	3,805
890,92	2,720
891,10	5,295
891,27	4,029
891,45	3,042
891,63	4,597
891,80	3,222
891,98	3,736
892,15	2,327
892,33	1,300
892,51	3,161
892,68	1,937
892,86	3,098
893,03	4,068
893,21	2,864
893,38	4,107
893,56	2,620
893,74	4,659
893,91	3,350
894,09	3,168
894,26	5,055
894,44	3,121
894,61	4,057
894,79	3,027
894,96	3,610
895,14	2,412
895,32	2,339
895,49	4,302
895,67	3,309
895,84	5,091
896,02	3,643
896,19	3,037
896,37	5,238
896,54	3,093
896,72	3,464
896,89	4,021
897,07	3,374
897,25	3,941
897,42	2,764
897,60	4,329
897,77	6,018
897,95	3,227
898,12	1,486
898,30	2,636
898,47	2,731
898,65	1,910
898,82	3,089
899,00	2,373
899,17	2,679
899,35	4,168
899,52	2,322
899,70	1,141
899,87	4,046
900,05	4,664
900,22	2,405
900,40	2,894
900,57	3,574
900,75	1,939
900,92	2,398
901,10	3,881
901,27	3,309
901,45	3,502
901,62	3,328
901,80	2,292
901,97	2,961
902,15	3,183
902,32	2,255
902,50	3,539
902,67	1,910
902,85	1,721
903,02	3,361
903,20	2,342
903,37	3,105
903,54	3,931
903,72	2,172
903,89	1,978
904,07	2,706
904,24	3,086
904,42	1,648
904,59	1,759
904,77	1,493
904,94	2,564
905,12	2,374
905,29	4,821
905,47	3,593
905,64	2,060
905,81	2,269
905,99	2,009
906,16	3,225
906,34	2,857
906,51	1,810
906,69	2,484
906,86	2,224
907,03	3,086
907,21	1,191
907,38	1,413
907,56	2,983
907,73	4,372
907,91	2,964
908,08	2,624
908,25	0,975
908,43	3,378
908,60	2,162
908,78	3,310
908,95	3,476
909,13	3,132
909,30	0,304
909,47	2,556
909,65	2,750
909,82	4,087
910,00	2,012
910,17	2,826
910,34	1,443
910,52	1,621
910,69	3,568
910,87	2,603
911,04	2,485
911,21	2,162
911,39	2,035
911,56	2,269
911,73	2,022
911,91	2,692
912,08	2,897
912,26	2,679
912,43	1,477
912,60	2,934
912,78	2,405
912,95	3,454
913,13	2,891
913,30	2,634
913,47	3,739
913,65	1,493
913,82	2,071
913,99	1,891
914,17	1,965
914,34	3,555
914,51	2,905
914,69	1,860
914,86	3,135
915,03	3,683
915,21	1,544
915,38	1,782
915,56	1,740
915,73	1,908
915,90	2,901
916,08	2,902
916,25	0,802
916,42	2,222
916,60	2,260
916,77	1,803
916,94	2,026
917,12	2,719
917,29	1,346
917,46	1,175
917,64	1,810
917,81	1,297
917,98	1,380
918,16	2,682
918,33	2,206
918,50	1,469
918,67	1,787
918,85	2,108
919,02	2,065
919,19	2,955
919,37	1,487
919,54	2,423
919,71	2,760
919,89	2,083
920,06	1,341
920,23	2,042
920,41	2,338
920,58	1,516
920,75	1,912
920,92	1,840
921,10	0,829
921,27	0,914
921,44	3,814
921,62	0,823
921,79	2,624
921,96	0,642
922,13	1,296
922,31	0,814
922,48	2,452
922,65	1,296
922,82	2,144
923,00	2,554
923,17	1,796
923,34	2,293
923,52	1,031
923,69	1,885
923,86	1,411
924,03	1,136
924,21	1,565
924,38	2,892
924,55	3,254
924,72	2,511
924,90	1,600
925,07	2,214
925,24	1,809
925,41	0,893
925,59	1,188
925,76	1,634
925,93	2,388
926,10	1,873
926,28	1,796
926,45	2,572
926,62	2,170
926,79	1,699
926,96	1,911
927,14	2,291
927,31	1,623
927,48	2,006
927,65	1,766
927,83	1,771
928,00	1,564
928,17	2,521
928,34	2,402
928,51	2,667
928,69	1,639
928,86	1,672
929,03	2,908
929,20	1,727
929,37	2,717
929,55	1,485
929,72	1,844
929,89	2,377
930,06	2,158
930,23	1,929
930,41	1,933
930,58	2,864
930,75	2,351
930,92	2,885
931,09	2,732
931,27	1,984
931,44	1,906
931,61	2,989
931,78	2,593
931,95	2,624
932,12	2,277
932,30	2,711
932,47	3,743
932,64	2,761
932,81	2,865
932,98	2,467
933,16	2,576
933,33	3,290
933,50	2,974
933,67	3,249
933,84	3,005
934,01	3,174
934,18	2,904
934,36	2,134
934,53	2,803
934,70	3,540
934,87	3,194
935,04	3,556
935,21	2,898
935,38	3,014
935,56	2,693
935,73	3,416
935,90	2,357
936,07	3,266
936,24	3,370
936,41	3,247
936,58	1,949
936,76	3,243
936,93	2,817
937,10	3,224
937,27	2,931
937,44	2,938
937,61	4,252
937,78	3,853
937,95	3,151
938,13	3,030
938,30	2,934
938,47	2,868
938,64	3,932
938,81	3,891
938,98	3,925
939,15	3,733
939,32	4,008
939,49	4,346
939,66	4,687
939,84	4,128
940,01	4,028
940,18	4,118
940,35	4,138
940,52	3,136
940,69	4,787
940,86	3,698
941,03	3,664
941,20	4,225
941,37	4,597
941,54	3,399
941,71	3,107
941,89	4,102
942,06	3,335
942,23	4,241
942,40	4,245
942,57	3,994
942,74	4,648
942,91	3,803
943,08	4,626
943,25	3,797
943,42	3,847
943,59	3,537
943,76	5,629
943,93	4,684
944,10	4,235
944,27	3,762
944,44	4,059
944,61	4,400
944,79	4,721
944,96	5,340
945,13	4,576
945,30	3,265
945,47	3,982
945,64	5,075
945,81	4,904
945,98	4,629
946,15	4,448
946,32	5,014
946,49	4,946
946,66	4,113
946,83	4,267
947,00	4,291
947,17	4,785
947,34	5,221
947,51	3,882
947,68	6,057
947,85	4,161
948,02	4,682
948,19	6,244
948,36	5,910
948,53	4,897
948,70	6,208
948,87	5,765
949,04	4,773
949,21	4,065
949,38	5,752
949,55	4,361
949,72	4,613
949,89	4,388
950,06	3,929
950,23	5,445
950,40	5,880
950,57	3,794
950,74	6,528
950,91	4,641
951,08	3,822
951,25	5,369
951,42	6,713
951,59	4,607
951,76	5,244
951,93	4,706
952,10	4,845
952,27	4,464
952,44	4,935
952,61	6,658
952,77	5,028
952,94	5,989
953,11	7,564
953,28	4,374
953,45	5,033
953,62	6,988
953,79	6,600
953,96	7,859
954,13	5,432
954,30	7,064
954,47	7,017
954,64	4,683
954,81	5,562
954,98	6,864
955,15	6,484
955,32	5,420
955,49	7,161
955,65	8,031
955,82	10,336
955,99	7,219
956,16	9,133
956,33	4,812
956,50	6,012
956,67	13,445
956,84	7,333
957,01	8,112
957,18	7,132
957,35	11,724
957,52	12,248
957,68	9,500
957,85	11,064
958,02	8,355
958,19	11,575
958,36	12,943
958,53	12,995
958,70	10,679
958,87	8,806
959,04	15,237
959,21	12,222
959,37	9,199
959,54	11,136
959,71	10,481
959,88	13,172
960,05	12,252
960,22	8,757
960,39	16,667
960,56	8,354
960,72	15,809
960,89	19,899
961,06	16,306
961,23	14,556
961,40	15,440
961,57	14,836
961,74	14,557
961,90	13,125
962,07	19,787
962,24	20,488
962,41	16,248
962,58	18,072
962,75	15,929
962,92	18,505
963,08	14,000
963,25	15,495
963,42	12,802
963,59	11,157
963,76	25,843
963,93	25,629
964,10	24,839
964,26	28,728
964,43	26,873
964,60	20,725
964,77	26,988
964,94	27,841
965,10	20,833
965,27	32,376
965,44	27,792
965,61	27,824
965,78	33,546
965,95	20,659
966,11	33,746
966,28	31,227
966,45	25,857
966,62	36,308
966,79	21,633
966,95	26,567
967,12	22,082
967,29	29,167
967,46	34,091
967,63	21,132
967,79	37,838
967,96	25,541
968,13	24,000
968,30	35,081
968,47	44,330
968,63	44,144
968,80	39,908
968,97	33,654
969,14	22,674
969,31	43,889
969,47	44,706
969,64	47,475
969,81	51,295
969,98	56,044
970,14	55,215
970,31	61,006
970,48	45,000
970,65	55,030
970,81	55,479
970,98	92,701
971,15	53,061
971,32	48,438
971,48	80,272
971,65	46,154
971,82	45,098
971,99	83,908
972,15	82,394
972,32	101,802
972,49	79,021
972,66	100,909
972,82	84,884
972,99	63,415
973,16	72,414
973,33	76,786
973,49	77,895
973,66	98,925
973,83	50,485
974,00	116,279
974,16	91,176
974,33	121,930
974,50	63,158
974,67	133,684
974,83	64,286
975,00	67,368
975,17	107,692
975,33	106,742
975,50	125,373
975,67	204,082
975,84	162,687
976,00	107,865
976,17	136,066
976,34	48,000
976,50	94,382
976,67	61,165
976,84	1800,000
977,00	144,898
977,17	180,000
977,34	154,945
977,50	88,060
977,67	157,143
977,84	172,581
978,01	174,468
978,17	388,889
978,34	141,667
978,51	205,882
978,67	122,368
978,84	87,500
979,01	189,189
979,17	38,462
979,34	95,890
979,51	171,429
979,67	128,395
979,84	255,102
980,01	188,889
980,17	239,437
980,34	244,444
980,51	157,971
980,67	116,471
980,84	486,667
981,01	525,000
981,17	464,000
981,34	677,778
981,50	154,412
981,67	189,831
981,84	4100,000
982,00	276,667
982,17	285,714
982,34	113,333
982,50	533,333
982,67	116,667
982,84	1720,000
983,00	133,333
983,17	119,403
983,33	129,310
983,50	940,000
983,67	-168,966
983,83	315,152
984,00	-914,286
984,17	466,667
984,33	-1050,000
984,50	374,286
984,66	213,043
984,83	171,429
985,00	-316,667
985,16	410,345
985,33	494,118
985,49	344,444
985,66	323,529
985,83	247,826
985,99	310,256
986,16	-2300,000
986,32	528,571
986,49	7700,000
986,66	366,667
986,82	608,333
986,99	245,283
987,15	-173,684
987,32	-175,000
987,49	228,000
987,65	4100,000
987,82	137,500
987,98	236,735
988,15	216,667
988,31	990,000
988,48	-1000,000
988,65	307,143
988,81	341,667
988,98	253,659
989,14	295,238
989,31	371,429
989,47	223,529
989,64	-746,154
989,80	750,000
989,97	356,757
990,14	-182,609
990,30	-309,091
990,47	302,041
990,63	222,222
990,80	228,000
990,96	-280,000
991,13	375,000
991,29	289,655
991,46	0,000
991,62	-730,769
991,79	633,333
991,95	8700,000
992,12	-1240,000
992,29	-412,500
992,45	114,118
992,62	253,488
992,78	209,091
992,95	-246,667
993,11	392,857
993,28	790,000
993,44	-950,000
993,61	-493,750
993,77	-3050,000
993,94	-3800,000
994,10	-77,333
994,27	594,737
994,43	318,605
994,60	0,000
994,76	2875,000
994,93	390,000
995,09	-552,941
995,26	611,111
995,42	235,294
995,59	752,381
995,75	715,385
995,92	1757,143
996,08	263,889
996,25	-975,000
996,41	-3900,000
996,58	526,667
996,74	234,091
996,91	344,828
997,07	0,000
997,23	8600,000
997,40	-11300,000
997,56	-792,308
997,73	-1087,500
997,89	350,000
998,06	976,923
998,22	-200,000
998,39	444,000
998,55	666,667
998,72	-1287,500
998,88	-186,667
999,05	-100,000
999,21	261,905
999,37	-540,000
999,54	-541,667
999,70	-213,333
999,87	731,250
1000,03	348,718
1000,20	239,583
1000,36	0,000
1000,52	275,000
1000,69	-557,143
1000,85	-720,000
1001,02	-245,833
1001,18	1675,000
1001,35	1023,077
1001,51	458,824
1001,67	-630,769
1001,84	-1700,000
1002,00	324,324
1002,17	954,545
1002,33	-2325,000
1002,50	238,095
1002,66	-407,692
1002,82	290,000
1002,99	764,286
1003,15	-1000,000
1003,32	-918,182
1003,48	317,857
1003,64	426,667
1003,81	325,926
1003,97	-2650,000
1004,14	636,364
1004,30	353,333
1004,46	-753,333
1004,63	592,857
1004,79	269,444
1004,95	613,333
1005,12	2900,000
1005,28	393,103
1005,45	248,649
1005,61	331,034
1005,77	-154,167
1005,94	-371,429
1006,10	-4550,000
1006,26	984,615
1006,43	-280,769
1006,59	-536,364
1006,76	507,143
1006,92	988,889
1007,08	7800,000
1007,25	-222,222
1007,41	382,759
1007,57	3400,000
1007,74	610,000
1007,90	-337,931
1008,06	132,609
1008,23	635,294
1008,39	-468,750
1008,55	-230,769
1008,72	-1428,571
1008,88	0,000
1009,04	234,146
1009,21	-278,947
1009,37	-550,000
1009,53	283,333
1009,70	2966,667
1009,86	-371,429
1010,02	3166,667
1010,19	954,545
1010,35	275,000
1010,51	-5900,000
1010,68	-1062,500
1010,84	-154,545
1011,00	662,500
1011,17	-245,455
1011,33	0,000
1011,49	-386,667
1011,66	671,429
1011,82	403,226
1011,98	800,000
1012,14	-118,182
1012,31	269,231
1012,47	0,000
1012,63	1283,333
1012,80	642,857
1012,96	-650,000
1013,12	-1216,667
1013,29	566,667
1013,45	336,585
1013,61	4566,667
1013,77	-125,000
1013,94	1680,000
1014,10	138,983
1014,26	-1975,000
1014,43	-196,000
1014,59	575,000
1014,75	-411,111
1014,91	-393,333
1015,08	333,333
1015,24	10000,000
1015,40	458,824
1015,56	-6000,000
1015,73	219,048
1015,89	445,455
1016,05	2300,000
1016,21	-1037,500
1016,38	378,947
1016,54	1092,308
1016,70	-3033,333
1016,86	309,375
1017,03	743,750
1017,19	-630,769
1017,35	-552,941
1017,51	-1600,000
1017,68	-400,000
1017,84	-1185,714
1018,00	295,238
1018,16	346,154
1018,33	-771,429
1018,49	-525,000
1018,65	-218,919
1018,81	274,359
1018,97	-914,286
1019,14	-2833,333
1019,30	-161,538
1019,46	0,000
1019,62	-347,059
1019,79	-4133,333
1019,95	991,667
1020,11	4400,000
1020,27	-292,593
1020,43	-311,538
1020,60	1333,333
1020,76	600,000
1020,92	733,333
1021,08	545,000
1021,24	640,000
1021,41	844,444
1021,57	1075,000
1021,73	907,692
1021,89	1620,000
1022,05	-278,571
1022,21	450,000
1022,38	-441,667
1022,54	-1350,000
1022,70	342,222
1022,86	-1287,500
1023,02	425,000
1023,19	2200,000
1023,35	2633,333
1023,51	416,667
1023,67	288,889
1023,83	-525,000
1023,99	271,053
1024,16	-246,154
1024,32	-1144,444
1024,48	-960,000
1024,64	309,524
1024,80	395,652
1024,96	305,128
1025,12	342,857
1025,29	280,952
1025,45	263,158
1025,61	605,556
1025,77	-1360,000
1025,93	-6700,000
1026,09	-1614,286
1026,26	766,667
1026,42	475,000
1026,58	336,364
1026,74	2016,667
1026,90	296,000
1027,06	317,857
1027,22	1021,429
1027,38	232,692
1027,55	2766,667
1027,71	1150,000
1027,87	-120,000
1028,03	630,000
1028,19	306,250
1028,35	530,000
1028,51	560,000
1028,67	900,000
1028,83	-1425,000
1029,00	-188,095
1029,16	800,000
1029,32	-314,286
1029,48	226,667
1029,64	258,333
1029,80	5000,000
1029,96	706,667
1030,12	478,261
1030,28	-1733,333
1030,44	-384,615
1030,61	-183,333
1030,77	-128,571
1030,93	-673,333
1031,09	1583,333
1031,25	-11200,000
1031,41	-263,333
1031,57	223,077
1031,73	712,500
1031,89	-709,091
1032,05	-362,963
1032,21	727,273
1032,37	-116,667
1032,53	-692,857
1032,69	-337,500
1032,86	433,333
1033,02	-232,500
1033,18	-456,250
1033,34	578,947
1033,50	-2800,000
1033,66	-212,195
1033,82	352,174
1033,98	-388,889
1034,14	150,000
1034,30	358,065
1034,46	-2666,667
1034,62	515,000
1034,78	-433,333
1034,94	260,526
1035,10	-461,538
1035,26	-155,814
1035,42	-265,517
1035,58	-294,444
1035,74	983,333
1035,90	-700,000
1036,06	-1216,667
1036,22	883,333
1036,38	-605,882
1036,54	-225,000
1036,70	6,061
1036,86	6400,000
1037,02	527,778
1037,18	684,211
1037,34	125,714
1037,50	-70,732
1037,66	-247,059
1037,82	3020,000
1037,98	-351,852
1038,14	-372,000
1038,30	-975,000
1038,46	-592,857
1038,62	408,696
1038,78	-3100,000
1038,94	-294,737
1039,10	354,545
1039,26	329,630
1039,42	-600,000
1039,58	1342,857
1039,74	-563,158
1039,90	343,750
1040,06	-226,923
>>>>>End Processed Spectral Data<<<<<
