SpectraSuite Data File
++++++++++++++++++++++++++++++++++++
Date: Wed Feb 01 15:40:59 EET 2017
User: optolab
Dark Spectrum Present: Yes
Reference Spectrum Present: Yes
Number of Sampled Component Spectra: 1
Spectrometers: USB4C02475
Integration Time (usec): 100000 (USB4C02475)
Spectra Averaged: 1 (USB4C02475)
Boxcar Smoothing: 0 (USB4C02475)
Correct for Electrical Dark: No (USB4C02475)
Strobe/Lamp Enabled: No (USB4C02475)
Correct for Detector Non-linearity: No (USB4C02475)
Correct for Stray Light: No (USB4C02475)
Number of Pixels in Processed Spectrum: 3648
>>>>>Begin Processed Spectral Data<<<<<
344,91	1500,000
345,13	1500,000
345,35	1500,000
345,57	0,000
345,79	421,053
346,00	-1577,778
346,22	-1728,571
346,44	205,882
346,66	-545,833
346,87	-11600,000
347,09	378,788
347,31	-277,273
347,53	-271,795
347,74	203,077
347,96	503,030
348,18	657,895
348,40	361,290
348,61	829,412
348,83	376,190
349,05	235,294
349,27	-3650,000
349,48	542,308
349,70	-251,724
349,92	429,032
350,14	188,679
350,35	370,000
350,57	1800,000
350,79	340,000
351,01	-652,381
351,22	240,741
351,44	576,923
351,66	-232,000
351,87	-309,524
352,09	184,615
352,31	183,607
352,53	210,938
352,74	338,889
352,96	183,117
353,18	521,053
353,40	276,000
353,61	282,222
353,83	285,294
354,05	400,000
354,26	1900,000
354,48	230,000
354,70	321,212
354,92	-158,621
355,13	190,909
355,35	252,273
355,57	466,667
355,78	185,542
356,00	-2400,000
356,22	303,846
356,44	4600,000
356,65	288,636
356,87	292,308
357,09	504,167
357,30	275,556
357,52	263,793
357,74	605,000
357,95	294,872
358,17	195,082
358,39	154,839
358,60	272,973
358,82	354,167
359,04	433,333
359,26	302,857
359,47	6700,000
359,69	280,000
359,91	409,091
360,12	400,000
360,34	545,833
360,56	-55,556
360,77	1750,000
360,99	509,524
361,21	278,000
361,42	5100,000
361,64	218,367
361,86	201,538
362,07	-406,452
362,29	138,667
362,51	-411,765
362,72	484,000
362,94	385,294
363,16	165,116
363,37	-714,286
363,59	503,846
363,81	236,364
364,02	605,556
364,24	400,000
364,46	2866,667
364,67	836,364
364,89	2014,286
365,11	207,143
365,32	437,931
365,54	272,222
365,76	302,041
365,97	194,118
366,19	143,103
366,41	495,455
366,62	411,111
366,84	262,791
367,05	316,327
367,27	1983,333
367,49	-538,462
367,70	700,000
367,92	145,902
368,14	179,167
368,35	-8500,000
368,57	400,000
368,79	286,207
369,00	158,696
369,22	-662,500
369,43	207,059
369,65	187,097
369,87	391,892
370,08	144,578
370,30	216,071
370,51	229,508
370,73	188,889
370,95	227,419
371,16	159,524
371,38	293,333
371,60	875,000
371,81	135,938
372,03	526,667
372,24	406,667
372,46	116,981
372,68	171,429
372,89	248,485
373,11	488,462
373,32	306,818
373,54	-692,308
373,76	692,308
373,97	660,000
374,19	577,273
374,40	207,812
374,62	-3133,333
374,84	3625,000
375,05	300,000
375,27	206,000
375,48	-6600,000
375,70	158,667
375,92	198,214
376,13	209,375
376,35	178,082
376,56	900,000
376,78	234,722
376,99	210,714
377,21	183,333
377,43	196,970
377,64	156,522
377,86	255,172
378,07	253,846
378,29	-1137,500
378,51	254,839
378,72	247,917
378,94	-866,667
379,15	236,364
379,37	523,529
379,58	181,538
379,80	606,667
380,01	487,500
380,23	231,373
380,45	1040,000
380,66	3133,333
380,88	215,909
381,09	160,000
381,31	158,889
381,52	194,118
381,74	1044,444
381,95	409,091
382,17	423,077
382,39	509,524
382,60	140,816
382,82	241,026
383,03	269,231
383,25	403,226
383,46	215,909
383,68	400,000
383,89	440,000
384,11	251,613
384,32	-3100,000
384,54	366,667
384,76	-2666,667
384,97	342,424
385,19	420,690
385,40	203,922
385,62	178,947
385,83	264,286
386,05	221,569
386,26	254,000
386,48	157,471
386,69	272,917
386,91	410,000
387,12	184,746
387,34	239,655
387,55	191,935
387,77	296,875
387,98	400,000
388,20	192,391
388,41	314,706
388,63	9200,000
388,84	155,738
389,06	283,333
389,27	463,158
389,49	294,444
389,70	230,612
389,92	206,667
390,13	197,959
390,35	223,529
390,56	233,333
390,78	288,889
390,99	910,000
391,21	600,000
391,42	177,778
391,64	263,415
391,85	167,241
392,07	209,091
392,28	112,000
392,50	312,121
392,71	-925,000
392,93	173,077
393,14	344,444
393,36	236,735
393,57	142,857
393,79	344,444
394,00	195,745
394,22	143,836
394,43	163,855
394,65	153,488
394,86	1062,500
395,08	542,857
395,29	141,509
395,50	300,000
395,72	311,111
395,93	614,286
396,15	125,352
396,36	200,000
396,58	206,667
396,79	252,500
397,01	204,000
397,22	216,667
397,44	206,061
397,65	191,228
397,87	261,905
398,08	212,245
398,29	387,500
398,51	201,786
398,72	256,098
398,94	86,154
399,15	291,429
399,37	182,456
399,58	162,637
399,80	372,727
400,01	192,593
400,22	266,667
400,44	182,716
400,65	257,143
400,87	185,294
401,08	117,143
401,30	173,913
401,51	189,474
401,72	288,462
401,94	105,063
402,15	380,000
402,37	134,454
402,58	433,333
402,80	194,286
403,01	161,972
403,22	809,091
403,44	166,667
403,65	180,357
403,87	214,286
404,08	330,769
404,30	152,941
404,51	-1833,333
404,72	144,286
404,94	96,078
405,15	90,000
405,37	148,101
405,58	151,765
405,79	123,171
406,01	241,463
406,22	251,724
406,44	180,851
406,65	247,368
406,86	131,250
407,08	106,329
407,29	114,563
407,51	135,366
407,72	132,407
407,93	108,696
408,15	90,598
408,36	165,116
408,58	150,515
408,79	90,833
409,00	190,625
409,22	182,540
409,43	113,924
409,64	101,863
409,86	80,503
410,07	96,154
410,29	64,925
410,50	128,369
410,71	95,536
410,93	74,522
411,14	127,132
411,35	81,548
411,57	115,132
411,78	98,438
412,00	111,465
412,21	121,290
412,42	115,873
412,64	83,691
412,85	86,082
413,06	101,220
413,28	89,640
413,49	105,687
413,70	94,928
413,92	90,909
414,13	72,614
414,34	82,375
414,56	74,476
414,77	109,283
414,98	83,557
415,20	81,315
415,41	81,303
415,63	81,592
415,84	86,944
416,05	79,121
416,27	74,935
416,48	91,011
416,69	86,283
416,91	84,054
417,12	84,492
417,33	77,474
417,55	88,330
417,76	88,706
417,97	74,274
418,19	79,125
418,40	82,553
418,61	79,259
418,83	73,636
419,04	73,186
419,25	73,053
419,46	78,496
419,68	74,921
419,89	80,477
420,10	78,367
420,32	67,497
420,53	79,594
420,74	75,222
420,96	80,875
421,17	74,942
421,38	76,170
421,60	79,691
421,81	77,107
422,02	80,878
422,23	65,352
422,45	70,285
422,66	73,702
422,87	72,711
423,09	74,424
423,30	74,526
423,51	73,701
423,73	71,868
423,94	67,507
424,15	69,456
424,36	66,596
424,58	65,875
424,79	64,397
425,00	66,192
425,22	71,084
425,43	64,922
425,64	61,022
425,85	63,275
426,07	63,297
426,28	60,731
426,49	58,855
426,71	55,153
426,92	51,726
427,13	54,242
427,34	54,865
427,56	51,249
427,77	47,621
427,98	49,614
428,19	48,392
428,41	49,160
428,62	45,898
428,83	45,729
429,04	42,631
429,26	46,761
429,47	45,659
429,68	45,159
429,89	44,034
430,11	46,002
430,32	46,190
430,53	48,099
430,74	48,322
430,96	50,775
431,17	50,410
431,38	52,186
431,59	52,843
431,81	54,417
432,02	54,919
432,23	54,568
432,44	52,866
432,66	54,571
432,87	54,312
433,08	52,707
433,29	49,934
433,51	48,061
433,72	47,610
433,93	42,529
434,14	41,518
434,35	40,107
434,57	36,220
434,78	36,061
434,99	31,302
435,20	30,532
435,42	28,049
435,63	26,879
435,84	25,036
436,05	22,655
436,26	20,627
436,48	19,435
436,69	17,705
436,90	16,630
437,11	13,601
437,32	13,615
437,54	12,662
437,75	10,793
437,96	10,557
438,17	9,560
438,38	10,111
438,60	8,696
438,81	7,671
439,02	7,627
439,23	6,469
439,44	6,276
439,66	6,077
439,87	5,271
440,08	4,227
440,29	3,879
440,50	3,792
440,72	2,560
440,93	2,138
441,14	1,822
441,35	1,888
441,56	1,510
441,77	1,164
441,99	1,126
442,20	0,974
442,41	0,595
442,62	0,614
442,83	0,951
443,04	0,558
443,26	0,747
443,47	0,831
443,68	0,615
443,89	0,878
444,10	0,523
444,31	0,824
444,53	0,640
444,74	0,637
444,95	0,772
445,16	0,536
445,37	0,719
445,58	0,871
445,80	0,631
446,01	0,730
446,22	0,693
446,43	0,719
446,64	0,580
446,85	0,489
447,06	0,702
447,28	0,527
447,49	0,589
447,70	0,928
447,91	0,581
448,12	0,471
448,33	0,491
448,54	0,693
448,76	0,778
448,97	0,683
449,18	0,539
449,39	0,736
449,60	0,823
449,81	0,934
450,02	0,821
450,23	0,786
450,45	0,629
450,66	0,725
450,87	0,466
451,08	0,696
451,29	1,010
451,50	0,633
451,71	0,806
451,92	0,488
452,13	0,343
452,35	0,921
452,56	0,756
452,77	0,892
452,98	0,443
453,19	0,609
453,40	0,671
453,61	0,758
453,82	0,456
454,03	0,710
454,25	1,015
454,46	0,560
454,67	0,776
454,88	0,857
455,09	0,720
455,30	0,748
455,51	0,731
455,72	0,680
455,93	0,780
456,14	0,869
456,35	1,069
456,56	0,925
456,78	0,651
456,99	0,864
457,20	0,858
457,41	0,655
457,62	0,601
457,83	0,804
458,04	0,546
458,25	0,780
458,46	0,577
458,67	0,710
458,88	1,009
459,09	0,536
459,30	0,616
459,51	0,503
459,73	0,694
459,94	1,052
460,15	0,796
460,36	0,558
460,57	0,691
460,78	0,535
460,99	0,373
461,20	0,450
461,41	0,706
461,62	0,513
461,83	0,624
462,04	0,751
462,25	0,737
462,46	0,633
462,67	0,502
462,88	0,569
463,09	0,647
463,30	0,515
463,51	0,647
463,72	0,542
463,93	0,608
464,15	0,578
464,36	0,519
464,57	0,554
464,78	0,681
464,99	0,599
465,20	0,615
465,41	0,641
465,62	0,525
465,83	0,627
466,04	0,439
466,25	0,664
466,46	0,619
466,67	0,684
466,88	0,695
467,09	1,034
467,30	0,779
467,51	1,457
467,72	1,633
467,93	1,994
468,14	2,658
468,35	2,939
468,56	3,500
468,77	4,370
468,98	4,894
469,19	5,565
469,40	6,406
469,61	7,039
469,82	7,631
470,03	8,773
470,24	9,690
470,45	10,671
470,66	12,008
470,87	13,343
471,08	14,704
471,29	16,330
471,50	18,169
471,71	19,797
471,92	21,352
472,13	23,404
472,34	25,261
472,55	26,793
472,76	29,611
472,97	31,501
473,18	32,731
473,39	35,242
473,60	37,857
473,81	40,246
474,01	42,820
474,22	45,608
474,43	47,786
474,64	49,360
474,85	51,458
475,06	52,423
475,27	54,910
475,48	55,151
475,69	56,301
475,90	57,361
476,11	58,206
476,32	58,871
476,53	58,449
476,74	58,978
476,95	59,434
477,16	58,579
477,37	58,328
477,58	57,348
477,79	56,872
478,00	56,368
478,21	55,284
478,41	53,482
478,62	52,263
478,83	51,116
479,04	51,363
479,25	50,185
479,46	50,197
479,67	50,759
479,88	51,699
480,09	52,754
480,30	53,653
480,51	55,523
480,72	55,584
480,93	56,768
481,14	59,309
481,34	59,127
481,55	61,456
481,76	63,104
481,97	64,130
482,18	67,065
482,39	67,850
482,60	68,766
482,81	70,392
483,02	71,854
483,23	73,757
483,44	75,234
483,65	75,166
483,85	76,536
484,06	77,743
484,27	76,952
484,48	77,868
484,69	75,881
484,90	75,386
485,11	75,641
485,32	74,830
485,53	73,496
485,73	73,490
485,94	72,802
486,15	72,257
486,36	72,140
486,57	72,059
486,78	72,454
486,99	71,901
487,20	72,247
487,41	72,172
487,61	72,896
487,82	73,659
488,03	75,110
488,24	75,841
488,45	76,401
488,66	76,988
488,87	77,428
489,08	78,134
489,28	78,710
489,49	80,529
489,70	79,947
489,91	81,251
490,12	82,281
490,33	81,894
490,54	82,867
490,74	83,253
490,95	82,739
491,16	82,518
491,37	83,141
491,58	83,009
491,79	83,543
492,00	82,538
492,20	82,418
492,41	82,211
492,62	81,000
492,83	79,912
493,04	80,966
493,25	81,077
493,45	80,492
493,66	79,597
493,87	80,281
494,08	79,563
494,29	79,102
494,50	79,183
494,70	80,213
494,91	80,470
495,12	79,219
495,33	78,968
495,54	77,613
495,75	78,672
495,95	76,391
496,16	76,310
496,37	76,137
496,58	74,667
496,79	73,916
496,99	72,924
497,20	73,242
497,41	71,614
497,62	70,706
497,83	70,560
498,04	68,661
498,24	69,080
498,45	69,070
498,66	69,078
498,87	68,893
499,08	69,312
499,28	69,738
499,49	69,636
499,70	69,255
499,91	69,315
500,12	68,222
500,32	68,468
500,53	67,948
500,74	67,836
500,95	68,424
501,15	68,063
501,36	68,339
501,57	68,140
501,78	68,891
501,99	69,608
502,19	70,286
502,40	70,592
502,61	72,320
502,82	72,907
503,02	74,051
503,23	74,626
503,44	76,203
503,65	76,655
503,86	76,775
504,06	77,385
504,27	79,065
504,48	79,707
504,69	79,113
504,89	79,789
505,10	79,275
505,31	79,576
505,52	78,398
505,72	78,562
505,93	77,634
506,14	76,840
506,35	76,135
506,55	73,949
506,76	72,336
506,97	70,601
507,18	69,445
507,38	68,130
507,59	65,264
507,80	63,892
508,01	62,475
508,21	59,467
508,42	58,995
508,63	56,750
508,84	54,556
509,04	52,939
509,25	51,558
509,46	49,287
509,67	47,363
509,87	46,858
510,08	45,916
510,29	44,571
510,49	43,249
510,70	41,973
510,91	40,814
511,12	40,378
511,32	39,105
511,53	37,859
511,74	36,712
511,94	36,319
512,15	34,686
512,36	33,410
512,57	31,832
512,77	30,777
512,98	29,801
513,19	28,567
513,39	27,029
513,60	25,820
513,81	25,351
514,01	23,948
514,22	22,675
514,43	21,348
514,64	20,084
514,84	18,773
515,05	17,636
515,26	16,296
515,46	15,112
515,67	13,587
515,88	12,224
516,08	11,043
516,29	9,422
516,50	8,470
516,70	6,980
516,91	6,287
517,12	4,947
517,32	4,283
517,53	3,365
517,74	2,792
517,95	2,079
518,15	1,802
518,36	1,439
518,57	1,213
518,77	0,979
518,98	0,774
519,19	0,573
519,39	0,593
519,60	0,668
519,80	0,748
520,01	0,792
520,22	0,614
520,42	0,710
520,63	0,508
520,84	0,651
521,04	0,599
521,25	0,608
521,46	0,741
521,66	0,639
521,87	0,387
522,08	0,701
522,28	0,627
522,49	0,376
522,70	0,688
522,90	0,572
523,11	0,517
523,31	0,752
523,52	0,496
523,73	0,757
523,93	0,565
524,14	0,546
524,35	0,496
524,55	0,620
524,76	0,401
524,97	0,495
525,17	0,648
525,38	0,599
525,58	0,642
525,79	0,436
526,00	0,572
526,20	0,646
526,41	0,512
526,61	0,661
526,82	0,560
527,03	0,520
527,23	0,484
527,44	0,647
527,64	0,520
527,85	0,510
528,06	0,601
528,26	0,649
528,47	0,512
528,68	0,594
528,88	0,620
529,09	0,401
529,29	0,603
529,50	0,394
529,70	0,780
529,91	0,537
530,12	0,595
530,32	0,333
530,53	0,478
530,73	0,744
530,94	0,545
531,15	0,572
531,35	0,448
531,56	0,679
531,76	0,530
531,97	0,658
532,17	0,464
532,38	0,513
532,59	0,490
532,79	0,661
533,00	0,696
533,20	0,561
533,41	0,616
533,61	0,509
533,82	0,698
534,03	0,552
534,23	0,694
534,44	0,681
534,64	0,673
534,85	0,598
535,05	0,656
535,26	0,517
535,46	0,728
535,67	0,659
535,88	0,484
536,08	0,524
536,29	0,614
536,49	0,706
536,70	0,641
536,90	0,656
537,11	0,670
537,31	0,553
537,52	0,570
537,72	0,800
537,93	0,831
538,13	0,705
538,34	0,908
538,55	0,808
538,75	0,797
538,96	0,823
539,16	0,847
539,37	0,891
539,57	1,130
539,78	1,145
539,98	1,245
540,19	1,430
540,39	1,630
540,60	1,684
540,80	2,116
541,01	2,499
541,21	2,826
541,42	3,273
541,62	3,644
541,83	4,290
542,03	5,136
542,24	5,640
542,44	6,462
542,65	7,890
542,85	9,095
543,06	10,534
543,26	11,766
543,47	13,593
543,67	15,292
543,88	17,660
544,08	19,480
544,29	21,544
544,49	23,291
544,70	25,662
544,90	27,394
545,11	30,310
545,31	32,260
545,52	34,595
545,72	36,498
545,93	39,293
546,13	40,674
546,34	42,774
546,54	44,547
546,75	46,097
546,95	47,541
547,15	49,472
547,36	50,779
547,56	51,596
547,77	53,201
547,97	54,468
548,18	56,301
548,38	57,151
548,59	57,822
548,79	59,166
549,00	61,027
549,20	63,186
549,41	65,118
549,61	66,110
549,81	68,723
550,02	69,673
550,22	70,535
550,43	73,581
550,63	74,443
550,84	75,728
551,04	77,217
551,25	77,678
551,45	77,869
551,65	78,684
551,86	79,818
552,06	78,992
552,27	78,904
552,47	78,824
552,68	79,096
552,88	76,785
553,08	76,759
553,29	75,851
553,49	75,260
553,70	76,172
553,90	74,438
554,11	74,921
554,31	74,020
554,51	74,441
554,72	74,190
554,92	74,576
555,13	73,950
555,33	75,500
555,53	76,340
555,74	76,842
555,94	77,308
556,15	78,331
556,35	78,854
556,56	80,288
556,76	80,826
556,96	80,699
557,17	81,574
557,37	82,571
557,58	83,468
557,78	83,474
557,98	84,475
558,19	84,739
558,39	85,225
558,59	85,501
558,80	85,633
559,00	85,821
559,21	87,345
559,41	85,686
559,61	86,973
559,82	87,363
560,02	87,797
560,23	88,483
560,43	88,075
560,63	88,321
560,84	88,516
561,04	89,433
561,24	89,612
561,45	89,099
561,65	89,982
561,85	89,164
562,06	89,785
562,26	89,495
562,47	89,135
562,67	89,594
562,87	90,547
563,08	90,070
563,28	89,149
563,48	88,963
563,69	88,999
563,89	89,415
564,09	89,713
564,30	88,389
564,50	89,165
564,70	88,613
564,91	88,031
565,11	86,531
565,31	86,050
565,52	85,644
565,72	84,747
565,92	83,817
566,13	82,212
566,33	81,380
566,53	80,838
566,74	79,638
566,94	77,061
567,14	76,398
567,35	74,047
567,55	73,302
567,75	73,213
567,96	71,840
568,16	71,612
568,36	70,190
568,57	68,939
568,77	69,714
568,97	69,441
569,18	69,304
569,38	70,237
569,58	69,676
569,79	69,915
569,99	69,460
570,19	70,041
570,39	70,659
570,60	69,389
570,80	69,645
571,00	69,248
571,21	67,218
571,41	67,132
571,61	64,491
571,82	63,222
572,02	61,444
572,22	60,203
572,42	57,436
572,63	54,514
572,83	53,862
573,03	51,221
573,24	49,639
573,44	47,693
573,64	46,551
573,84	45,876
574,05	44,305
574,25	43,411
574,45	42,482
574,66	41,776
574,86	41,592
575,06	40,909
575,26	40,147
575,47	39,695
575,67	39,637
575,87	39,458
576,07	39,295
576,28	38,508
576,48	38,114
576,68	37,076
576,88	36,477
577,09	35,748
577,29	34,990
577,49	34,406
577,69	33,269
577,90	32,582
578,10	31,791
578,30	32,151
578,50	31,426
578,71	31,200
578,91	30,043
579,11	30,616
579,31	29,917
579,52	30,030
579,72	29,484
579,92	29,548
580,12	29,188
580,33	29,981
580,53	29,311
580,73	29,174
580,93	28,556
581,13	28,490
581,34	28,557
581,54	27,618
581,74	27,190
581,94	26,503
582,15	25,491
582,35	24,609
582,55	23,397
582,75	22,032
582,95	20,685
583,16	18,739
583,36	17,929
583,56	16,026
583,76	14,499
583,96	12,912
584,17	11,742
584,37	10,479
584,57	9,030
584,77	8,351
584,97	7,553
585,18	6,598
585,38	5,398
585,58	5,025
585,78	4,058
585,98	3,531
586,19	3,116
586,39	2,582
586,59	2,291
586,79	1,600
586,99	1,493
587,20	1,209
587,40	1,077
587,60	0,959
587,80	0,981
588,00	0,736
588,20	0,596
588,41	0,592
588,61	0,596
588,81	0,601
589,01	0,377
589,21	0,596
589,41	0,554
589,62	0,572
589,82	0,489
590,02	0,378
590,22	0,637
590,42	0,403
590,62	0,333
590,83	0,446
591,03	0,468
591,23	0,236
591,43	0,613
591,63	0,514
591,83	0,187
592,03	0,509
592,24	0,459
592,44	0,555
592,64	0,453
592,84	0,365
593,04	0,515
593,24	0,443
593,44	0,493
593,65	0,496
593,85	0,402
594,05	0,201
594,25	0,621
594,45	0,309
594,65	0,416
594,85	0,447
595,06	0,451
595,26	0,478
595,46	0,270
595,66	0,411
595,86	0,464
596,06	0,400
596,26	0,376
596,46	0,358
596,66	0,410
596,87	0,462
597,07	0,407
597,27	0,271
597,47	0,366
597,67	0,601
597,87	0,382
598,07	0,285
598,27	0,446
598,47	0,414
598,67	0,445
598,88	0,416
599,08	0,446
599,28	0,408
599,48	0,559
599,68	0,514
599,88	0,417
600,08	0,502
600,28	0,645
600,48	0,333
600,68	0,403
600,88	0,472
601,09	0,447
601,29	0,368
601,49	0,489
601,69	0,559
601,89	0,363
602,09	0,414
602,29	0,523
602,49	0,434
602,69	0,441
602,89	0,548
603,09	0,528
603,29	0,500
603,49	0,447
603,69	0,461
603,90	0,553
604,10	0,508
604,30	0,419
604,50	0,479
604,70	0,443
604,90	0,318
605,10	0,507
605,30	0,516
605,50	0,361
605,70	0,246
605,90	0,473
606,10	0,338
606,30	0,336
606,50	0,503
606,70	0,337
606,90	0,459
607,10	0,525
607,30	0,412
607,50	0,456
607,70	0,584
607,90	0,435
608,10	0,228
608,30	0,342
608,50	0,629
608,70	0,464
608,90	0,300
609,11	0,513
609,31	0,591
609,51	0,456
609,71	0,598
609,91	0,385
610,11	0,463
610,31	0,404
610,51	0,644
610,71	0,273
610,91	0,425
611,11	0,600
611,31	0,559
611,51	0,471
611,71	0,520
611,91	0,639
612,11	0,623
612,31	0,785
612,51	0,758
612,71	0,558
612,91	0,745
613,11	0,895
613,31	0,999
613,51	0,956
613,71	1,062
613,91	1,494
614,11	1,398
614,31	1,685
614,50	1,970
614,70	2,277
614,90	2,369
615,10	3,117
615,30	3,132
615,50	3,528
615,70	4,113
615,90	4,814
616,10	5,430
616,30	6,622
616,50	7,175
616,70	7,958
616,90	8,988
617,10	9,977
617,30	11,358
617,50	12,746
617,70	13,933
617,90	15,214
618,10	16,400
618,30	18,064
618,50	19,664
618,70	21,179
618,90	23,201
619,10	24,362
619,30	26,311
619,49	28,401
619,69	29,666
619,89	30,884
620,09	32,785
620,29	34,618
620,49	35,535
620,69	36,976
620,89	38,807
621,09	39,689
621,29	40,602
621,49	42,167
621,69	42,957
621,89	44,444
622,09	44,741
622,29	46,348
622,48	47,820
622,68	48,925
622,88	49,207
623,08	50,287
623,28	52,469
623,48	53,711
623,68	55,628
623,88	57,370
624,08	58,167
624,28	60,928
624,48	61,954
624,67	63,979
624,87	65,919
625,07	67,316
625,27	69,047
625,47	71,643
625,67	72,668
625,87	74,431
626,07	75,544
626,27	77,031
626,47	79,008
626,66	80,506
626,86	81,874
627,06	83,182
627,26	82,353
627,46	84,472
627,66	84,879
627,86	86,218
628,06	86,568
628,25	84,967
628,45	86,936
628,65	86,598
628,85	86,172
629,05	86,107
629,25	86,498
629,45	85,511
629,65	86,594
629,84	85,561
630,04	85,557
630,24	84,882
630,44	84,012
630,64	85,003
630,84	84,363
631,04	83,469
631,23	83,422
631,43	83,176
631,63	83,095
631,83	81,992
632,03	80,901
632,23	80,194
632,42	80,405
632,62	79,492
632,82	79,166
633,02	78,322
633,22	78,217
633,42	76,842
633,62	75,193
633,81	75,923
634,01	73,973
634,21	73,820
634,41	72,488
634,61	72,160
634,80	71,512
635,00	69,954
635,20	70,018
635,40	68,201
635,60	67,392
635,80	66,627
635,99	65,911
636,19	63,409
636,39	63,012
636,59	61,435
636,79	61,270
636,98	60,320
637,18	58,947
637,38	58,077
637,58	57,530
637,78	56,432
637,97	56,412
638,17	54,905
638,37	55,161
638,57	53,887
638,77	53,692
638,96	53,028
639,16	53,265
639,36	51,273
639,56	52,063
639,76	52,229
639,95	51,705
640,15	50,192
640,35	49,927
640,55	49,776
640,75	49,221
640,94	49,554
641,14	48,328
641,34	48,967
641,54	47,780
641,73	47,446
641,93	47,168
642,13	47,265
642,33	46,903
642,53	45,898
642,72	45,399
642,92	45,722
643,12	45,324
643,32	44,680
643,51	44,490
643,71	44,125
643,91	42,153
644,11	43,111
644,30	41,293
644,50	41,116
644,70	40,906
644,90	39,359
645,09	39,125
645,29	37,749
645,49	37,873
645,69	37,075
645,88	36,641
646,08	37,233
646,28	36,384
646,48	35,335
646,67	35,135
646,87	34,537
647,07	34,903
647,26	33,204
647,46	33,751
647,66	32,843
647,86	32,456
648,05	30,743
648,25	29,920
648,45	29,981
648,65	27,748
648,84	26,492
649,04	25,490
649,24	23,157
649,43	21,839
649,63	20,400
649,83	19,408
650,03	17,551
650,22	16,644
650,42	15,317
650,62	13,908
650,81	13,709
651,01	12,875
651,21	12,265
651,40	12,362
651,60	12,258
651,80	11,232
652,00	11,719
652,19	12,182
652,39	12,353
652,59	12,796
652,78	13,375
652,98	13,715
653,18	14,138
653,37	14,539
653,57	15,224
653,77	15,241
653,96	16,252
654,16	15,668
654,36	16,396
654,55	15,928
654,75	15,719
654,95	15,158
655,14	14,351
655,34	14,545
655,54	13,176
655,73	12,282
655,93	12,037
656,13	11,389
656,32	10,945
656,52	10,605
656,72	10,777
656,91	9,901
657,11	9,574
657,31	8,471
657,50	8,464
657,70	8,408
657,90	7,696
658,09	7,554
658,29	7,619
658,49	6,122
658,68	6,410
658,88	5,346
659,07	4,534
659,27	4,239
659,47	4,065
659,66	2,907
659,86	2,711
660,06	2,443
660,25	1,808
660,45	1,917
660,64	1,826
660,84	1,680
661,04	1,119
661,23	1,338
661,43	1,156
661,63	1,341
661,82	0,623
662,02	0,821
662,21	0,832
662,41	0,738
662,61	1,074
662,80	0,661
663,00	0,411
663,19	0,799
663,39	1,028
663,59	1,106
663,78	0,263
663,98	0,698
664,17	0,894
664,37	0,962
664,57	1,017
664,76	0,991
664,96	0,701
665,15	-0,052
665,35	0,730
665,55	0,470
665,74	0,692
665,94	0,578
666,13	1,064
666,33	0,491
666,53	0,760
666,72	0,460
666,92	0,990
667,11	0,598
667,31	0,466
667,50	0,649
667,70	0,897
667,90	0,648
668,09	0,613
668,29	0,812
668,48	0,478
668,68	0,734
668,87	0,351
669,07	0,780
669,26	0,928
669,46	0,836
669,66	0,975
669,85	0,687
670,05	0,335
670,24	0,585
670,44	0,716
670,63	0,491
670,83	0,478
671,02	0,666
671,22	0,991
671,42	0,572
671,61	0,644
671,81	0,647
672,00	0,922
672,20	0,768
672,39	0,334
672,59	0,366
672,78	0,586
672,98	0,441
673,17	0,630
673,37	0,546
673,56	0,464
673,76	0,413
673,95	0,568
674,15	0,411
674,34	0,498
674,54	0,662
674,73	0,505
674,93	0,486
675,13	0,389
675,32	0,448
675,52	0,887
675,71	0,523
675,91	0,459
676,10	0,392
676,30	0,566
676,49	0,509
676,69	0,501
676,88	0,635
677,08	0,792
677,27	0,172
677,47	0,305
677,66	0,422
677,86	0,737
678,05	0,795
678,24	0,257
678,44	0,658
678,63	0,413
678,83	0,593
679,02	0,570
679,22	0,231
679,41	0,331
679,61	0,271
679,80	0,641
680,00	0,487
680,19	0,537
680,39	0,359
680,58	0,454
680,78	0,358
680,97	0,229
681,17	0,372
681,36	0,426
681,56	0,705
681,75	0,335
681,94	0,453
682,14	0,509
682,33	0,474
682,53	0,642
682,72	0,539
682,92	0,350
683,11	0,575
683,31	0,243
683,50	0,566
683,69	0,596
683,89	0,290
684,08	0,490
684,28	0,209
684,47	0,389
684,67	0,385
684,86	0,101
685,06	0,334
685,25	0,245
685,44	0,440
685,64	0,311
685,83	0,307
686,03	0,199
686,22	0,144
686,42	0,267
686,61	0,386
686,80	0,390
687,00	0,434
687,19	0,540
687,39	0,123
687,58	0,159
687,77	0,191
687,97	0,302
688,16	0,117
688,36	0,207
688,55	0,216
688,74	0,331
688,94	0,171
689,13	0,359
689,33	0,294
689,52	0,190
689,71	0,371
689,91	0,278
690,10	0,214
690,30	0,356
690,49	0,378
690,68	0,405
690,88	0,471
691,07	0,177
691,27	0,177
691,46	0,316
691,65	0,306
691,85	0,322
692,04	0,311
692,23	0,108
692,43	0,343
692,62	0,428
692,82	0,372
693,01	0,328
693,20	0,303
693,40	0,236
693,59	0,261
693,78	0,351
693,98	0,178
694,17	0,141
694,36	0,432
694,56	0,444
694,75	0,199
694,94	0,344
695,14	0,404
695,33	0,269
695,53	0,315
695,72	0,225
695,91	0,363
696,11	0,208
696,30	0,276
696,49	0,140
696,69	0,304
696,88	0,196
697,07	0,094
697,27	0,299
697,46	0,334
697,65	0,400
697,85	0,428
698,04	0,439
698,23	0,647
698,43	0,215
698,62	0,252
698,81	0,359
699,01	0,678
699,20	0,404
699,39	0,607
699,58	0,688
699,78	0,629
699,97	0,537
700,16	0,458
700,36	0,393
700,55	0,946
700,74	0,367
700,94	0,963
701,13	0,764
701,32	0,885
701,52	0,807
701,71	0,483
701,90	0,931
702,09	0,840
702,29	0,871
702,48	0,557
702,67	0,816
702,87	0,861
703,06	1,164
703,25	1,100
703,44	0,772
703,64	1,451
703,83	1,613
704,02	1,113
704,22	0,938
704,41	0,834
704,60	1,380
704,79	0,773
704,99	1,462
705,18	1,581
705,37	1,226
705,56	1,278
705,76	2,015
705,95	1,955
706,14	1,624
706,33	2,199
706,53	1,514
706,72	1,512
706,91	1,557
707,11	2,326
707,30	2,932
707,49	2,422
707,68	1,258
707,88	2,302
708,07	0,602
708,26	1,703
708,45	1,903
708,64	2,283
708,84	1,994
709,03	2,305
709,22	1,775
709,41	2,130
709,61	3,027
709,80	2,958
709,99	2,162
710,18	2,071
710,38	2,622
710,57	2,334
710,76	2,070
710,95	1,426
711,14	3,563
711,34	3,082
711,53	3,807
711,72	3,484
711,91	2,991
712,11	4,679
712,30	4,634
712,49	3,144
712,68	3,215
712,87	4,998
713,07	4,524
713,26	4,292
713,45	4,669
713,64	3,430
713,83	4,157
714,03	6,648
714,22	3,432
714,41	3,705
714,60	3,165
714,79	1,377
714,99	2,264
715,18	3,386
715,37	3,241
715,56	6,778
715,75	3,400
715,94	5,376
716,14	4,050
716,33	4,310
716,52	2,973
716,71	5,251
716,90	4,249
717,10	3,695
717,29	3,600
717,48	5,913
717,67	4,881
717,86	4,017
718,05	2,818
718,24	6,052
718,44	4,987
718,63	3,578
718,82	7,179
719,01	7,985
719,20	3,349
719,39	5,774
719,59	0,743
719,78	4,601
719,97	6,276
720,16	4,249
720,35	3,511
720,54	5,289
720,73	4,718
720,93	6,452
721,12	5,830
721,31	7,040
721,50	5,119
721,69	6,227
721,88	6,787
722,07	4,893
722,27	4,959
722,46	5,892
722,65	3,761
722,84	4,003
723,03	5,908
723,22	11,102
723,41	6,571
723,60	10,777
723,79	6,788
723,99	8,333
724,18	8,863
724,37	5,510
724,56	10,169
724,75	6,328
724,94	12,729
725,13	12,543
725,32	2,947
725,51	7,645
725,71	10,038
725,90	6,761
726,09	10,961
726,28	10,345
726,47	3,027
726,66	6,140
726,85	5,840
727,04	8,827
727,23	8,350
727,42	12,878
727,61	4,021
727,81	10,115
728,00	8,731
728,19	5,606
728,38	7,235
728,57	8,071
728,76	11,900
728,95	9,263
729,14	6,002
729,33	12,733
729,52	10,236
729,71	6,774
729,90	8,152
730,09	6,425
730,28	13,279
730,48	9,397
730,67	13,301
730,86	6,095
731,05	13,785
731,24	8,078
731,43	5,031
731,62	12,782
731,81	9,403
732,00	6,989
732,19	8,174
732,38	12,827
732,57	9,673
732,76	12,381
732,95	7,867
733,14	6,372
733,33	7,967
733,52	11,864
733,71	6,003
733,90	16,710
734,09	10,112
734,28	15,172
734,47	4,079
734,66	15,061
734,85	12,482
735,04	9,128
735,23	9,392
735,42	12,536
735,61	14,667
735,81	12,276
736,00	11,596
736,19	10,799
736,38	10,667
736,57	19,638
736,76	5,581
736,95	10,758
737,14	10,638
737,33	11,557
737,52	13,876
737,71	10,417
737,90	14,977
738,09	9,049
738,28	10,367
738,47	11,111
738,66	12,656
738,85	11,512
739,04	12,733
739,22	6,757
739,41	9,355
739,60	9,699
739,79	10,788
739,98	7,260
740,17	11,565
740,36	14,286
740,55	18,342
740,74	15,826
740,93	9,959
741,12	19,853
741,31	10,110
741,50	9,228
741,69	9,259
741,88	5,400
742,07	11,913
742,26	14,794
742,45	11,858
742,64	19,065
742,83	12,979
743,02	15,495
743,21	21,529
743,40	16,315
743,59	5,328
743,78	15,939
743,97	20,865
744,16	10,643
744,34	13,976
744,53	17,828
744,72	30,146
744,91	5,895
745,10	16,279
745,29	8,747
745,48	8,219
745,67	19,756
745,86	8,216
746,05	16,210
746,24	20,044
746,43	23,641
746,62	4,608
746,81	15,753
747,00	11,691
747,18	27,912
747,37	20,043
747,56	12,135
747,75	12,473
747,94	27,571
748,13	24,886
748,32	25,855
748,51	20,993
748,70	18,945
748,89	16,908
749,08	14,000
749,26	17,422
749,45	22,353
749,64	19,851
749,83	10,433
750,02	20,442
750,21	18,768
750,40	18,229
750,59	28,302
750,78	23,077
750,96	18,436
751,15	13,661
751,34	26,963
751,53	27,833
751,72	21,024
751,91	14,795
752,10	12,654
752,29	22,034
752,47	20,506
752,66	26,197
752,85	22,291
753,04	20,820
753,23	3,642
753,42	23,404
753,61	11,438
753,80	20,596
753,98	20,351
754,17	18,712
754,36	25,141
754,55	10,658
754,74	31,792
754,93	21,902
755,12	30,933
755,30	31,025
755,49	25,994
755,68	30,548
755,87	12,613
756,06	24,302
756,25	23,492
756,43	22,759
756,62	23,442
756,81	11,551
757,00	25,797
757,19	32,534
757,38	20,505
757,56	27,419
757,75	30,392
757,94	26,814
758,13	20,779
758,32	28,030
758,51	31,985
758,69	17,200
758,88	24,024
759,07	22,581
759,26	24,651
759,45	23,144
759,63	30,855
759,82	26,936
760,01	17,726
760,20	26,070
760,39	33,582
760,57	34,711
760,76	23,874
760,95	9,722
761,14	26,531
761,33	24,375
761,51	29,749
761,70	40,690
761,89	18,443
762,08	31,628
762,27	16,484
762,45	24,125
762,64	6,227
762,83	34,513
763,02	21,860
763,21	28,017
763,39	27,755
763,58	37,736
763,77	33,205
763,96	40,562
764,14	32,083
764,33	27,839
764,52	41,631
764,71	30,045
764,89	23,529
765,08	34,483
765,27	26,022
765,46	29,891
765,65	48,472
765,83	35,498
766,02	11,915
766,21	38,674
766,40	35,238
766,58	31,301
766,77	38,806
766,96	46,364
767,15	41,546
767,33	29,825
767,52	35,366
767,71	46,087
767,90	26,966
768,08	44,747
768,27	30,500
768,46	35,547
768,64	62,176
768,83	33,333
769,02	59,500
769,21	43,668
769,39	44,767
769,58	52,601
769,77	53,257
769,96	50,262
770,14	38,776
770,33	33,645
770,52	23,280
770,70	20,667
770,89	46,980
771,08	41,102
771,27	44,845
771,45	35,965
771,64	47,396
771,83	56,075
772,01	32,530
772,20	53,266
772,39	22,000
772,57	41,085
772,76	35,556
772,95	42,553
773,14	58,602
773,32	43,226
773,51	49,751
773,70	68,125
773,88	79,235
774,07	54,974
774,26	20,567
774,44	10,976
774,63	57,360
774,82	45,732
775,00	50,000
775,19	44,800
775,38	72,254
775,56	39,583
775,75	51,205
775,94	50,633
776,12	37,017
776,31	60,000
776,50	28,977
776,68	60,526
776,87	32,386
777,06	51,724
777,24	41,667
777,43	53,205
777,62	46,324
777,80	43,919
777,99	70,286
778,18	64,356
778,36	78,400
778,55	64,463
778,74	43,056
778,92	55,030
779,11	47,500
779,29	42,767
779,48	36,735
779,67	37,209
779,85	70,732
780,04	31,351
780,23	40,288
780,41	52,344
780,60	51,579
780,79	65,537
780,97	46,711
781,16	55,758
781,34	62,887
781,53	61,538
781,72	51,825
781,90	57,031
782,09	38,065
782,28	70,073
782,46	45,926
782,65	67,857
782,83	82,022
783,02	82,500
783,21	72,667
783,39	38,261
783,58	62,722
783,76	57,542
783,95	75,758
784,14	78,808
784,32	75,839
784,51	45,690
784,69	64,407
784,88	63,063
785,06	68,908
785,25	58,599
785,44	63,309
785,62	70,000
785,81	81,690
785,99	66,187
786,18	72,973
786,37	51,852
786,55	56,881
786,74	42,105
786,92	73,438
787,11	64,167
787,29	64,925
787,48	68,667
787,67	67,470
787,85	70,690
788,04	49,010
788,22	56,557
788,41	49,412
788,59	85,321
788,78	67,879
788,96	95,283
789,15	115,789
789,34	55,455
789,52	81,416
789,71	70,543
789,89	131,915
790,08	71,233
790,26	-1,429
790,45	63,636
790,63	99,074
790,82	74,545
791,00	54,167
791,19	75,269
791,38	97,222
791,56	55,263
791,75	102,752
791,93	67,816
792,12	64,497
792,30	69,600
792,49	48,739
792,67	59,701
792,86	62,791
793,04	63,551
793,23	69,167
793,41	69,620
793,60	65,657
793,78	101,754
793,97	84,615
794,15	72,727
794,34	138,462
794,52	107,792
794,71	76,543
794,89	74,444
795,08	93,204
795,26	70,000
795,45	107,463
795,63	94,697
795,82	81,308
796,00	64,220
796,19	96,667
796,37	69,343
796,56	89,247
796,74	74,336
796,93	97,753
797,11	72,152
797,30	60,833
797,48	74,483
797,67	83,333
797,85	93,878
798,04	103,125
798,22	78,571
798,41	93,137
798,59	102,105
798,77	116,923
798,96	75,269
799,14	84,483
799,33	91,603
799,51	96,923
799,70	69,799
799,88	96,970
800,07	44,737
800,25	48,276
800,44	60,606
800,62	85,882
800,80	73,913
800,99	117,460
801,17	85,345
801,36	84,138
801,54	87,500
801,73	53,535
801,91	98,361
802,10	72,619
802,28	83,178
802,46	65,432
802,65	85,057
802,83	82,022
803,02	96,842
803,20	103,906
803,39	34,483
803,57	121,687
803,75	66,892
803,94	92,437
804,12	47,500
804,31	97,345
804,49	90,385
804,67	71,200
804,86	40,179
805,04	103,378
805,23	93,103
805,41	92,623
805,59	56,557
805,78	53,788
805,96	67,949
806,15	104,687
806,33	78,151
806,51	59,292
806,70	161,667
806,88	57,724
807,07	33,333
807,25	76,101
807,43	86,755
807,62	56,098
807,80	66,667
807,99	86,508
808,17	106,383
808,35	74,561
808,54	123,656
808,72	49,600
808,90	85,526
809,09	75,833
809,27	84,685
809,46	87,500
809,64	39,216
809,82	50,575
810,01	65,152
810,19	84,000
810,37	56,923
810,56	76,829
810,74	48,344
810,92	65,909
811,11	158,824
811,29	84,397
811,48	70,707
811,66	89,147
811,84	89,908
812,03	72,727
812,21	60,256
812,39	80,508
812,58	103,922
812,76	56,075
812,94	119,333
813,13	53,968
813,31	75,000
813,49	95,652
813,68	46,087
813,86	66,327
814,04	116,505
814,23	147,475
814,41	60,294
814,59	80,226
814,78	90,441
814,96	51,351
815,14	121,111
815,33	89,130
815,51	54,074
815,69	54,321
815,87	46,957
816,06	98,750
816,24	59,603
816,42	42,949
816,61	93,220
816,79	101,205
816,97	83,784
817,16	45,161
817,34	93,103
817,52	75,862
817,70	114,286
817,89	73,554
818,07	74,138
818,25	89,189
818,44	61,628
818,62	70,690
818,80	74,126
818,98	40,000
819,17	36,923
819,35	75,294
819,53	59,406
819,72	55,233
819,90	53,293
820,08	56,494
820,26	115,789
820,45	63,855
820,63	71,354
820,81	69,128
820,99	65,414
821,18	29,630
821,36	62,381
821,54	50,000
821,73	78,378
821,91	61,170
822,09	84,706
822,27	58,883
822,46	65,625
822,64	66,225
822,82	59,024
823,00	25,225
823,19	31,818
823,37	54,286
823,55	62,941
823,73	76,667
823,91	56,354
824,10	57,542
824,28	60,741
824,46	40,116
824,64	42,647
824,83	62,602
825,01	70,290
825,19	78,286
825,37	52,604
825,56	61,250
825,74	61,429
825,92	78,090
826,10	47,826
826,28	50,336
826,47	43,902
826,65	51,351
826,83	61,290
827,01	40,152
827,19	63,924
827,38	53,886
827,56	42,308
827,74	49,593
827,92	44,878
828,10	35,326
828,29	42,857
828,47	56,140
828,65	41,622
828,83	43,939
829,01	44,000
829,20	53,797
829,38	41,079
829,56	55,466
829,74	65,152
829,92	15,979
830,10	56,306
830,29	51,351
830,47	66,667
830,65	29,018
830,83	50,286
831,01	35,833
831,20	41,089
831,38	45,366
831,56	43,320
831,74	54,857
831,92	42,614
832,10	53,182
832,29	45,024
832,47	64,159
832,65	48,511
832,83	44,186
833,01	28,063
833,19	36,199
833,37	44,074
833,56	38,498
833,74	26,316
833,92	38,053
834,10	43,655
834,28	31,923
834,46	39,446
834,64	38,672
834,83	30,375
835,01	36,576
835,19	36,493
835,37	45,418
835,55	47,292
835,73	44,485
835,91	25,483
836,09	31,120
836,28	38,931
836,46	36,491
836,64	47,951
836,82	20,522
837,00	39,796
837,18	42,292
837,36	49,198
837,54	32,576
837,72	23,904
837,91	22,088
838,09	30,800
838,27	40,659
838,45	39,482
838,63	27,458
838,81	32,237
838,99	35,540
839,17	36,570
839,35	26,667
839,53	39,262
839,72	13,559
839,90	24,316
840,08	21,795
840,26	32,808
840,44	14,815
840,62	28,283
840,80	25,309
840,98	16,616
841,16	10,676
841,34	35,942
841,52	30,671
841,70	18,519
841,89	38,065
842,07	31,892
842,25	21,429
842,43	27,419
842,61	35,121
842,79	35,976
842,97	28,354
843,15	34,670
843,33	33,967
843,51	33,413
843,69	23,333
843,87	31,536
844,05	26,146
844,23	20,000
844,41	20,101
844,59	29,830
844,77	24,496
844,95	26,456
845,13	31,148
845,31	22,346
845,50	32,732
845,68	19,948
845,86	23,349
846,04	21,481
846,22	20,764
846,40	14,173
846,58	10,456
846,76	15,711
846,94	25,240
847,12	21,564
847,30	24,194
847,48	22,782
847,66	26,585
847,84	12,183
848,02	25,156
848,20	29,581
848,38	19,748
848,56	32,473
848,74	22,314
848,92	15,658
849,10	29,911
849,28	22,222
849,46	14,252
849,64	18,571
849,82	15,625
850,00	15,811
850,18	23,095
850,36	22,807
850,54	23,094
850,72	22,245
850,90	18,248
851,08	10,288
851,26	25,709
851,44	17,871
851,62	17,439
851,80	22,266
851,98	21,399
852,16	24,280
852,34	20,683
852,52	20,278
852,70	17,068
852,87	15,238
853,05	16,834
853,23	26,667
853,41	16,973
853,59	13,208
853,77	16,071
853,95	14,195
854,13	11,650
854,31	15,358
854,49	8,216
854,67	15,602
854,85	19,652
855,03	22,797
855,21	12,183
855,39	13,758
855,57	17,391
855,75	24,452
855,93	14,311
856,11	18,182
856,28	15,972
856,46	7,680
856,64	18,608
856,82	10,995
857,00	14,879
857,18	12,989
857,36	16,471
857,54	17,061
857,72	16,861
857,90	12,191
858,08	10,802
858,26	6,422
858,44	13,199
858,61	15,425
858,79	17,674
858,97	16,046
859,15	12,177
859,33	15,644
859,51	13,099
859,69	9,524
859,87	15,081
860,05	14,086
860,23	7,879
860,40	12,289
860,58	10,632
860,76	19,209
860,94	7,481
861,12	13,314
861,30	15,595
861,48	11,615
861,66	14,859
861,84	11,034
862,01	16,979
862,19	16,396
862,37	12,245
862,55	14,345
862,73	14,538
862,91	11,873
863,09	9,883
863,27	7,382
863,44	9,801
863,62	9,677
863,80	8,282
863,98	8,940
864,16	8,508
864,34	7,143
864,52	11,845
864,69	11,687
864,87	15,137
865,05	8,108
865,23	9,541
865,41	9,535
865,59	10,630
865,76	4,780
865,94	13,164
866,12	12,571
866,30	7,607
866,48	9,102
866,66	14,534
866,83	8,534
867,01	13,054
867,19	8,735
867,37	10,204
867,55	9,440
867,73	11,048
867,90	9,783
868,08	7,625
868,26	7,070
868,44	9,549
868,62	12,644
868,79	6,061
868,97	9,808
869,15	10,828
869,33	4,851
869,51	8,705
869,69	8,863
869,86	10,769
870,04	11,217
870,22	5,307
870,40	7,778
870,57	10,600
870,75	9,962
870,93	6,868
871,11	9,359
871,29	8,537
871,46	8,157
871,64	7,616
871,82	4,780
872,00	10,188
872,18	9,973
872,35	11,052
872,53	11,720
872,71	5,871
872,89	5,468
873,06	8,764
873,24	5,882
873,42	7,079
873,60	1,745
873,77	8,808
873,95	8,092
874,13	7,156
874,31	6,061
874,49	10,288
874,66	8,333
874,84	5,151
875,02	11,798
875,20	3,554
875,37	5,707
875,55	2,794
875,73	4,659
875,91	5,859
876,08	7,723
876,26	8,410
876,44	2,316
876,61	7,405
876,79	10,202
876,97	8,641
877,15	11,298
877,32	8,110
877,50	5,959
877,68	3,440
877,86	7,071
878,03	7,137
878,21	4,794
878,39	5,630
878,56	8,850
878,74	3,760
878,92	4,748
879,10	7,175
879,27	5,479
879,45	9,913
879,63	3,548
879,80	6,254
879,98	2,633
880,16	5,438
880,34	3,038
880,51	4,518
880,69	8,132
880,87	4,192
881,04	4,578
881,22	6,061
881,40	2,022
881,57	3,940
881,75	6,696
881,93	6,261
882,10	4,741
882,28	5,476
882,46	4,896
882,63	7,412
882,81	5,517
882,99	6,480
883,16	5,404
883,34	6,282
883,52	4,705
883,69	5,496
883,87	5,734
884,05	2,778
884,22	4,877
884,40	6,902
884,58	5,363
884,75	2,543
884,93	4,555
885,11	3,591
885,28	3,175
885,46	3,737
885,64	4,398
885,81	6,168
885,99	4,507
886,17	5,470
886,34	5,349
886,52	4,039
886,70	2,226
886,87	3,418
887,05	5,742
887,22	3,998
887,40	6,031
887,58	6,020
887,75	3,190
887,93	6,134
888,11	1,285
888,28	4,836
888,46	2,669
888,63	4,641
888,81	3,901
888,99	1,943
889,16	2,996
889,34	4,491
889,51	3,954
889,69	3,103
889,87	3,102
890,04	2,556
890,22	3,774
890,39	1,238
890,57	3,771
890,75	4,831
890,92	3,745
891,10	5,722
891,27	3,250
891,45	4,958
891,63	4,163
891,80	2,569
891,98	5,936
892,15	3,638
892,33	2,935
892,51	1,955
892,68	2,143
892,86	3,693
893,03	2,906
893,21	4,177
893,38	2,875
893,56	2,579
893,74	3,783
893,91	4,139
894,09	4,691
894,26	4,428
894,44	2,419
894,61	4,529
894,79	2,913
894,96	4,186
895,14	3,954
895,32	3,734
895,49	4,264
895,67	1,752
895,84	3,122
896,02	3,454
896,19	1,667
896,37	4,639
896,54	2,946
896,72	2,506
896,89	3,246
897,07	3,708
897,25	3,003
897,42	2,949
897,60	3,184
897,77	5,458
897,95	4,123
898,12	1,628
898,30	3,269
898,47	3,701
898,65	2,848
898,82	1,887
899,00	3,385
899,17	3,229
899,35	3,573
899,52	2,426
899,70	2,559
899,87	3,348
900,05	4,527
900,22	3,471
900,40	2,724
900,57	3,880
900,75	2,701
900,92	2,432
901,10	3,580
901,27	2,397
901,45	4,691
901,62	4,134
901,80	3,101
901,97	2,238
902,15	3,150
902,32	2,454
902,50	2,966
902,67	2,010
902,85	2,058
903,02	3,486
903,20	1,807
903,37	3,740
903,54	3,198
903,72	1,876
903,89	2,340
904,07	3,684
904,24	2,664
904,42	2,884
904,59	2,143
904,77	2,207
904,94	3,311
905,12	2,407
905,29	2,235
905,47	2,823
905,64	3,582
905,81	2,083
905,99	2,794
906,16	3,694
906,34	2,413
906,51	2,547
906,69	1,521
906,86	1,875
907,03	2,750
907,21	2,291
907,38	2,979
907,56	2,591
907,73	2,155
907,91	4,784
908,08	2,960
908,25	3,139
908,43	3,561
908,60	2,282
908,78	3,310
908,95	2,218
909,13	3,311
909,30	0,699
909,47	3,819
909,65	3,531
909,82	3,146
910,00	2,508
910,17	2,233
910,34	3,175
910,52	3,531
910,69	4,616
910,87	3,862
911,04	2,259
911,21	3,770
911,39	3,262
911,56	2,689
911,73	3,987
911,91	3,941
912,08	5,097
912,26	2,623
912,43	2,955
912,60	3,993
912,78	3,416
912,95	4,145
913,13	3,560
913,30	3,751
913,47	4,470
913,65	3,198
913,82	3,585
913,99	3,362
914,17	4,211
914,34	4,585
914,51	5,116
914,69	4,969
914,86	5,807
915,03	3,708
915,21	3,949
915,38	3,691
915,56	3,480
915,73	4,579
915,90	6,002
916,08	4,985
916,25	4,352
916,42	3,844
916,60	4,881
916,77	4,582
916,94	4,442
917,12	5,830
917,29	4,527
917,46	4,087
917,64	5,741
917,81	4,538
917,98	4,901
918,16	4,918
918,33	5,242
918,50	5,610
918,67	4,121
918,85	5,731
919,02	5,151
919,19	6,352
919,37	4,295
919,54	5,738
919,71	5,244
919,89	5,563
920,06	4,001
920,23	4,651
920,41	5,266
920,58	5,227
920,75	5,646
920,92	5,043
921,10	5,309
921,27	3,952
921,44	6,708
921,62	5,004
921,79	5,839
921,96	6,150
922,13	5,769
922,31	5,894
922,48	6,292
922,65	5,398
922,82	5,102
923,00	7,019
923,17	4,468
923,34	5,222
923,52	5,563
923,69	5,316
923,86	5,286
924,03	5,486
924,21	4,970
924,38	6,162
924,55	6,948
924,72	6,448
924,90	5,600
925,07	6,414
925,24	5,553
925,41	5,111
925,59	5,098
925,76	5,367
925,93	5,753
926,10	5,743
926,28	5,653
926,45	5,410
926,62	5,672
926,79	5,200
926,96	5,142
927,14	6,024
927,31	4,413
927,48	5,197
927,65	5,057
927,83	4,146
928,00	4,028
928,17	4,888
928,34	5,162
928,51	5,058
928,69	4,585
928,86	4,297
929,03	5,227
929,20	4,414
929,37	4,616
929,55	4,143
929,72	4,609
929,89	3,834
930,06	4,106
930,23	3,798
930,41	4,077
930,58	4,812
930,75	4,972
930,92	3,564
931,09	3,554
931,27	3,816
931,44	4,019
931,61	4,950
931,78	3,591
931,95	3,984
932,12	4,143
932,30	3,905
932,47	4,332
932,64	3,982
932,81	3,939
932,98	3,450
933,16	3,080
933,33	3,944
933,50	3,479
933,67	4,790
933,84	4,610
934,01	4,073
934,18	4,077
934,36	3,451
934,53	3,969
934,70	4,444
934,87	4,483
935,04	4,834
935,21	3,987
935,38	4,135
935,56	4,298
935,73	4,652
935,90	3,480
936,07	4,742
936,24	4,853
936,41	4,556
936,58	3,787
936,76	4,256
936,93	4,547
937,10	3,961
937,27	5,331
937,44	4,636
937,61	5,602
937,78	4,998
937,95	4,903
938,13	4,937
938,30	4,969
938,47	5,152
938,64	5,453
938,81	5,466
938,98	4,312
939,15	5,354
939,32	5,718
939,49	5,652
939,66	6,061
939,84	6,285
940,01	5,237
940,18	5,259
940,35	5,345
940,52	3,733
940,69	5,824
940,86	5,576
941,03	5,332
941,20	5,646
941,37	5,493
941,54	4,170
941,71	4,097
941,89	5,339
942,06	4,586
942,23	5,781
942,40	5,033
942,57	5,254
942,74	5,915
942,91	5,167
943,08	5,762
943,25	5,727
943,42	5,234
943,59	5,710
943,76	6,691
943,93	4,684
944,10	5,210
944,27	4,943
944,44	5,804
944,61	4,616
944,79	6,176
944,96	6,364
945,13	5,204
945,30	4,977
945,47	5,757
945,64	5,790
945,81	6,508
945,98	6,164
946,15	6,470
946,32	5,323
946,49	5,930
946,66	5,739
946,83	6,301
947,00	6,739
947,17	6,944
947,34	5,916
947,51	6,504
947,68	6,961
947,85	6,121
948,02	6,913
948,19	5,803
948,36	7,769
948,53	6,066
948,70	7,816
948,87	7,249
949,04	5,893
949,21	5,140
949,38	6,052
949,55	6,087
949,72	6,365
949,89	6,662
950,06	6,385
950,23	6,390
950,40	7,057
950,57	5,014
950,74	7,427
950,91	6,600
951,08	7,572
951,25	6,872
951,42	8,437
951,59	5,400
951,76	7,334
951,93	7,529
952,10	5,282
952,27	5,660
952,44	6,833
952,61	7,158
952,77	6,349
952,94	7,764
953,11	9,005
953,28	8,097
953,45	7,432
953,62	8,386
953,79	7,508
953,96	9,086
954,13	7,087
954,30	7,619
954,47	8,998
954,64	8,143
954,81	8,539
954,98	7,812
955,15	9,223
955,32	7,504
955,49	8,103
955,65	8,937
955,82	11,519
955,99	8,222
956,16	10,447
956,33	8,508
956,50	9,384
956,67	10,364
956,84	9,185
957,01	9,672
957,18	10,178
957,35	9,627
957,52	10,151
957,68	11,333
957,85	11,915
958,02	8,269
958,19	14,186
958,36	9,929
958,53	11,797
958,70	10,226
958,87	10,078
959,04	16,150
959,21	11,818
959,37	16,126
959,54	19,294
959,71	6,738
959,88	11,526
960,05	14,790
960,22	5,444
960,39	15,733
960,56	12,405
960,72	12,923
960,89	17,744
961,06	15,924
961,23	14,993
961,40	16,739
961,57	15,264
961,74	6,646
961,90	17,344
962,07	22,983
962,24	24,065
962,41	18,425
962,58	22,547
962,75	16,460
962,92	18,131
963,08	15,636
963,25	23,784
963,42	14,251
963,59	22,107
963,76	34,382
963,93	22,426
964,10	27,623
964,26	24,123
964,43	17,829
964,60	23,834
964,77	23,373
964,94	18,466
965,10	43,155
965,27	27,415
965,44	35,844
965,61	36,364
965,78	31,310
965,95	28,443
966,11	35,913
966,28	30,483
966,45	41,121
966,62	32,615
966,79	37,551
966,95	34,030
967,12	37,224
967,29	36,806
967,46	43,561
967,63	40,000
967,79	39,189
967,96	26,407
968,13	31,500
968,30	45,161
968,47	43,299
968,63	49,550
968,80	36,239
968,97	55,769
969,14	54,070
969,31	46,667
969,47	42,941
969,64	50,505
969,81	38,342
969,98	46,154
970,14	33,129
970,31	63,522
970,48	15,000
970,65	75,148
970,81	68,493
970,98	67,883
971,15	73,469
971,32	85,156
971,48	69,388
971,65	54,615
971,82	116,667
971,99	50,575
972,15	78,169
972,32	100,000
972,49	73,427
972,66	126,364
972,82	89,535
972,99	52,033
973,16	81,609
973,33	59,821
973,49	66,316
973,66	80,645
973,83	83,495
974,00	104,651
974,16	96,078
974,33	82,456
974,50	67,368
974,67	125,263
974,83	42,857
975,00	121,053
975,17	95,604
975,33	108,989
975,50	102,985
975,67	144,898
975,84	165,672
976,00	83,146
976,17	121,311
976,34	88,000
976,50	126,966
976,67	116,505
976,84	1500,000
977,00	187,755
977,17	111,111
977,34	158,242
977,50	164,179
977,67	141,071
977,84	159,677
978,01	142,553
978,17	355,556
978,34	213,889
978,51	326,471
978,67	118,421
978,84	107,031
979,01	200,000
979,17	76,923
979,34	104,795
979,51	161,224
979,67	143,210
979,84	230,612
980,01	224,444
980,17	169,014
980,34	344,444
980,51	162,319
980,67	129,412
980,84	363,333
981,01	555,000
981,17	428,000
981,34	488,889
981,50	182,353
981,67	247,458
981,84	2700,000
982,00	246,667
982,17	150,000
982,34	138,889
982,50	546,667
982,67	144,792
982,84	1980,000
983,00	1033,333
983,17	125,373
983,33	165,517
983,50	980,000
983,67	-348,276
983,83	239,394
984,00	-1071,429
984,17	644,444
984,33	-4600,000
984,50	291,429
984,66	304,348
984,83	124,675
985,00	-387,500
985,16	355,172
985,33	441,176
985,49	388,889
985,66	223,529
985,83	369,565
985,99	264,103
986,16	-2450,000
986,32	607,143
986,49	5900,000
986,66	257,576
986,82	641,667
986,99	177,358
987,15	-463,158
987,32	-125,000
987,49	182,000
987,65	4800,000
987,82	212,500
987,98	175,510
988,15	350,000
988,31	780,000
988,48	-1216,667
988,65	228,571
988,81	297,222
988,98	234,146
989,14	235,714
989,31	580,952
989,47	255,882
989,64	-584,615
989,80	700,000
989,97	240,541
990,14	-232,609
990,30	-463,636
990,47	287,755
990,63	297,222
990,80	146,000
990,96	-450,000
991,13	406,250
991,29	296,552
991,46	0,000
991,62	-876,923
991,79	708,333
991,95	13000,000
992,12	-830,000
992,29	-581,250
992,45	171,765
992,62	283,721
992,78	202,273
992,95	-360,000
993,11	325,000
993,28	910,000
993,44	-810,000
993,61	-443,750
993,77	-2875,000
993,94	-2433,333
994,10	-96,000
994,27	521,053
994,43	306,977
994,60	0,000
994,76	1675,000
994,93	415,000
995,09	-629,412
995,26	744,444
995,42	209,804
995,59	233,333
995,75	715,385
995,92	2014,286
996,08	277,778
996,25	-750,000
996,41	-3800,000
996,58	760,000
996,74	288,636
996,91	303,448
997,07	0,000
997,23	9500,000
997,40	-12400,000
997,56	-807,692
997,73	-1450,000
997,89	326,316
998,06	761,538
998,22	-394,444
998,39	460,000
998,55	1544,444
998,72	-975,000
998,88	-336,667
999,05	-101,282
999,21	247,619
999,37	-453,333
999,54	-1150,000
999,70	-250,000
999,87	668,750
1000,03	310,256
1000,20	277,083
1000,36	0,000
1000,52	391,667
1000,69	-285,714
1000,85	-780,000
1001,02	-370,833
1001,18	1925,000
1001,35	776,923
1001,51	582,353
1001,67	-1061,538
1001,84	-1880,000
1002,00	394,595
1002,17	1190,909
1002,33	-1975,000
1002,50	276,190
1002,66	-684,615
1002,82	277,500
1002,99	642,857
1003,15	-1085,714
1003,32	-727,273
1003,48	310,714
1003,64	453,333
1003,81	348,148
1003,97	-4750,000
1004,14	1127,273
1004,30	270,000
1004,46	-566,667
1004,63	1050,000
1004,79	316,667
1004,95	593,333
1005,12	3100,000
1005,28	420,690
1005,45	262,162
1005,61	327,586
1005,77	-147,917
1005,94	-566,667
1006,10	-3500,000
1006,26	684,615
1006,43	-119,231
1006,59	-736,364
1006,76	557,143
1006,92	1266,667
1007,08	11600,000
1007,25	-225,926
1007,41	441,379
1007,57	2800,000
1007,74	970,000
1007,90	-234,483
1008,06	126,087
1008,23	694,118
1008,39	-537,500
1008,55	-196,154
1008,72	-1057,143
1008,88	0,000
1009,04	270,732
1009,21	-210,526
1009,37	-541,667
1009,53	207,143
1009,70	3333,333
1009,86	-578,571
1010,02	2366,667
1010,19	763,636
1010,35	208,824
1010,51	-6100,000
1010,68	-1100,000
1010,84	-138,636
1011,00	493,750
1011,17	-236,364
1011,33	0,000
1011,49	-546,667
1011,66	664,286
1011,82	477,419
1011,98	678,571
1012,14	-463,636
1012,31	307,692
1012,47	0,000
1012,63	2166,667
1012,80	628,571
1012,96	-568,750
1013,12	-1516,667
1013,29	361,111
1013,45	309,756
1013,61	3500,000
1013,77	-67,857
1013,94	1940,000
1014,10	167,797
1014,26	-2625,000
1014,43	-168,000
1014,59	465,000
1014,75	-433,333
1014,91	-633,333
1015,08	313,889
1015,24	6300,000
1015,40	447,059
1015,56	-8800,000
1015,73	161,905
1015,89	590,909
1016,05	2125,000
1016,21	-912,500
1016,38	494,737
1016,54	961,538
1016,70	-2966,667
1016,86	293,750
1017,03	981,250
1017,19	-476,923
1017,35	-523,529
1017,51	-1820,000
1017,68	-570,000
1017,84	-1128,571
1018,00	202,381
1018,16	476,923
1018,33	-900,000
1018,49	-666,667
1018,65	-302,703
1018,81	235,897
1018,97	-1242,857
1019,14	-3066,667
1019,30	-205,128
1019,46	0,000
1019,62	-429,412
1019,79	-2933,333
1019,95	958,333
1020,11	4350,000
1020,27	-355,556
1020,43	-338,462
1020,60	1483,333
1020,76	616,667
1020,92	633,333
1021,08	615,000
1021,24	1010,000
1021,41	1133,333
1021,57	1350,000
1021,73	715,385
1021,89	1100,000
1022,05	-275,000
1022,21	560,000
1022,38	-858,333
1022,54	-1533,333
1022,70	322,222
1022,86	-1425,000
1023,02	558,333
1023,19	1940,000
1023,35	3366,667
1023,51	441,667
1023,67	325,926
1023,83	-481,250
1023,99	210,526
1024,16	-265,385
1024,32	-955,556
1024,48	-520,000
1024,64	290,476
1024,80	595,652
1024,96	251,282
1025,12	442,857
1025,29	490,476
1025,45	286,842
1025,61	755,556
1025,77	-1540,000
1025,93	-6000,000
1026,09	-985,714
1026,26	666,667
1026,42	543,750
1026,58	296,970
1026,74	1683,333
1026,90	184,000
1027,06	189,286
1027,22	935,714
1027,38	296,154
1027,55	3433,333
1027,71	2016,667
1027,87	-404,000
1028,03	820,000
1028,19	225,000
1028,35	570,000
1028,51	1000,000
1028,67	683,333
1028,83	-1875,000
1029,00	-242,857
1029,16	740,000
1029,32	-107,143
1029,48	191,111
1029,64	250,000
1029,80	2700,000
1029,96	700,000
1030,12	534,783
1030,28	-2666,667
1030,44	-338,462
1030,61	-320,833
1030,77	-245,714
1030,93	-726,667
1031,09	1766,667
1031,25	-9200,000
1031,41	-196,667
1031,57	380,769
1031,73	850,000
1031,89	-654,545
1032,05	-403,704
1032,21	954,545
1032,37	-144,444
1032,53	-721,429
1032,69	-245,833
1032,86	374,074
1033,02	-147,500
1033,18	-493,750
1033,34	442,105
1033,50	-3950,000
1033,66	-190,244
1033,82	404,348
1033,98	-303,704
1034,14	152,564
1034,30	277,419
1034,46	-1233,333
1034,62	475,000
1034,78	-428,571
1034,94	247,368
1035,10	-353,846
1035,26	-153,488
1035,42	-244,828
1035,58	-361,111
1035,74	750,000
1035,90	-876,923
1036,06	-600,000
1036,22	900,000
1036,38	-511,765
1036,54	-320,833
1036,70	-121,212
1036,86	13700,000
1037,02	377,778
1037,18	542,105
1037,34	104,762
1037,50	-153,659
1037,66	-405,882
1037,82	2100,000
1037,98	-218,519
1038,14	-256,000
1038,30	-1025,000
1038,46	-442,857
1038,62	478,261
1038,78	-2733,333
1038,94	-336,842
1039,10	536,364
1039,26	355,556
1039,42	-283,333
1039,58	971,429
1039,74	-373,684
1039,90	296,875
1040,06	-261,538
>>>>>End Processed Spectral Data<<<<<
