SpectraSuite Data File
++++++++++++++++++++++++++++++++++++
Date: Wed Feb 01 15:46:42 EET 2017
User: optolab
Dark Spectrum Present: Yes
Reference Spectrum Present: Yes
Number of Sampled Component Spectra: 1
Spectrometers: USB4C02475
Integration Time (usec): 100000 (USB4C02475)
Spectra Averaged: 1 (USB4C02475)
Boxcar Smoothing: 0 (USB4C02475)
Correct for Electrical Dark: No (USB4C02475)
Strobe/Lamp Enabled: No (USB4C02475)
Correct for Detector Non-linearity: No (USB4C02475)
Correct for Stray Light: No (USB4C02475)
Number of Pixels in Processed Spectrum: 3648
>>>>>Begin Processed Spectral Data<<<<<
344,91	2350,000
345,13	2350,000
345,35	2350,000
345,57	0,000
345,79	400,000
346,00	-1477,778
346,22	-1800,000
346,44	400,000
346,66	-445,833
346,87	-9900,000
347,09	315,152
347,31	-354,545
347,53	-258,974
347,74	232,308
347,96	433,333
348,18	678,947
348,40	341,935
348,61	776,471
348,83	352,381
349,05	247,059
349,27	-4450,000
349,48	534,615
349,70	-193,103
349,92	332,258
350,14	164,151
350,35	246,000
350,57	2025,000
350,79	616,000
351,01	-690,476
351,22	305,556
351,44	415,385
351,66	-376,000
351,87	-295,238
352,09	219,231
352,31	252,459
352,53	195,313
352,74	375,000
352,96	233,766
353,18	584,211
353,40	508,000
353,61	331,111
353,83	223,529
354,05	636,364
354,26	1433,333
354,48	192,000
354,70	324,242
354,92	-213,793
355,13	174,747
355,35	365,909
355,57	533,333
355,78	156,627
356,00	-1950,000
356,22	261,538
356,44	4300,000
356,65	250,000
356,87	469,231
357,09	612,500
357,30	300,000
357,52	246,552
357,74	635,000
357,95	361,538
358,17	201,639
358,39	229,032
358,60	278,378
358,82	312,500
359,04	277,778
359,26	425,714
359,47	6000,000
359,69	260,000
359,91	348,485
360,12	438,095
360,34	500,000
360,56	-109,259
360,77	2150,000
360,99	685,714
361,21	226,000
361,42	4400,000
361,64	183,673
361,86	249,231
362,07	-416,129
362,29	177,333
362,51	-611,765
362,72	568,000
362,94	364,706
363,16	172,093
363,37	-564,286
363,59	430,769
363,81	300,000
364,02	688,889
364,24	358,333
364,46	3500,000
364,67	618,182
364,89	1957,143
365,11	187,143
365,32	424,138
365,54	277,778
365,76	253,061
365,97	355,882
366,19	165,517
366,41	559,091
366,62	277,778
366,84	260,465
367,05	240,816
367,27	1400,000
367,49	-569,231
367,70	523,529
367,92	213,115
368,14	260,417
368,35	-9000,000
368,57	456,000
368,79	306,897
369,00	326,087
369,22	-1850,000
369,43	227,059
369,65	166,129
369,87	432,432
370,08	198,795
370,30	216,071
370,51	122,951
370,73	155,556
370,95	238,710
371,16	273,810
371,38	413,333
371,60	912,500
371,81	137,500
372,03	600,000
372,24	496,667
372,46	139,623
372,68	165,714
372,89	372,727
373,11	388,462
373,32	295,455
373,54	-946,154
373,76	738,462
373,97	666,667
374,19	600,000
374,40	281,250
374,62	-3766,667
374,84	3850,000
375,05	450,000
375,27	272,000
375,48	-7800,000
375,70	180,000
375,92	232,143
376,13	300,000
376,35	178,082
376,56	1075,000
376,78	222,222
376,99	403,571
377,21	170,833
377,43	196,970
377,64	124,638
377,86	293,103
378,07	238,462
378,29	-1625,000
378,51	364,516
378,72	252,083
378,94	-866,667
379,15	287,879
379,37	805,882
379,58	253,846
379,80	720,000
380,01	837,500
380,23	256,863
380,45	1960,000
380,66	3200,000
380,88	256,818
381,09	242,857
381,31	173,333
381,52	229,412
381,74	1011,111
381,95	590,909
382,17	469,231
382,39	585,714
382,60	193,878
382,82	315,385
383,03	317,308
383,25	387,097
383,46	290,909
383,68	425,926
383,89	555,000
384,11	196,774
384,32	-4000,000
384,54	266,667
384,76	-2133,333
384,97	357,576
385,19	393,103
385,40	243,137
385,62	242,105
385,83	330,952
386,05	172,549
386,26	302,000
386,48	188,506
386,69	235,417
386,91	455,000
387,12	194,915
387,34	205,172
387,55	229,032
387,77	368,750
387,98	550,000
388,20	182,609
388,41	326,471
388,63	8800,000
388,84	154,098
389,06	264,286
389,27	794,737
389,49	433,333
389,70	138,776
389,92	263,333
390,13	234,694
390,35	247,059
390,56	190,741
390,78	429,630
390,99	590,000
391,21	331,579
391,42	268,889
391,64	351,220
391,85	136,207
392,07	268,182
392,28	117,333
392,50	206,061
392,71	-512,500
392,93	223,077
393,14	386,111
393,36	234,694
393,57	130,075
393,79	733,333
394,00	287,234
394,22	202,740
394,43	162,651
394,65	172,093
394,86	737,500
395,08	457,143
395,29	186,792
395,50	584,615
395,72	444,444
395,93	557,143
396,15	211,268
396,36	198,529
396,58	223,333
396,79	272,500
397,01	250,000
397,22	277,778
397,44	156,061
397,65	185,965
397,87	247,619
398,08	153,061
398,29	368,750
398,51	287,500
398,72	229,268
398,94	143,077
399,15	305,714
399,37	245,614
399,58	172,527
399,80	504,545
400,01	118,519
400,22	176,190
400,44	222,222
400,65	392,857
400,87	223,529
401,08	157,143
401,30	250,000
401,51	212,281
401,72	215,385
401,94	150,633
402,15	590,000
402,37	152,101
402,58	600,000
402,80	277,143
403,01	270,423
403,22	936,364
403,44	202,899
403,65	235,714
403,87	158,571
404,08	279,487
404,30	123,529
404,51	-3166,667
404,72	174,286
404,94	117,647
405,15	184,000
405,37	170,886
405,58	156,471
405,79	154,878
406,01	304,878
406,22	177,586
406,44	236,170
406,65	219,298
406,86	170,833
407,08	137,975
407,29	116,505
407,51	145,122
407,72	163,889
407,93	123,913
408,15	64,103
408,36	116,279
408,58	125,773
408,79	80,833
409,00	103,125
409,22	236,508
409,43	175,949
409,64	98,137
409,86	125,157
410,07	90,000
410,29	97,015
410,50	129,078
410,71	108,929
410,93	101,274
411,14	132,558
411,35	105,952
411,57	122,368
411,78	123,438
412,00	101,911
412,21	121,290
412,42	101,587
412,64	97,425
412,85	90,722
413,06	103,659
413,28	77,928
413,49	100,474
413,70	76,449
413,92	88,933
414,13	82,988
414,34	85,057
414,56	80,769
414,77	110,549
414,98	72,483
415,20	83,391
415,41	75,071
415,63	67,662
415,84	86,389
416,05	71,154
416,27	73,385
416,48	81,742
416,69	82,965
416,91	70,000
417,12	73,529
417,33	70,105
417,55	65,191
417,76	84,189
417,97	60,166
418,19	75,547
418,40	78,298
418,61	69,630
418,83	72,364
419,04	58,833
419,25	53,738
419,46	58,346
419,68	66,508
419,89	57,377
420,10	57,959
420,32	51,681
420,53	56,781
420,74	49,301
420,96	49,500
421,17	49,307
421,38	50,272
421,60	46,578
421,81	45,672
422,02	46,499
422,23	47,700
422,45	44,066
422,66	42,797
422,87	40,541
423,09	41,620
423,30	39,654
423,51	39,213
423,73	38,860
423,94	41,317
424,15	37,143
424,36	39,311
424,58	37,000
424,79	42,286
425,00	38,638
425,22	37,831
425,43	38,196
425,64	41,613
425,85	40,642
426,07	43,131
426,28	41,843
426,49	41,934
426,71	42,281
426,92	40,487
427,13	38,462
427,34	39,975
427,56	42,101
427,77	37,640
427,98	40,232
428,19	35,982
428,41	36,450
428,62	35,329
428,83	33,729
429,04	31,062
429,26	31,751
429,47	27,852
429,68	26,260
429,89	22,822
430,11	22,614
430,32	21,269
430,53	20,668
430,74	17,422
430,96	16,216
431,17	16,897
431,38	15,150
431,59	15,074
431,81	14,053
432,02	11,694
432,23	11,900
432,44	10,491
432,66	10,948
432,87	9,630
433,08	9,253
433,29	8,190
433,51	6,833
433,72	8,052
433,93	5,729
434,14	7,216
434,35	5,478
434,57	6,284
434,78	5,920
434,99	5,584
435,20	4,386
435,42	3,135
435,63	3,569
435,84	3,320
436,05	3,135
436,26	2,131
436,48	2,267
436,69	1,233
436,90	2,039
437,11	1,571
437,32	1,896
437,54	1,810
437,75	1,183
437,96	1,772
438,17	1,006
438,38	1,709
438,60	1,247
438,81	0,708
439,02	1,427
439,23	0,484
439,44	0,935
439,66	1,072
439,87	1,270
440,08	0,642
440,29	0,709
440,50	0,921
440,72	0,670
440,93	0,979
441,14	0,970
441,35	1,076
441,56	0,751
441,77	1,016
441,99	0,788
442,20	0,813
442,41	0,413
442,62	0,594
442,83	0,815
443,04	0,552
443,26	0,688
443,47	1,015
443,68	0,723
443,89	0,984
444,10	0,448
444,31	0,761
444,53	0,862
444,74	0,504
444,95	0,892
445,16	0,518
445,37	0,828
445,58	0,737
445,80	0,571
446,01	0,724
446,22	0,857
446,43	0,667
446,64	0,746
446,85	0,631
447,06	0,702
447,28	0,545
447,49	0,664
447,70	0,899
447,91	0,753
448,12	0,525
448,33	0,474
448,54	0,581
448,76	0,737
448,97	0,992
449,18	0,762
449,39	0,693
449,60	0,685
449,81	0,795
450,02	1,011
450,23	0,725
450,45	0,733
450,66	0,701
450,87	0,784
451,08	0,828
451,29	1,136
451,50	0,944
451,71	1,066
451,92	0,655
452,13	0,632
452,35	0,979
452,56	0,954
452,77	1,140
452,98	0,743
453,19	0,515
453,40	0,645
453,61	1,073
453,82	0,599
454,03	0,611
454,25	0,864
454,46	0,834
454,67	1,000
454,88	0,832
455,09	0,973
455,30	0,989
455,51	0,849
455,72	0,991
455,93	0,927
456,14	0,752
456,35	1,119
456,56	0,981
456,78	0,840
456,99	0,870
457,20	0,991
457,41	0,737
457,62	0,887
457,83	0,891
458,04	0,941
458,25	0,707
458,46	0,841
458,67	1,089
458,88	0,960
459,09	0,746
459,30	0,882
459,51	0,903
459,73	0,509
459,94	1,012
460,15	0,918
460,36	0,805
460,57	0,968
460,78	0,918
460,99	1,242
461,20	1,333
461,41	1,754
461,62	1,901
461,83	2,454
462,04	2,790
462,25	3,476
462,46	3,830
462,67	4,197
462,88	4,711
463,09	5,397
463,30	5,887
463,51	6,709
463,72	7,299
463,93	7,958
464,15	8,667
464,36	10,028
464,57	10,794
464,78	11,692
464,99	13,451
465,20	14,737
465,41	16,102
465,62	17,783
465,83	19,247
466,04	20,759
466,25	22,579
466,46	24,360
466,67	26,018
466,88	27,827
467,09	30,156
467,30	31,662
467,51	33,782
467,72	35,602
467,93	37,901
468,14	40,131
468,35	42,049
468,56	43,987
468,77	45,525
468,98	47,140
469,19	47,858
469,40	49,036
469,61	50,584
469,82	50,620
470,03	51,149
470,24	51,288
470,45	50,590
470,66	49,989
470,87	49,405
471,08	48,686
471,29	47,049
471,50	46,540
471,71	44,342
471,92	43,793
472,13	42,734
472,34	41,271
472,55	40,766
472,76	40,484
472,97	40,121
473,18	39,112
473,39	39,688
473,60	40,277
473,81	40,979
474,01	41,720
474,22	44,303
474,43	45,112
474,64	47,155
474,85	48,280
475,06	51,178
475,27	53,086
475,48	55,061
475,69	55,989
475,90	58,910
476,11	60,675
476,32	62,123
476,53	63,956
476,74	64,265
476,95	66,011
477,16	65,696
477,37	66,175
477,58	67,348
477,79	66,661
478,00	66,410
478,21	65,710
478,41	64,912
478,62	64,400
478,83	63,249
479,04	63,132
479,25	61,474
479,46	61,321
479,67	60,506
479,88	60,572
480,09	60,913
480,30	61,044
480,51	62,980
480,72	62,993
480,93	62,885
481,14	63,884
481,34	64,019
481,55	65,605
481,76	65,631
481,97	67,400
482,18	67,704
482,39	68,440
482,60	67,741
482,81	69,274
483,02	69,249
483,23	70,717
483,44	70,841
483,65	71,999
483,85	72,979
484,06	74,090
484,27	74,533
484,48	74,914
484,69	74,576
484,90	74,720
485,11	74,779
485,32	74,939
485,53	73,762
485,73	74,739
485,94	73,775
486,15	72,348
486,36	72,410
486,57	72,083
486,78	71,216
486,99	70,362
487,20	70,057
487,41	70,229
487,61	70,633
487,82	69,734
488,03	70,667
488,24	70,537
488,45	71,204
488,66	69,853
488,87	70,095
489,08	68,460
489,28	67,829
489,49	67,022
489,70	65,444
489,91	65,212
490,12	63,698
490,33	62,074
490,54	61,524
490,74	61,437
490,95	59,978
491,16	59,343
491,37	59,533
491,58	59,054
491,79	58,288
492,00	59,667
492,20	59,350
492,41	59,139
492,62	59,085
492,83	58,373
493,04	58,861
493,25	58,968
493,45	58,312
493,66	58,228
493,87	58,711
494,08	57,660
494,29	57,514
494,50	58,804
494,70	59,247
494,91	60,196
495,12	60,330
495,33	61,124
495,54	61,787
495,75	62,159
495,95	62,984
496,16	63,216
496,37	64,330
496,58	64,638
496,79	65,037
496,99	65,022
497,20	66,031
497,41	66,522
497,62	66,342
497,83	66,734
498,04	65,820
498,24	66,455
498,45	66,400
498,66	65,819
498,87	65,291
499,08	65,461
499,28	64,664
499,49	63,945
499,70	62,725
499,91	61,900
500,12	59,381
500,32	57,853
500,53	56,907
500,74	55,474
500,95	54,364
501,15	53,202
501,36	51,467
501,57	50,643
501,78	49,107
501,99	47,506
502,19	47,312
502,40	45,961
502,61	45,213
502,82	44,961
503,02	43,887
503,23	43,312
503,44	43,127
503,65	42,394
503,86	40,796
504,06	40,657
504,27	40,151
504,48	39,163
504,69	38,057
504,89	37,159
505,10	35,651
505,31	34,918
505,52	33,019
505,72	31,961
505,93	30,539
506,14	29,360
506,35	28,107
506,55	26,591
506,76	25,041
506,97	23,601
507,18	22,591
507,38	21,726
507,59	20,002
507,80	19,271
508,01	17,506
508,21	16,683
508,42	15,628
508,63	14,246
508,84	13,430
509,04	12,285
509,25	11,403
509,46	10,302
509,67	9,495
509,87	8,271
510,08	7,168
510,29	6,351
510,49	5,644
510,70	4,629
510,91	3,857
511,12	3,252
511,32	2,594
511,53	2,276
511,74	1,604
511,94	1,390
512,15	0,912
512,36	1,099
512,57	0,712
512,77	0,741
512,98	0,743
513,19	0,528
513,39	0,440
513,60	0,489
513,81	0,571
514,01	0,592
514,22	0,839
514,43	0,804
514,64	0,399
514,84	0,541
515,05	0,601
515,26	0,591
515,46	0,678
515,67	0,405
515,88	0,673
516,08	0,649
516,29	0,852
516,50	0,528
516,70	0,455
516,91	0,756
517,12	0,567
517,32	0,752
517,53	0,648
517,74	0,778
517,95	0,542
518,15	0,712
518,36	0,661
518,57	0,495
518,77	0,489
518,98	0,604
519,19	0,473
519,39	0,513
519,60	0,736
519,80	0,620
520,01	0,538
520,22	0,646
520,42	0,524
520,63	0,616
520,84	0,457
521,04	0,582
521,25	0,640
521,46	0,609
521,66	0,554
521,87	0,432
522,08	0,729
522,28	0,756
522,49	0,497
522,70	0,881
522,90	0,798
523,11	0,427
523,31	0,817
523,52	0,496
523,73	0,712
523,93	0,645
524,14	0,509
524,35	0,565
524,55	0,712
524,76	0,600
524,97	0,708
525,17	0,636
525,38	0,579
525,58	0,670
525,79	0,461
526,00	0,572
526,20	0,625
526,41	0,560
526,61	0,686
526,82	0,511
527,03	0,516
527,23	0,678
527,44	0,631
527,64	0,471
527,85	0,416
528,06	0,723
528,26	0,628
528,47	0,504
528,68	0,590
528,88	0,745
529,09	0,571
529,29	0,664
529,50	0,508
529,70	0,707
529,91	0,730
530,12	0,752
530,32	0,558
530,53	0,814
530,73	0,837
530,94	0,785
531,15	0,790
531,35	0,662
531,56	0,920
531,76	1,109
531,97	0,980
532,17	1,081
532,38	1,349
532,59	1,269
532,79	1,741
533,00	1,804
533,20	2,096
533,41	2,206
533,61	2,661
533,82	3,316
534,03	3,336
534,23	4,478
534,44	4,889
534,64	5,553
534,85	6,467
535,05	7,601
535,26	8,527
535,46	9,781
535,67	10,733
535,88	12,184
536,08	13,454
536,29	15,340
536,49	16,843
536,70	18,495
536,90	20,583
537,11	22,200
537,31	24,138
537,52	26,093
537,72	28,507
537,93	30,063
538,13	31,779
538,34	34,528
538,55	35,678
538,75	37,500
538,96	39,062
539,16	40,958
539,37	41,787
539,57	43,891
539,78	45,448
539,98	46,523
540,19	47,579
540,39	49,810
540,60	50,004
540,80	51,362
541,01	53,054
541,21	54,512
541,42	54,697
541,62	56,384
541,83	58,649
542,03	59,414
542,24	60,710
542,44	62,209
542,65	63,303
542,85	65,032
543,06	65,304
543,26	66,613
543,47	67,737
543,67	68,664
543,88	69,702
544,08	70,034
544,29	70,531
544,49	70,202
544,70	69,341
544,90	69,193
545,11	69,135
545,31	68,296
545,52	67,347
545,72	67,164
545,93	66,589
546,13	66,223
546,34	65,862
546,54	65,407
546,75	65,340
546,95	65,539
547,15	65,350
547,36	66,317
547,56	66,603
547,77	67,083
547,97	68,634
548,18	69,042
548,38	69,442
548,59	70,753
548,79	70,322
549,00	72,018
549,20	73,949
549,41	73,528
549,61	75,240
549,81	76,190
550,02	76,090
550,22	76,820
550,43	78,553
550,63	78,219
550,84	78,509
551,04	80,224
551,25	81,172
551,45	80,143
551,65	81,310
551,86	83,539
552,06	83,422
552,27	83,807
552,47	83,604
552,68	85,315
552,88	83,661
553,08	83,878
553,29	85,878
553,49	84,569
553,70	85,346
553,90	85,491
554,11	85,616
554,31	85,291
554,51	86,074
554,72	84,733
554,92	84,899
555,13	83,894
555,33	83,993
555,53	84,425
555,74	83,330
555,94	82,751
556,15	81,730
556,35	81,050
556,56	79,593
556,76	79,154
556,96	78,099
557,17	75,321
557,37	74,799
557,58	72,992
557,78	71,978
557,98	70,112
558,19	67,934
558,39	67,726
558,59	65,753
558,80	64,006
559,00	62,254
559,21	62,001
559,41	59,993
559,61	59,842
559,82	59,006
560,02	58,026
560,23	56,912
560,43	56,835
560,63	55,777
560,84	55,497
561,04	55,448
561,24	54,864
561,45	54,573
561,65	54,348
561,85	54,066
562,06	53,825
562,26	53,211
562,47	53,048
562,67	52,297
562,87	52,439
563,08	51,069
563,28	49,705
563,48	48,761
563,69	47,126
563,89	47,208
564,09	46,033
564,30	44,400
564,50	43,759
564,70	43,259
564,91	41,923
565,11	40,908
565,31	40,065
565,52	38,687
565,72	38,384
565,92	38,376
566,13	37,205
566,33	37,210
566,53	37,038
566,74	36,734
566,94	36,136
567,14	36,644
567,35	36,040
567,55	36,424
567,75	36,445
567,96	36,578
568,16	36,262
568,36	35,846
568,57	35,972
568,77	35,476
568,97	34,887
569,18	34,566
569,38	34,738
569,58	32,863
569,79	32,686
569,99	32,137
570,19	31,322
570,39	31,140
570,60	29,771
570,80	29,914
571,00	29,068
571,21	28,766
571,41	28,367
571,61	27,833
571,82	27,597
572,02	27,453
572,22	27,121
572,42	26,811
572,63	25,993
572,83	25,841
573,03	25,665
573,24	25,394
573,44	24,261
573,64	24,009
573,84	23,479
574,05	22,827
574,25	22,542
574,45	21,313
574,66	20,855
574,86	20,364
575,06	19,117
575,26	17,819
575,47	16,730
575,67	15,541
575,87	14,642
576,07	13,349
576,28	11,702
576,48	11,168
576,68	9,522
576,88	8,451
577,09	7,516
577,29	6,634
577,49	6,043
577,69	5,456
577,90	4,610
578,10	3,927
578,30	3,571
578,50	3,148
578,71	2,892
578,91	2,275
579,11	2,010
579,31	1,507
579,52	1,335
579,72	1,318
579,92	0,973
580,12	0,900
580,33	0,887
580,53	0,749
580,73	0,755
580,93	0,831
581,13	0,587
581,34	0,616
581,54	0,583
581,74	0,633
581,94	0,855
582,15	0,400
582,35	0,311
582,55	0,540
582,75	0,539
582,95	0,515
583,16	0,431
583,36	0,534
583,56	0,400
583,76	0,400
583,96	0,652
584,17	0,441
584,37	0,605
584,57	0,412
584,77	0,491
584,97	0,517
585,18	0,463
585,38	0,559
585,58	0,520
585,78	0,540
585,98	0,527
586,19	0,390
586,39	0,430
586,59	0,480
586,79	0,263
586,99	0,416
587,20	0,305
587,40	0,538
587,60	0,467
587,80	0,494
588,00	0,397
588,20	0,305
588,41	0,690
588,61	0,470
588,81	0,286
589,01	0,429
589,21	0,480
589,41	0,680
589,62	0,492
589,82	0,325
590,02	0,198
590,22	0,477
590,42	0,326
590,62	0,461
590,83	0,468
591,03	0,486
591,23	0,295
591,43	0,624
591,63	0,649
591,83	0,321
592,03	0,484
592,24	0,445
592,44	0,476
592,64	0,360
592,84	0,557
593,04	0,415
593,24	0,382
593,44	0,432
593,65	0,482
593,85	0,502
594,05	0,312
594,25	0,567
594,45	0,459
594,65	0,427
594,85	0,458
595,06	0,419
595,26	0,532
595,46	0,295
595,66	0,314
595,86	0,629
596,06	0,418
596,26	0,409
596,46	0,430
596,66	0,500
596,87	0,462
597,07	0,263
597,27	0,361
597,47	0,472
597,67	0,615
597,87	0,590
598,07	0,350
598,27	0,602
598,47	0,585
598,67	0,434
598,88	0,489
599,08	0,581
599,28	0,338
599,48	0,457
599,68	0,752
599,88	0,417
600,08	0,466
600,28	0,491
600,48	0,406
600,68	0,422
600,88	0,553
601,09	0,461
601,29	0,438
601,49	0,597
601,69	0,596
601,89	0,296
602,09	0,474
602,29	0,593
602,49	0,531
602,69	0,515
602,89	0,645
603,09	0,417
603,29	0,601
603,49	0,716
603,69	0,824
603,90	0,823
604,10	0,964
604,30	1,046
604,50	1,008
604,70	1,185
604,90	1,127
605,10	1,416
605,30	1,639
605,50	1,809
605,70	2,273
605,90	2,634
606,10	2,723
606,30	3,081
606,50	3,681
606,70	4,059
606,90	4,459
607,10	5,159
607,30	5,631
607,50	6,098
607,70	6,882
607,90	7,917
608,10	8,587
608,30	9,315
608,50	11,023
608,70	11,798
608,90	12,923
609,11	13,936
609,31	15,177
609,51	16,552
609,71	17,794
609,91	18,674
610,11	20,224
610,31	21,911
610,51	23,050
610,71	24,646
610,91	25,746
611,11	27,244
611,31	28,574
611,51	30,210
611,71	30,922
611,91	31,973
612,11	33,153
612,31	34,150
612,51	35,003
612,71	35,739
612,91	36,741
613,11	36,783
613,31	38,297
613,51	38,541
613,71	40,001
613,91	40,884
614,11	41,725
614,31	42,448
614,50	43,871
614,70	44,918
614,90	46,253
615,10	48,066
615,30	49,270
615,50	50,309
615,70	52,156
615,90	54,309
616,10	55,274
616,30	57,123
616,50	59,471
616,70	60,692
616,90	63,538
617,10	64,897
617,30	66,277
617,50	68,373
617,70	70,273
617,90	70,545
618,10	72,055
618,30	73,962
618,50	74,200
618,70	76,315
618,90	77,099
619,10	76,497
619,30	77,022
619,49	77,320
619,69	76,813
619,89	76,888
620,09	77,344
620,29	77,491
620,49	75,826
620,69	75,903
620,89	75,312
621,09	73,417
621,29	73,750
621,49	71,990
621,69	70,387
621,89	69,385
622,09	67,870
622,29	67,336
622,48	66,306
622,68	63,634
622,88	62,543
623,08	61,156
623,28	59,874
623,48	59,461
623,68	59,815
623,88	57,820
624,08	56,739
624,28	56,834
624,48	55,412
624,67	55,225
624,87	54,251
625,07	54,005
625,27	53,692
625,47	53,562
625,67	53,278
625,87	52,500
626,07	51,555
626,27	50,370
626,47	50,772
626,66	50,599
626,86	50,082
627,06	50,099
627,26	49,737
627,46	49,308
627,66	49,683
627,86	49,075
628,06	49,378
628,25	48,448
628,45	48,658
628,65	48,990
628,85	48,269
629,05	47,298
629,25	47,653
629,45	46,984
629,65	47,196
629,84	46,604
630,04	46,877
630,24	45,951
630,44	46,338
630,64	46,925
630,84	46,804
631,04	46,106
631,23	46,833
631,43	47,209
631,63	46,449
631,83	46,999
632,03	46,337
632,23	46,064
632,42	46,155
632,62	46,092
632,82	46,031
633,02	45,944
633,22	46,189
633,42	45,097
633,62	45,480
633,81	45,317
634,01	44,400
634,21	44,470
634,41	44,115
634,61	43,180
634,80	42,996
635,00	41,889
635,20	42,148
635,40	40,574
635,60	40,278
635,80	39,574
635,99	39,030
636,19	38,418
636,39	37,461
636,59	36,024
636,79	36,075
636,98	35,164
637,18	34,548
637,38	34,059
637,58	33,446
637,78	32,476
637,97	32,424
638,17	32,524
638,37	32,242
638,57	30,996
638,77	31,151
638,96	30,585
639,16	29,650
639,36	29,419
639,56	28,381
639,76	27,872
639,95	26,921
640,15	25,724
640,35	24,512
640,55	22,830
640,75	21,389
640,94	19,944
641,14	18,485
641,34	17,205
641,54	15,652
641,73	14,322
641,93	13,510
642,13	12,173
642,33	12,009
642,53	10,433
642,72	10,177
642,92	9,942
643,12	9,473
643,32	9,678
643,51	9,183
643,71	9,200
643,91	9,819
644,11	10,719
644,30	10,914
644,50	10,688
644,70	11,629
644,90	12,058
645,09	13,075
645,29	13,098
645,49	14,480
645,69	14,813
645,88	15,189
646,08	15,283
646,28	15,973
646,48	15,696
646,67	15,411
646,87	15,134
647,07	14,324
647,26	14,268
647,46	13,107
647,66	12,328
647,86	11,802
648,05	11,083
648,25	11,028
648,45	10,011
648,65	9,509
648,84	8,924
649,04	8,554
649,24	7,982
649,43	7,223
649,63	6,897
649,83	6,659
650,03	6,040
650,22	6,011
650,42	4,998
650,62	4,926
650,81	4,661
651,01	3,685
651,21	3,653
651,40	2,868
651,60	2,952
651,80	2,169
652,00	2,223
652,19	2,135
652,39	1,997
652,59	1,679
652,78	1,672
652,98	1,246
653,18	0,903
653,37	1,198
653,57	0,981
653,77	0,836
653,96	0,992
654,16	1,129
654,36	1,107
654,55	1,185
654,75	0,987
654,95	1,063
655,14	0,474
655,34	0,769
655,54	0,578
655,73	0,813
655,93	1,296
656,13	0,625
656,32	0,603
656,52	0,472
656,72	0,838
656,91	0,760
657,11	0,808
657,31	0,807
657,50	0,931
657,70	0,463
657,90	0,783
658,09	0,696
658,29	0,924
658,49	0,560
658,68	1,096
658,88	1,078
659,07	0,466
659,27	0,597
659,47	1,216
659,66	0,574
659,86	1,046
660,06	0,707
660,25	0,459
660,45	0,648
660,64	0,511
660,84	0,904
661,04	0,752
661,23	0,938
661,43	0,656
661,63	0,880
661,82	0,692
662,02	0,856
662,21	0,650
662,41	0,729
662,61	0,676
662,80	0,626
663,00	0,629
663,19	0,614
663,39	0,984
663,59	1,350
663,78	0,551
663,98	0,593
664,17	0,771
664,37	0,857
664,57	0,912
664,76	1,156
664,96	0,520
665,15	0,344
665,35	0,600
665,55	0,701
665,74	0,778
665,94	0,362
666,13	0,963
666,33	0,345
666,53	0,676
666,72	0,298
666,92	0,998
667,11	1,019
667,31	0,741
667,50	0,932
667,70	0,914
667,90	0,977
668,09	0,704
668,29	0,754
668,48	0,874
668,68	0,579
668,87	0,881
669,07	0,846
669,26	0,888
669,46	0,683
669,66	0,548
669,85	1,003
670,05	0,272
670,24	0,712
670,44	0,677
670,63	0,753
670,83	0,772
671,02	1,074
671,22	0,952
671,42	0,695
671,61	0,372
671,81	0,462
672,00	0,564
672,20	0,630
672,39	0,341
672,59	0,501
672,78	0,525
672,98	0,666
673,17	0,475
673,37	0,666
673,56	0,618
673,76	0,767
673,95	0,598
674,15	0,512
674,34	0,354
674,54	0,698
674,73	0,675
674,93	0,528
675,13	0,247
675,32	0,770
675,52	0,720
675,71	0,647
675,91	0,671
676,10	0,419
676,30	0,492
676,49	0,455
676,69	0,521
676,88	0,655
677,08	0,609
677,27	0,517
677,47	0,201
677,66	0,747
677,86	0,647
678,05	0,973
678,24	0,482
678,44	0,487
678,63	0,394
678,83	0,624
679,02	0,651
679,22	0,181
679,41	0,638
679,61	0,430
679,80	0,506
680,00	0,613
680,19	0,543
680,39	0,694
680,58	0,383
680,78	0,405
680,97	0,323
681,17	0,825
681,36	0,333
681,56	0,609
681,75	0,534
681,94	0,498
682,14	0,639
682,33	0,256
682,53	0,515
682,72	0,561
682,92	0,597
683,11	0,515
683,31	0,243
683,50	0,518
683,69	0,601
683,89	0,337
684,08	0,327
684,28	0,329
684,47	0,548
684,67	0,385
684,86	0,156
685,06	0,390
685,25	0,479
685,44	0,205
685,64	0,379
685,83	0,565
686,03	0,218
686,22	0,211
686,42	0,220
686,61	0,612
686,80	0,357
687,00	0,397
687,19	0,466
687,39	0,064
687,58	0,328
687,77	0,277
687,97	0,453
688,16	0,103
688,36	0,339
688,55	0,388
688,74	0,427
688,94	0,215
689,13	0,316
689,33	0,422
689,52	0,329
689,71	0,253
689,91	0,170
690,10	0,404
690,30	0,248
690,49	0,419
690,68	0,409
690,88	0,369
691,07	0,185
691,27	0,306
691,46	0,283
691,65	0,556
691,85	0,298
692,04	0,230
692,23	0,184
692,43	0,253
692,62	0,380
692,82	0,417
693,01	0,255
693,20	0,569
693,40	0,170
693,59	0,525
693,78	0,384
693,98	0,211
694,17	0,248
694,36	0,423
694,56	0,378
694,75	0,154
694,94	0,353
695,14	0,578
695,33	0,186
695,53	0,400
695,72	0,369
695,91	0,349
696,11	0,401
696,30	0,333
696,49	0,259
696,69	0,272
696,88	0,310
697,07	0,371
697,27	0,141
697,46	0,304
697,65	0,315
697,85	0,293
698,04	0,672
698,23	0,569
698,43	0,423
698,62	0,210
698,81	0,488
699,01	0,855
699,20	0,519
699,39	0,335
699,58	0,405
699,78	0,528
699,97	0,416
700,16	1,077
700,36	0,630
700,55	1,171
700,74	0,657
700,94	0,745
701,13	0,712
701,32	0,938
701,52	0,894
701,71	0,742
701,90	1,443
702,09	1,116
702,29	1,101
702,48	1,417
702,67	0,905
702,87	0,834
703,06	1,520
703,25	1,357
703,44	1,057
703,64	2,268
703,83	1,520
704,02	1,256
704,22	0,971
704,41	1,218
704,60	1,902
704,79	1,528
704,99	1,801
705,18	1,361
705,37	1,723
705,56	1,878
705,76	2,350
705,95	2,116
706,14	1,957
706,33	2,433
706,53	2,660
706,72	1,424
706,91	2,587
707,11	2,021
707,30	2,716
707,49	2,030
707,68	0,831
707,88	2,763
708,07	1,624
708,26	2,022
708,45	2,338
708,64	2,695
708,84	2,303
709,03	2,506
709,22	2,497
709,41	2,485
709,61	2,965
709,80	2,640
709,99	2,726
710,18	4,364
710,38	3,020
710,57	3,054
710,76	2,926
710,95	2,990
711,14	5,166
711,34	3,082
711,53	3,331
711,72	2,997
711,91	2,020
712,11	3,248
712,30	5,030
712,49	3,547
712,68	4,217
712,87	5,548
713,07	5,002
713,26	1,545
713,45	5,447
713,64	2,851
713,83	3,129
714,03	6,878
714,22	2,526
714,41	4,456
714,60	3,457
714,79	3,786
714,99	5,315
715,18	2,822
715,37	4,658
715,56	5,474
715,75	3,033
715,94	3,027
716,14	4,208
716,33	4,203
716,52	3,145
716,71	4,134
716,90	6,346
717,10	6,595
717,29	3,429
717,48	7,845
717,67	3,966
717,86	5,130
718,05	-0,180
718,24	6,890
718,44	5,052
718,63	4,880
718,82	7,683
719,01	6,051
719,20	3,480
719,39	5,774
719,59	4,254
719,78	4,533
719,97	6,974
720,16	4,935
720,35	4,846
720,54	6,559
720,73	3,717
720,93	7,384
721,12	2,509
721,31	6,034
721,50	4,970
721,69	4,345
721,88	7,768
722,07	4,511
722,27	6,341
722,46	7,829
722,65	4,988
722,84	7,692
723,03	3,938
723,22	5,390
723,41	6,403
723,60	9,691
723,79	5,525
723,99	8,076
724,18	8,415
724,37	9,622
724,56	9,010
724,75	5,080
724,94	10,636
725,13	10,986
725,32	10,266
725,51	9,754
725,71	4,451
725,90	8,826
726,09	10,961
726,28	10,811
726,47	6,738
726,66	12,093
726,85	7,172
727,04	9,865
727,23	5,169
727,42	9,854
727,61	4,550
727,81	9,802
728,00	9,543
728,19	4,577
728,38	6,587
728,57	9,434
728,76	12,944
728,95	9,933
729,14	5,096
729,33	14,270
729,52	15,186
729,71	13,892
729,90	7,463
730,09	9,112
730,28	12,818
730,48	8,469
730,67	17,533
730,86	7,463
731,05	8,879
731,24	11,995
731,43	10,314
731,62	15,288
731,81	11,436
732,00	9,657
732,19	5,619
732,38	6,937
732,57	11,717
732,76	14,167
732,95	9,733
733,14	4,941
733,33	11,813
733,52	11,259
733,71	8,685
733,90	11,954
734,09	10,362
734,28	13,655
734,47	6,053
734,66	14,247
734,85	8,936
735,04	8,583
735,23	12,698
735,42	8,501
735,61	14,933
735,81	8,966
736,00	15,512
736,19	13,905
736,38	13,481
736,57	18,802
736,76	3,721
736,95	17,424
737,14	15,957
737,33	13,644
737,52	13,122
737,71	9,455
737,90	18,608
738,09	13,650
738,28	17,384
738,47	11,111
738,66	18,437
738,85	8,763
739,04	19,525
739,22	9,122
739,41	12,419
739,60	10,201
739,79	11,473
739,98	5,626
740,17	14,966
740,36	18,393
740,55	16,931
740,74	9,913
740,93	12,195
741,12	18,934
741,31	13,051
741,50	12,053
741,69	8,333
741,88	10,200
742,07	16,787
742,26	13,670
742,45	16,206
742,64	24,101
742,83	4,043
743,02	14,054
743,21	21,529
743,40	20,537
743,59	11,680
743,78	20,742
743,97	16,729
744,16	20,843
744,34	17,913
744,53	14,959
744,72	29,314
744,91	11,158
745,10	19,873
745,29	20,331
745,48	12,524
745,67	21,181
745,86	13,850
746,05	11,644
746,24	24,183
746,43	21,277
746,62	17,742
746,81	13,470
747,00	21,712
747,18	17,802
747,37	20,469
747,56	17,978
747,75	15,098
747,94	28,446
748,13	33,105
748,32	15,385
748,51	27,314
748,70	28,058
748,89	19,565
749,08	7,714
749,26	13,842
749,45	25,647
749,64	10,174
749,83	22,392
750,02	22,376
750,21	20,235
750,40	15,625
750,59	26,179
750,78	34,615
750,96	26,257
751,15	9,836
751,34	29,319
751,53	23,399
751,72	29,111
751,91	17,808
752,10	27,160
752,29	29,379
752,47	29,775
752,66	29,296
752,85	23,529
753,04	23,975
753,23	21,854
753,42	27,052
753,61	15,686
753,80	23,848
753,98	25,614
754,17	26,380
754,36	23,729
754,55	22,257
754,74	26,590
754,93	15,850
755,12	25,067
755,30	20,499
755,49	22,324
755,68	37,464
755,87	12,913
756,06	20,112
756,25	35,556
756,43	31,724
756,62	25,816
756,81	23,762
757,00	20,290
757,19	29,110
757,38	29,968
757,56	31,613
757,75	25,817
757,94	27,445
758,13	24,026
758,32	25,758
758,51	37,868
758,69	23,600
758,88	36,637
759,07	28,674
759,26	37,209
759,45	20,087
759,63	42,007
759,82	26,263
760,01	25,084
760,20	26,848
760,39	41,418
760,57	42,562
760,76	15,315
760,95	14,352
761,14	41,224
761,33	33,750
761,51	39,427
761,70	32,759
761,89	27,869
762,08	47,907
762,27	31,136
762,45	35,019
762,64	32,234
762,83	38,053
763,02	50,233
763,21	29,310
763,39	49,388
763,58	38,113
763,77	18,533
763,96	56,627
764,14	48,333
764,33	33,333
764,52	55,794
764,71	46,188
764,89	26,961
765,08	43,966
765,27	50,929
765,46	28,804
765,65	31,004
765,83	38,095
766,02	24,681
766,21	30,387
766,40	42,381
766,58	30,488
766,77	41,294
766,96	50,455
767,15	56,039
767,33	10,526
767,52	43,293
767,71	52,174
767,90	34,270
768,08	34,630
768,27	28,500
768,46	53,125
768,64	49,741
768,83	44,792
769,02	66,000
769,21	43,231
769,39	38,372
769,58	57,803
769,77	42,912
769,96	38,220
770,14	57,823
770,33	29,907
770,52	27,513
770,70	42,000
770,89	67,114
771,08	49,153
771,27	58,247
771,45	50,877
771,64	60,417
771,83	50,000
772,01	54,819
772,20	63,317
772,39	24,000
772,57	19,380
772,76	43,704
772,95	56,738
773,14	56,989
773,32	52,258
773,51	49,751
773,70	77,500
773,88	60,656
774,07	65,969
774,26	35,461
774,44	42,073
774,63	60,914
774,82	53,659
775,00	56,000
775,19	31,200
775,38	61,272
775,56	50,000
775,75	72,892
775,94	64,557
776,12	29,834
776,31	51,765
776,50	50,000
776,68	84,211
776,87	46,591
777,06	84,138
777,24	56,111
777,43	43,590
777,62	76,471
777,80	79,054
777,99	61,143
778,18	69,307
778,36	55,200
778,55	80,992
778,74	67,361
778,92	64,497
779,11	110,000
779,29	48,428
779,48	47,619
779,67	48,062
779,85	64,228
780,04	42,703
780,23	60,432
780,41	64,063
780,60	55,789
780,79	85,311
780,97	90,132
781,16	55,758
781,34	91,753
781,53	69,231
781,72	58,394
781,90	36,719
782,09	60,000
782,28	92,701
782,46	56,296
782,65	49,286
782,83	106,742
783,02	90,000
783,21	82,667
783,39	69,565
783,58	83,432
783,76	86,034
783,95	58,788
784,14	84,106
784,32	68,456
784,51	70,690
784,69	76,271
784,88	120,721
785,06	54,622
785,25	81,529
785,44	79,856
785,62	82,143
785,81	109,859
785,99	100,719
786,18	74,324
786,37	71,852
786,55	45,872
786,74	71,711
786,92	66,406
787,11	98,333
787,29	48,507
787,48	35,333
787,67	93,976
787,85	85,345
788,04	58,911
788,22	79,508
788,41	128,235
788,59	127,523
788,78	59,394
788,96	99,057
789,15	84,211
789,34	73,636
789,52	66,372
789,71	74,419
789,89	153,191
790,08	76,027
790,26	24,286
790,45	34,091
790,63	64,815
790,82	69,697
791,00	65,972
791,19	78,495
791,38	107,639
791,56	90,351
791,75	89,908
791,93	82,759
792,12	91,124
792,30	86,400
792,49	57,983
792,67	100,000
792,86	86,822
793,04	69,159
793,23	38,333
793,41	108,861
793,60	69,697
793,78	100,877
793,97	71,795
794,15	43,636
794,34	87,912
794,52	129,870
794,71	112,346
794,89	80,000
795,08	90,291
795,26	78,333
795,45	141,791
795,63	102,273
795,82	107,477
796,00	65,138
796,19	81,667
796,37	97,810
796,56	91,398
796,74	65,487
796,93	87,640
797,11	88,608
797,30	74,167
797,48	89,655
797,67	97,500
797,85	95,918
798,04	84,375
798,22	70,635
798,41	108,824
798,59	106,316
798,77	86,154
798,96	92,473
799,14	81,034
799,33	105,344
799,51	77,692
799,70	58,389
799,88	93,939
800,07	73,684
800,25	55,862
800,44	43,434
800,62	95,294
800,80	107,246
800,99	146,032
801,17	81,034
801,36	74,483
801,54	130,208
801,73	76,768
801,91	91,803
802,10	114,286
802,28	113,084
802,46	117,284
802,65	33,333
802,83	129,213
803,02	52,632
803,20	83,594
803,39	-17,241
803,57	93,976
803,75	74,324
803,94	103,361
804,12	55,000
804,31	61,947
804,49	65,385
804,67	106,400
804,86	70,536
805,04	65,541
805,23	88,966
805,41	105,738
805,59	55,738
805,78	92,424
805,96	79,487
806,15	98,438
806,33	110,924
806,51	71,681
806,70	150,000
806,88	93,496
807,07	63,492
807,25	51,572
807,43	76,159
807,62	95,122
807,80	120,430
807,99	73,016
808,17	93,617
808,35	112,281
808,54	72,043
808,72	90,400
808,90	93,421
809,09	86,667
809,27	95,495
809,46	139,286
809,64	82,353
809,82	67,816
810,01	94,697
810,19	95,000
810,37	70,769
810,56	123,171
810,74	81,457
810,92	62,879
811,11	103,922
811,29	74,468
811,48	96,970
811,66	103,876
811,84	94,495
812,03	40,909
812,21	82,051
812,39	88,136
812,58	67,647
812,76	81,308
812,94	95,333
813,13	60,317
813,31	113,333
813,49	113,043
813,68	68,696
813,86	109,184
814,04	117,476
814,23	124,242
814,41	30,882
814,59	58,757
814,78	75,735
814,96	78,378
815,14	138,889
815,33	91,304
815,51	65,926
815,69	117,284
815,87	73,043
816,06	91,875
816,24	84,106
816,42	43,590
816,61	99,153
816,79	87,952
816,97	63,964
817,16	60,645
817,34	88,276
817,52	75,862
817,70	107,143
817,89	61,983
818,07	78,448
818,25	111,712
818,44	52,907
818,62	87,931
818,80	93,706
818,98	56,190
819,17	77,692
819,35	65,882
819,53	87,129
819,72	61,628
819,90	71,257
820,08	23,377
820,26	87,719
820,45	83,133
820,63	83,333
820,81	55,705
820,99	65,414
821,18	46,667
821,36	53,333
821,54	72,674
821,73	48,649
821,91	46,277
822,09	84,706
822,27	52,792
822,46	54,375
822,64	82,781
822,82	52,683
823,00	64,865
823,19	52,273
823,37	72,857
823,55	66,471
823,73	74,000
823,91	57,459
824,10	75,419
824,28	42,222
824,46	48,837
824,64	53,431
824,83	50,407
825,01	50,000
825,19	83,429
825,37	49,479
825,56	28,750
825,74	69,048
825,92	56,180
826,10	77,019
826,28	59,060
826,47	43,902
826,65	72,973
826,83	38,172
827,01	40,152
827,19	72,785
827,38	64,767
827,56	50,000
827,74	55,691
827,92	62,927
828,10	65,217
828,29	52,857
828,47	67,982
828,65	50,811
828,83	46,465
829,01	50,667
829,20	60,127
829,38	46,058
829,56	59,109
829,74	53,788
829,92	53,608
830,10	59,009
830,29	32,973
830,47	52,604
830,65	45,089
830,83	49,143
831,01	29,583
831,20	46,535
831,38	32,195
831,56	46,964
831,74	72,000
831,92	60,227
832,10	59,545
832,29	52,133
832,47	41,593
832,65	54,894
832,83	24,651
833,01	27,273
833,19	34,842
833,37	50,000
833,56	53,521
833,74	41,296
833,92	39,823
834,10	56,345
834,28	44,231
834,46	50,519
834,64	37,109
834,83	37,201
835,01	50,584
835,19	35,545
835,37	47,410
835,55	20,939
835,73	62,500
835,91	37,066
836,09	30,705
836,28	51,908
836,46	38,246
836,64	50,410
836,82	27,239
837,00	45,238
837,18	49,012
837,36	36,898
837,54	24,621
837,72	28,287
837,91	41,767
838,09	27,200
838,27	50,916
838,45	44,013
838,63	15,932
838,81	40,789
838,99	37,979
839,17	51,133
839,35	33,333
839,53	29,530
839,72	32,627
839,90	24,924
840,08	37,179
840,26	36,909
840,44	27,778
840,62	38,721
840,80	36,111
840,98	19,335
841,16	24,911
841,34	27,246
841,52	17,572
841,70	22,222
841,89	53,548
842,07	21,351
842,25	21,753
842,43	36,774
842,61	32,172
842,79	32,927
842,97	18,598
843,15	46,991
843,33	34,679
843,51	32,936
843,69	20,556
843,87	33,423
844,05	30,997
844,23	22,703
844,41	30,151
844,59	31,250
844,77	17,003
844,95	28,398
845,13	37,432
845,31	29,050
845,50	31,186
845,68	26,943
845,86	20,519
846,04	20,988
846,22	28,162
846,40	19,160
846,58	18,767
846,76	29,676
846,94	26,442
847,12	19,431
847,30	37,327
847,48	24,940
847,66	29,268
847,84	15,736
848,02	27,859
848,20	28,477
848,38	24,370
848,56	35,699
848,74	14,876
848,92	13,987
849,10	23,438
849,28	20,697
849,46	19,626
849,64	23,095
849,82	17,067
850,00	20,739
850,18	26,328
850,36	19,298
850,54	25,561
850,72	26,195
850,90	21,898
851,08	20,165
851,26	28,340
851,44	22,289
851,62	18,543
851,80	20,080
851,98	25,309
852,16	25,720
852,34	29,791
852,52	19,682
852,70	19,880
852,87	17,714
853,05	27,255
853,23	14,706
853,41	15,951
853,59	7,547
853,77	13,889
853,95	20,127
854,13	13,592
854,31	20,593
854,49	16,433
854,67	16,165
854,85	22,609
855,03	18,966
855,21	11,844
855,39	15,436
855,57	24,457
855,75	19,224
855,93	12,721
856,11	23,126
856,28	27,431
856,46	13,889
856,64	21,845
856,82	12,216
857,00	20,588
857,18	17,997
857,36	17,479
857,54	23,480
857,72	19,032
857,90	14,662
858,08	15,432
858,26	7,645
858,44	14,441
858,61	21,317
858,79	17,984
858,97	16,189
859,15	14,764
859,33	11,043
859,51	12,460
859,69	20,536
859,87	17,716
860,05	16,039
860,23	9,545
860,40	16,283
860,58	14,943
860,76	15,395
860,94	10,382
861,12	10,765
861,30	16,005
861,48	13,314
861,66	18,722
861,84	19,413
862,01	18,182
862,19	18,157
862,37	11,370
862,55	16,295
862,73	14,810
862,91	10,894
863,09	17,295
863,27	10,028
863,44	6,623
863,62	12,062
863,80	10,136
863,98	9,962
864,16	11,961
864,34	9,740
864,52	13,098
864,69	13,253
864,87	15,018
865,05	9,009
865,23	10,628
865,41	9,654
865,59	12,855
865,76	12,145
865,94	12,240
866,12	10,872
866,30	9,939
866,48	10,848
866,66	15,727
866,83	7,659
867,01	13,174
867,19	17,133
867,37	9,964
867,55	16,575
867,73	10,137
867,90	15,097
868,08	12,636
868,26	11,631
868,44	11,373
868,62	14,002
868,79	6,926
868,97	10,128
869,15	11,146
869,33	7,718
869,51	16,242
869,69	9,906
869,86	10,256
870,04	13,439
870,22	10,510
870,40	8,283
870,57	15,400
870,75	10,249
870,93	10,510
871,11	10,071
871,29	10,366
871,46	11,782
871,64	8,111
871,82	9,463
872,00	12,364
872,18	12,900
872,35	9,091
872,53	10,491
872,71	9,817
872,89	9,917
873,06	9,779
873,24	8,824
873,42	9,409
873,60	3,489
873,77	6,584
873,95	6,771
874,13	9,481
874,31	9,804
874,49	7,759
874,66	5,756
874,84	8,526
875,02	10,985
875,20	11,488
875,37	4,429
875,55	4,826
875,73	6,385
875,91	8,672
876,08	7,086
876,26	5,495
876,44	7,109
876,61	7,863
876,79	10,670
876,97	8,091
877,15	10,153
877,32	5,512
877,50	7,792
877,68	7,699
877,86	9,762
878,03	6,140
878,21	8,702
878,39	6,667
878,56	6,047
878,74	6,435
878,92	7,122
879,10	7,618
879,27	6,727
879,45	10,248
879,63	5,823
879,80	7,070
879,98	4,698
880,16	6,118
880,34	2,363
880,51	7,375
880,69	6,607
880,87	4,124
881,04	1,999
881,22	8,235
881,40	3,556
881,57	6,318
881,75	6,441
881,93	5,442
882,10	7,880
882,28	3,298
882,46	6,793
882,63	7,161
882,81	7,471
882,99	4,735
883,16	5,998
883,34	7,089
883,52	3,812
883,69	8,038
883,87	7,282
884,05	3,073
884,22	3,155
884,40	5,136
884,58	4,693
884,75	3,261
884,93	6,963
885,11	6,692
885,28	3,229
885,46	6,972
885,64	4,660
885,81	6,273
885,99	3,205
886,17	4,127
886,34	4,824
886,52	3,988
886,70	5,716
886,87	3,263
887,05	5,996
887,22	5,228
887,40	5,575
887,58	6,418
887,75	5,384
887,93	4,897
888,11	3,312
888,28	3,983
888,46	4,053
888,63	6,095
888,81	6,470
888,99	1,991
889,16	3,376
889,34	3,565
889,51	4,955
889,69	2,915
889,87	5,075
890,04	3,363
890,22	4,631
890,39	2,521
890,57	4,985
890,75	5,515
890,92	4,369
891,10	7,088
891,27	4,289
891,45	4,000
891,63	5,160
891,80	4,832
891,98	6,019
892,15	4,822
892,33	2,935
892,51	4,700
892,68	4,122
892,86	3,336
893,03	4,649
893,21	4,535
893,38	4,723
893,56	5,280
893,74	4,182
893,91	5,282
894,09	5,092
894,26	5,956
894,44	4,721
894,61	5,711
894,79	5,335
894,96	4,647
895,14	5,338
895,32	4,376
895,49	5,620
895,67	5,177
895,84	7,284
896,02	6,376
896,19	4,926
896,37	7,894
896,54	5,817
896,72	6,116
896,89	7,340
897,07	6,563
897,25	7,733
897,42	7,188
897,60	6,655
897,77	8,677
897,95	8,032
898,12	5,520
898,30	6,081
898,47	6,683
898,65	7,364
898,82	6,589
899,00	7,641
899,17	7,489
899,35	6,830
899,52	5,856
899,70	6,466
899,87	8,092
900,05	8,745
900,22	7,113
900,40	7,525
900,57	7,046
900,75	7,860
900,92	8,256
901,10	8,331
901,27	8,339
901,45	7,995
901,62	8,571
901,80	8,763
901,97	7,197
902,15	7,762
902,32	7,427
902,50	8,460
902,67	7,638
902,85	7,895
903,02	9,077
903,20	7,996
903,37	7,980
903,54	9,294
903,72	7,634
903,89	7,647
904,07	7,401
904,24	8,057
904,42	7,544
904,59	7,646
904,77	7,887
904,94	8,212
905,12	6,726
905,29	9,291
905,47	9,272
905,64	9,160
905,81	9,170
905,99	7,410
906,16	9,080
906,34	8,825
906,51	7,241
906,69	8,476
906,86	8,834
907,03	7,608
907,21	7,666
907,38	6,665
907,56	8,045
907,73	8,257
907,91	9,363
908,08	9,521
908,25	6,736
908,43	7,304
908,60	6,847
908,78	7,358
908,95	8,361
909,13	7,607
909,30	6,505
909,47	8,549
909,65	8,538
909,82	8,086
910,00	6,649
910,17	5,144
910,34	7,128
910,52	6,628
910,69	7,052
910,87	5,807
911,04	6,862
911,21	6,376
911,39	6,078
911,56	5,910
911,73	6,010
911,91	6,883
912,08	6,351
912,26	5,219
912,43	5,445
912,60	5,786
912,78	6,013
912,95	6,770
913,13	5,514
913,30	4,948
913,47	6,719
913,65	4,291
913,82	5,789
913,99	5,175
914,17	4,441
914,34	6,260
914,51	5,656
914,69	5,428
914,86	6,449
915,03	5,202
915,21	6,101
915,38	4,532
915,56	5,221
915,73	4,757
915,90	5,651
916,08	4,613
916,25	4,474
916,42	5,392
916,60	5,819
916,77	4,632
916,94	5,736
917,12	5,757
917,29	5,799
917,46	4,381
917,64	4,550
917,81	4,658
917,98	4,854
918,16	5,200
918,33	5,859
918,50	5,923
918,67	5,407
918,85	5,399
919,02	6,290
919,19	7,120
919,37	5,570
919,54	6,539
919,71	5,911
919,89	5,769
920,06	5,365
920,23	5,989
920,41	5,538
920,58	6,404
920,75	6,140
920,92	5,679
921,10	6,676
921,27	5,780
921,44	6,028
921,62	6,005
921,79	5,817
921,96	6,947
922,13	6,245
922,31	5,608
922,48	6,943
922,65	5,787
922,82	6,431
923,00	6,976
923,17	6,584
923,34	6,092
923,52	6,293
923,69	6,904
923,86	6,719
924,03	6,622
924,21	6,789
924,38	7,608
924,55	7,515
924,72	7,874
924,90	7,032
925,07	6,994
925,24	7,089
925,41	6,399
925,59	5,753
925,76	6,578
925,93	6,667
926,10	6,669
926,28	6,469
926,45	8,065
926,62	6,839
926,79	7,697
926,96	7,520
927,14	6,794
927,31	7,065
927,48	7,223
927,65	6,723
927,83	6,299
928,00	6,688
928,17	7,118
928,34	6,909
928,51	7,666
928,69	6,068
928,86	6,786
929,03	7,052
929,20	6,828
929,37	7,732
929,55	6,918
929,72	6,914
929,89	6,460
930,06	7,391
930,23	7,243
930,41	7,177
930,58	7,982
930,75	6,668
930,92	6,393
931,09	8,005
931,27	6,461
931,44	6,208
931,61	7,367
931,78	7,605
931,95	6,474
932,12	7,167
932,30	6,806
932,47	6,935
932,64	7,645
932,81	7,840
932,98	6,997
933,16	7,206
933,33	7,888
933,50	7,501
933,67	7,344
933,84	6,570
934,01	6,017
934,18	6,999
934,36	6,717
934,53	6,960
934,70	6,590
934,87	7,135
935,04	6,964
935,21	6,017
935,38	6,376
935,56	5,921
935,73	6,215
935,90	5,671
936,07	6,734
936,24	6,245
936,41	7,139
936,58	5,423
936,76	7,776
936,93	5,302
937,10	6,743
937,27	5,990
937,44	6,206
937,61	6,600
937,78	5,598
937,95	5,854
938,13	5,872
938,30	6,381
938,47	6,997
938,64	6,584
938,81	5,892
938,98	6,062
939,15	6,637
939,32	5,775
939,49	6,230
939,66	7,133
939,84	6,848
940,01	6,714
940,18	6,168
940,35	6,207
940,52	6,003
940,69	7,049
940,86	5,828
941,03	6,088
941,20	6,184
941,37	6,447
941,54	5,217
941,71	5,561
941,89	6,065
942,06	5,757
942,23	6,341
942,40	6,186
942,57	6,356
942,74	6,237
942,91	5,870
943,08	7,456
943,25	6,474
943,42	6,180
943,59	6,868
943,76	7,455
943,93	6,049
944,10	5,612
944,27	6,584
944,44	6,688
944,61	5,802
944,79	6,310
944,96	7,432
945,13	6,101
945,30	6,393
945,47	7,463
945,64	6,690
945,81	8,158
945,98	7,188
946,15	7,850
946,32	6,321
946,49	8,091
946,66	7,291
946,83	8,410
947,00	7,622
947,17	8,244
947,34	8,025
947,51	7,532
947,68	8,608
947,85	6,899
948,02	7,022
948,19	8,212
948,36	8,546
948,53	7,930
948,70	8,352
948,87	9,532
949,04	8,633
949,21	7,382
949,38	8,478
949,55	8,631
949,72	8,241
949,89	7,848
950,06	7,728
950,23	9,474
950,40	9,278
950,57	8,028
950,74	11,054
950,91	9,110
951,08	10,302
951,25	10,129
951,42	10,785
951,59	8,233
951,76	10,844
951,93	11,765
952,10	9,690
952,27	9,765
952,44	9,743
952,61	10,029
952,77	10,652
952,94	10,825
953,11	11,661
953,28	11,494
953,45	11,336
953,62	12,627
953,79	11,526
953,96	12,426
954,13	12,985
954,30	13,219
954,47	13,980
954,64	12,560
954,81	11,798
954,98	12,333
955,15	12,018
955,32	12,924
955,49	12,374
955,65	12,500
955,82	13,761
955,99	12,433
956,16	15,703
956,33	12,762
956,50	14,736
956,67	13,305
956,84	13,037
957,01	12,480
957,18	14,413
957,35	13,509
957,52	17,617
957,68	14,833
957,85	16,255
958,02	15,332
958,19	18,973
958,36	18,706
958,53	20,922
958,70	12,217
958,87	13,112
959,04	19,982
959,21	19,596
959,37	15,693
959,54	16,979
959,71	15,187
959,88	16,356
960,05	19,978
960,22	12,189
960,39	18,400
960,56	11,646
960,72	18,444
960,89	24,208
961,06	21,274
961,23	16,885
961,40	19,481
961,57	17,832
961,74	18,038
961,90	24,063
962,07	24,201
962,24	25,041
962,41	17,588
962,58	22,375
962,75	23,717
962,92	22,804
963,08	22,727
963,25	22,162
963,42	23,913
963,59	28,306
963,76	36,854
963,93	27,918
964,10	28,480
964,26	31,579
964,43	27,907
964,60	28,756
964,77	26,506
964,94	25,284
965,10	28,571
965,27	40,209
965,44	37,403
965,61	30,028
965,78	38,019
965,95	34,731
966,11	31,269
966,28	39,777
966,45	39,564
966,62	43,385
966,79	53,061
966,95	42,687
967,12	39,748
967,29	37,153
967,46	56,818
967,63	50,566
967,79	43,243
967,96	48,052
968,13	38,000
968,30	53,226
968,47	55,670
968,63	52,703
968,80	56,881
968,97	67,308
969,14	56,977
969,31	45,556
969,47	66,471
969,64	65,657
969,81	46,632
969,98	75,275
970,14	52,761
970,31	73,585
970,48	69,167
970,65	69,822
970,81	88,356
970,98	100,000
971,15	125,510
971,32	90,625
971,48	95,918
971,65	70,769
971,82	118,627
971,99	83,908
972,15	106,338
972,32	119,820
972,49	87,413
972,66	135,455
972,82	111,628
972,99	108,943
973,16	127,586
973,33	83,036
973,49	85,263
973,66	153,763
973,83	106,796
974,00	168,605
974,16	114,706
974,33	128,947
974,50	86,316
974,67	92,632
974,83	104,762
975,00	109,474
975,17	145,055
975,33	132,584
975,50	95,522
975,67	193,878
975,84	238,806
976,00	68,539
976,17	165,574
976,34	85,000
976,50	142,697
976,67	79,612
976,84	2900,000
977,00	200,000
977,17	182,222
977,34	220,879
977,50	122,388
977,67	116,071
977,84	196,774
978,01	229,787
978,17	588,889
978,34	205,556
978,51	223,529
978,67	181,579
978,84	100,781
979,01	359,459
979,17	238,462
979,34	120,548
979,51	148,980
979,67	166,667
979,84	320,408
980,01	282,222
980,17	221,127
980,34	385,185
980,51	234,783
980,67	120,000
980,84	463,333
981,01	485,000
981,17	600,000
981,34	722,222
981,50	197,059
981,67	184,746
981,84	5850,000
982,00	460,000
982,17	200,000
982,34	161,111
982,50	466,667
982,67	163,542
982,84	2620,000
983,00	1250,000
983,17	146,269
983,33	206,897
983,50	1540,000
983,67	-400,000
983,83	363,636
984,00	-1300,000
984,17	583,333
984,33	-6100,000
984,50	331,429
984,66	208,696
984,83	185,714
985,00	-362,500
985,16	337,931
985,33	641,176
985,49	538,889
985,66	420,588
985,83	260,870
985,99	356,410
986,16	-2825,000
986,32	892,857
986,49	7600,000
986,66	327,273
986,82	1125,000
986,99	250,943
987,15	-194,737
987,32	-142,857
987,49	162,000
987,65	6100,000
987,82	250,000
987,98	234,694
988,15	383,333
988,31	840,000
988,48	-1800,000
988,65	280,952
988,81	311,111
988,98	275,610
989,14	335,714
989,31	576,190
989,47	202,941
989,64	-823,077
989,80	587,500
989,97	256,757
990,14	-271,739
990,30	-400,000
990,47	293,878
990,63	244,444
990,80	230,000
990,96	-605,000
991,13	315,625
991,29	510,345
991,46	0,000
991,62	-746,154
991,79	983,333
991,95	11500,000
992,12	-1100,000
992,29	-375,000
992,45	184,706
992,62	295,349
992,78	231,818
992,95	-546,667
993,11	232,143
993,28	1110,000
993,44	-1070,000
993,61	-718,750
993,77	-2400,000
993,94	-3833,333
994,10	-118,667
994,27	715,789
994,43	304,651
994,60	0,000
994,76	3250,000
994,93	470,000
995,09	-623,529
995,26	1244,444
995,42	282,353
995,59	566,667
995,75	992,308
995,92	1485,714
996,08	391,667
996,25	-1162,500
996,41	-6800,000
996,58	700,000
996,74	304,545
996,91	368,966
997,07	0,000
997,23	9300,000
997,40	-12700,000
997,56	-815,385
997,73	-1700,000
997,89	336,842
998,06	915,385
998,22	-588,889
998,39	528,000
998,55	1388,889
998,72	-1650,000
998,88	-240,000
999,05	-111,538
999,21	238,095
999,37	-553,333
999,54	-941,667
999,70	-306,667
999,87	643,750
1000,03	320,513
1000,20	293,750
1000,36	0,000
1000,52	450,000
1000,69	-642,857
1000,85	-990,000
1001,02	-487,500
1001,18	2125,000
1001,35	715,385
1001,51	511,765
1001,67	-876,923
1001,84	-2020,000
1002,00	302,703
1002,17	1154,545
1002,33	-2350,000
1002,50	500,000
1002,66	-553,846
1002,82	292,500
1002,99	1007,143
1003,15	-1828,571
1003,32	-554,545
1003,48	307,143
1003,64	613,333
1003,81	407,407
1003,97	-3600,000
1004,14	690,909
1004,30	160,000
1004,46	-793,333
1004,63	1042,857
1004,79	377,778
1004,95	820,000
1005,12	4800,000
1005,28	351,724
1005,45	300,000
1005,61	382,759
1005,77	-195,833
1005,94	-319,048
1006,10	-4900,000
1006,26	884,615
1006,43	-180,769
1006,59	-854,545
1006,76	950,000
1006,92	1488,889
1007,08	11300,000
1007,25	-148,148
1007,41	506,897
1007,57	5150,000
1007,74	830,000
1007,90	-262,069
1008,06	232,609
1008,23	752,941
1008,39	-593,750
1008,55	-365,385
1008,72	-1928,571
1008,88	0,000
1009,04	190,244
1009,21	-252,632
1009,37	-691,667
1009,53	159,524
1009,70	3033,333
1009,86	-371,429
1010,02	3200,000
1010,19	909,091
1010,35	251,471
1010,51	-7250,000
1010,68	-1400,000
1010,84	-215,909
1011,00	600,000
1011,17	-218,182
1011,33	0,000
1011,49	-886,667
1011,66	757,143
1011,82	506,452
1011,98	450,000
1012,14	-481,818
1012,31	333,333
1012,47	0,000
1012,63	1833,333
1012,80	714,286
1012,96	-750,000
1013,12	-2183,333
1013,29	638,889
1013,45	253,659
1013,61	4900,000
1013,77	-117,857
1013,94	2060,000
1014,10	218,644
1014,26	-2450,000
1014,43	-312,000
1014,59	655,000
1014,75	-450,000
1014,91	-566,667
1015,08	380,556
1015,24	10400,000
1015,40	576,471
1015,56	-10600,000
1015,73	130,952
1015,89	490,909
1016,05	2650,000
1016,21	-1012,500
1016,38	947,368
1016,54	1053,846
1016,70	-4066,667
1016,86	371,875
1017,03	837,500
1017,19	-569,231
1017,35	-511,765
1017,51	-900,000
1017,68	-590,000
1017,84	-1557,143
1018,00	352,381
1018,16	365,385
1018,33	-885,714
1018,49	-966,667
1018,65	-283,784
1018,81	320,513
1018,97	-1728,571
1019,14	-3000,000
1019,30	-246,154
1019,46	0,000
1019,62	-629,412
1019,79	-3066,667
1019,95	1000,000
1020,11	5150,000
1020,27	-251,852
1020,43	-323,077
1020,60	1233,333
1020,76	538,889
1020,92	946,667
1021,08	565,000
1021,24	1100,000
1021,41	1177,778
1021,57	1562,500
1021,73	738,462
1021,89	2440,000
1022,05	-414,286
1022,21	775,000
1022,38	-450,000
1022,54	-1883,333
1022,70	328,889
1022,86	-1400,000
1023,02	520,833
1023,19	2320,000
1023,35	2633,333
1023,51	354,167
1023,67	440,741
1023,83	-493,750
1023,99	255,263
1024,16	-326,923
1024,32	-1200,000
1024,48	-520,000
1024,64	361,905
1024,80	465,217
1024,96	400,000
1025,12	471,429
1025,29	314,286
1025,45	202,632
1025,61	627,778
1025,77	-1920,000
1025,93	-6300,000
1026,09	-1142,857
1026,26	841,667
1026,42	787,500
1026,58	387,879
1026,74	1683,333
1026,90	312,000
1027,06	353,571
1027,22	942,857
1027,38	294,231
1027,55	3033,333
1027,71	1316,667
1027,87	-208,000
1028,03	850,000
1028,19	250,000
1028,35	650,000
1028,51	1080,000
1028,67	725,000
1028,83	-2300,000
1029,00	-150,000
1029,16	970,000
1029,32	-257,143
1029,48	231,111
1029,64	280,556
1029,80	3850,000
1029,96	1020,000
1030,12	517,391
1030,28	-2800,000
1030,44	-330,769
1030,61	-395,833
1030,77	-220,000
1030,93	-646,667
1031,09	1733,333
1031,25	-9400,000
1031,41	-206,667
1031,57	373,077
1031,73	675,000
1031,89	-990,909
1032,05	-314,815
1032,21	1063,636
1032,37	-137,037
1032,53	-857,143
1032,69	-308,333
1032,86	296,296
1033,02	-180,000
1033,18	-556,250
1033,34	494,737
1033,50	-3300,000
1033,66	-151,220
1033,82	521,739
1033,98	-400,000
1034,14	156,410
1034,30	348,387
1034,46	-2233,333
1034,62	645,000
1034,78	-442,857
1034,94	357,895
1035,10	-807,692
1035,26	-181,395
1035,42	-262,069
1035,58	-272,222
1035,74	900,000
1035,90	-769,231
1036,06	-1066,667
1036,22	1500,000
1036,38	-423,529
1036,54	-283,333
1036,70	-130,303
1036,86	8100,000
1037,02	366,667
1037,18	731,579
1037,34	142,857
1037,50	-151,220
1037,66	-329,412
1037,82	1780,000
1037,98	-433,333
1038,14	-324,000
1038,30	-1475,000
1038,46	-550,000
1038,62	443,478
1038,78	-2966,667
1038,94	-384,211
1039,10	354,545
1039,26	370,370
1039,42	-541,667
1039,58	1328,571
1039,74	-552,632
1039,90	331,250
1040,06	-376,923
>>>>>End Processed Spectral Data<<<<<
