SpectraSuite Data File
++++++++++++++++++++++++++++++++++++
Date: Wed Feb 01 15:33:20 EET 2017
User: optolab
Dark Spectrum Present: Yes
Reference Spectrum Present: Yes
Number of Sampled Component Spectra: 1
Spectrometers: USB4C02475
Integration Time (usec): 100000 (USB4C02475)
Spectra Averaged: 1 (USB4C02475)
Boxcar Smoothing: 0 (USB4C02475)
Correct for Electrical Dark: No (USB4C02475)
Strobe/Lamp Enabled: No (USB4C02475)
Correct for Detector Non-linearity: No (USB4C02475)
Correct for Stray Light: No (USB4C02475)
Number of Pixels in Processed Spectrum: 3648
>>>>>Begin Processed Spectral Data<<<<<
344,91	1350,000
345,13	1350,000
345,35	1350,000
345,57	0,000
345,79	326,316
346,00	-955,556
346,22	-1557,143
346,44	208,824
346,66	-304,167
346,87	-7200,000
347,09	284,848
347,31	-218,182
347,53	-179,487
347,74	169,231
347,96	221,212
348,18	421,053
348,40	229,032
348,61	682,353
348,83	342,857
349,05	213,725
349,27	-3400,000
349,48	500,000
349,70	-131,034
349,92	422,581
350,14	135,849
350,35	206,000
350,57	1625,000
350,79	340,000
351,01	-719,048
351,22	181,481
351,44	607,692
351,66	-236,000
351,87	-147,619
352,09	161,538
352,31	108,197
352,53	131,250
352,74	302,778
352,96	175,325
353,18	352,632
353,40	232,000
353,61	255,556
353,83	147,059
354,05	463,636
354,26	1216,667
354,48	180,000
354,70	260,606
354,92	-241,379
355,13	142,424
355,35	265,909
355,57	316,667
355,78	144,578
356,00	-2325,000
356,22	465,385
356,44	4000,000
356,65	172,727
356,87	407,692
357,09	483,333
357,30	191,111
357,52	200,000
357,74	575,000
357,95	261,538
358,17	136,066
358,39	187,097
358,60	208,108
358,82	425,000
359,04	248,148
359,26	331,429
359,47	3800,000
359,69	202,500
359,91	351,515
360,12	357,143
360,34	379,167
360,56	-35,185
360,77	1275,000
360,99	400,000
361,21	128,000
361,42	3350,000
361,64	114,286
361,86	186,154
362,07	-225,806
362,29	157,333
362,51	-241,176
362,72	404,000
362,94	361,765
363,16	113,953
363,37	-485,714
363,59	326,923
363,81	254,545
364,02	377,778
364,24	525,000
364,46	2200,000
364,67	654,545
364,89	1828,571
365,11	88,571
365,32	355,172
365,54	200,000
365,76	222,449
365,97	241,176
366,19	177,586
366,41	522,727
366,62	248,148
366,84	188,372
367,05	236,735
367,27	1183,333
367,49	-230,769
367,70	264,706
367,92	206,557
368,14	208,333
368,35	-4500,000
368,57	276,000
368,79	268,966
369,00	100,000
369,22	-1112,500
369,43	177,647
369,65	204,839
369,87	205,405
370,08	79,518
370,30	187,500
370,51	160,656
370,73	162,222
370,95	185,484
371,16	130,952
371,38	396,667
371,60	925,000
371,81	106,250
372,03	553,333
372,24	366,667
372,46	137,736
372,68	95,714
372,89	309,091
373,11	307,692
373,32	286,364
373,54	-515,385
373,76	623,077
373,97	453,333
374,19	418,182
374,40	210,937
374,62	-1700,000
374,84	3075,000
375,05	275,000
375,27	300,000
375,48	-8600,000
375,70	134,667
375,92	141,071
376,13	318,750
376,35	201,370
376,56	631,250
376,78	166,667
376,99	282,143
377,21	212,500
377,43	165,152
377,64	133,333
377,86	241,379
378,07	282,051
378,29	-550,000
378,51	358,065
378,72	193,750
378,94	-988,889
379,15	209,091
379,37	494,118
379,58	140,000
379,80	393,333
380,01	362,500
380,23	205,882
380,45	1780,000
380,66	1933,333
380,88	186,364
381,09	192,857
381,31	131,111
381,52	203,922
381,74	1066,667
381,95	581,818
382,17	434,615
382,39	328,571
382,60	126,531
382,82	200,000
383,03	205,769
383,25	283,871
383,46	147,727
383,68	344,444
383,89	370,000
384,11	306,452
384,32	-2233,333
384,54	305,556
384,76	-2066,667
384,97	227,273
385,19	406,897
385,40	200,000
385,62	175,439
385,83	259,524
386,05	160,784
386,26	194,000
386,48	145,977
386,69	164,583
386,91	280,000
387,12	230,508
387,34	205,172
387,55	216,129
387,77	315,625
387,98	284,615
388,20	146,739
388,41	252,941
388,63	4400,000
388,84	168,852
389,06	233,333
389,27	600,000
389,49	327,778
389,70	177,551
389,92	236,667
390,13	185,714
390,35	249,020
390,56	188,889
390,78	348,148
390,99	500,000
391,21	384,211
391,42	286,667
391,64	251,220
391,85	194,828
392,07	161,364
392,28	84,000
392,50	78,788
392,71	-887,500
392,93	219,231
393,14	408,333
393,36	144,898
393,57	105,263
393,79	655,556
394,00	178,723
394,22	121,918
394,43	148,193
394,65	183,721
394,86	1162,500
395,08	342,857
395,29	218,868
395,50	300,000
395,72	172,222
395,93	557,143
396,15	143,662
396,36	177,941
396,58	168,333
396,79	157,500
397,01	212,000
397,22	180,556
397,44	146,970
397,65	145,614
397,87	228,571
398,08	179,592
398,29	231,250
398,51	216,071
398,72	131,707
398,94	118,462
399,15	237,143
399,37	200,000
399,58	107,692
399,80	409,091
400,01	116,667
400,22	142,857
400,44	172,840
400,65	250,000
400,87	150,000
401,08	108,571
401,30	213,043
401,51	259,649
401,72	169,231
401,94	107,595
402,15	275,000
402,37	107,563
402,58	516,667
402,80	137,143
403,01	181,690
403,22	881,818
403,44	130,435
403,65	100,000
403,87	161,429
404,08	361,538
404,30	114,118
404,51	-2266,667
404,72	84,286
404,94	102,941
405,15	156,000
405,37	103,797
405,58	111,765
405,79	143,902
406,01	158,537
406,22	163,793
406,44	165,957
406,65	170,175
406,86	89,583
407,08	83,544
407,29	100,000
407,51	103,659
407,72	139,815
407,93	109,783
408,15	76,923
408,36	141,860
408,58	120,619
408,79	64,167
409,00	107,292
409,22	74,603
409,43	141,772
409,64	72,050
409,86	55,346
410,07	87,692
410,29	87,313
410,50	86,525
410,71	73,214
410,93	29,299
411,14	71,318
411,35	51,190
411,57	67,105
411,78	75,000
412,00	54,777
412,21	40,000
412,42	64,550
412,64	38,627
412,85	44,330
413,06	34,146
413,28	33,784
413,49	47,867
413,70	48,913
413,92	39,526
414,13	25,311
414,34	42,146
414,56	15,385
414,77	58,650
414,98	28,188
415,20	26,644
415,41	41,360
415,63	30,846
415,84	36,667
416,05	17,857
416,27	24,289
416,48	23,315
416,69	28,097
416,91	12,703
417,12	19,519
417,33	25,263
417,55	16,901
417,76	26,283
417,97	19,917
418,19	18,091
418,40	18,298
418,61	13,519
418,83	13,091
419,04	12,618
419,25	15,265
419,46	13,835
419,68	8,095
419,89	13,711
420,10	12,653
420,32	9,714
420,53	18,124
420,74	16,137
420,96	14,250
421,17	14,203
421,38	14,472
421,60	10,706
421,81	9,453
422,02	9,195
422,23	10,986
422,45	8,740
422,66	11,558
422,87	13,252
423,09	12,629
423,30	8,904
423,51	7,795
423,73	8,102
423,94	9,244
424,15	9,116
424,36	10,900
424,58	10,188
424,79	8,120
425,00	7,059
425,22	10,000
425,43	9,465
425,64	12,258
425,85	15,832
426,07	24,002
426,28	27,123
426,49	40,109
426,71	50,298
426,92	59,115
427,13	71,516
427,34	81,303
427,56	87,124
427,77	88,124
427,98	90,425
428,19	92,206
428,41	90,942
428,62	95,898
428,83	92,576
429,04	93,187
429,26	94,003
429,47	91,984
429,68	92,824
429,89	97,696
430,11	92,806
430,32	95,045
430,53	95,519
430,74	96,588
430,96	93,035
431,17	94,385
431,38	95,018
431,59	91,649
431,81	93,153
432,02	92,436
432,23	92,126
432,44	92,819
432,66	93,197
432,87	94,265
433,08	93,778
433,29	93,058
433,51	96,238
433,72	96,531
433,93	94,709
434,14	97,179
434,35	99,896
434,57	97,493
434,78	100,525
434,99	99,505
435,20	97,076
435,42	95,900
435,63	94,653
435,84	96,580
436,05	94,617
436,26	94,465
436,48	93,982
436,69	95,602
436,90	91,920
437,11	92,004
437,32	92,784
437,54	95,052
437,75	93,100
437,96	93,808
438,17	91,646
438,38	95,141
438,60	94,089
438,81	92,978
439,02	96,866
439,23	94,313
439,44	92,923
439,66	96,658
439,87	95,807
440,08	96,013
440,29	96,266
440,50	95,155
440,72	95,259
440,93	94,587
441,14	93,119
441,35	94,462
441,56	92,695
441,77	93,056
441,99	93,039
442,20	95,067
442,41	92,780
442,62	94,869
442,83	95,084
443,04	96,193
443,26	96,875
443,47	95,974
443,68	96,631
443,89	95,529
444,10	96,873
444,31	97,609
444,53	96,900
444,74	96,807
444,95	96,377
445,16	96,961
445,37	95,287
445,58	94,808
445,80	95,675
446,01	94,473
446,22	94,481
446,43	94,539
446,64	93,055
446,85	93,716
447,06	93,749
447,28	93,141
447,49	93,175
447,70	92,937
447,91	93,647
448,12	94,732
448,33	93,180
448,54	94,959
448,76	94,034
448,97	94,666
449,18	94,959
449,39	94,725
449,60	95,700
449,81	96,505
450,02	97,273
450,23	95,626
450,45	97,368
450,66	95,859
450,87	97,242
451,08	96,035
451,29	97,021
451,50	96,187
451,71	96,390
451,92	96,404
452,13	94,624
452,35	95,149
452,56	93,949
452,77	92,874
452,98	92,667
453,19	92,642
453,40	92,674
453,61	93,071
453,82	93,394
454,03	94,026
454,25	94,898
454,46	94,457
454,67	94,303
454,88	92,804
455,09	94,546
455,30	93,749
455,51	94,881
455,72	95,120
455,93	95,588
456,14	94,905
456,35	95,436
456,56	93,975
456,78	94,601
456,99	95,738
457,20	95,119
457,41	94,445
457,62	95,144
457,83	93,110
458,04	94,121
458,25	93,589
458,46	91,409
458,67	89,985
458,88	89,722
459,09	90,961
459,30	89,778
459,51	88,246
459,73	88,591
459,94	87,234
460,15	84,601
460,36	82,355
460,57	80,505
460,78	77,284
460,99	75,236
461,20	74,107
461,41	72,506
461,62	72,686
461,83	72,690
462,04	71,824
462,25	71,504
462,46	66,277
462,67	60,317
462,88	49,528
463,09	37,160
463,30	23,625
463,51	13,819
463,72	7,489
463,93	3,896
464,15	2,481
464,36	1,513
464,57	1,090
464,78	0,834
464,99	0,919
465,20	0,788
465,41	0,798
465,62	0,659
465,83	0,685
466,04	0,617
466,25	0,573
466,46	0,637
466,67	0,488
466,88	0,559
467,09	0,706
467,30	0,440
467,51	0,692
467,72	0,577
467,93	0,674
468,14	0,631
468,35	0,599
468,56	0,655
468,77	0,509
468,98	0,518
469,19	0,514
469,40	0,487
469,61	0,436
469,82	0,474
470,03	0,588
470,24	0,636
470,45	0,636
470,66	0,507
470,87	0,533
471,08	0,530
471,29	0,560
471,50	0,449
471,71	0,576
471,92	0,585
472,13	0,479
472,34	0,500
472,55	0,477
472,76	0,491
472,97	0,605
473,18	0,566
473,39	0,498
473,60	0,687
473,81	0,554
474,01	0,592
474,22	0,516
474,43	0,787
474,64	0,573
474,85	0,287
475,06	0,488
475,27	0,412
475,48	0,589
475,69	0,333
475,90	0,487
476,11	0,645
476,32	0,486
476,53	0,456
476,74	0,782
476,95	0,658
477,16	0,628
477,37	0,417
477,58	0,526
477,79	0,786
478,00	0,623
478,21	0,626
478,41	0,708
478,62	0,494
478,83	0,684
479,04	0,678
479,25	0,384
479,46	0,610
479,67	0,899
479,88	0,774
480,09	0,469
480,30	0,624
480,51	0,932
480,72	0,756
480,93	0,704
481,14	0,591
481,34	0,669
481,55	0,492
481,76	0,440
481,97	0,730
482,18	0,574
482,39	0,638
482,60	0,617
482,81	0,797
483,02	0,372
483,23	0,526
483,44	0,572
483,65	0,686
483,85	0,411
484,06	0,622
484,27	0,466
484,48	0,779
484,69	0,726
484,90	0,796
485,11	0,483
485,32	0,692
485,53	0,677
485,73	0,679
485,94	0,510
486,15	0,682
486,36	0,511
486,57	0,673
486,78	0,685
486,99	0,906
487,20	0,695
487,41	0,626
487,61	0,459
487,82	0,649
488,03	0,651
488,24	0,919
488,45	0,501
488,66	0,794
488,87	0,726
489,08	0,561
489,28	0,704
489,49	0,863
489,70	0,618
489,91	0,676
490,12	0,652
490,33	0,659
490,54	0,515
490,74	0,718
490,95	0,687
491,16	0,765
491,37	0,768
491,58	0,597
491,79	0,620
492,00	0,755
492,20	0,668
492,41	0,743
492,62	0,441
492,83	0,643
493,04	0,499
493,25	0,599
493,45	0,593
493,66	0,869
493,87	0,687
494,08	0,569
494,29	0,665
494,50	0,770
494,70	1,109
494,91	0,986
495,12	0,946
495,33	0,868
495,54	1,144
495,75	1,036
495,95	0,824
496,16	1,060
496,37	0,833
496,58	1,039
496,79	1,080
496,99	0,789
497,20	0,892
497,41	1,023
497,62	1,080
497,83	1,200
498,04	1,281
498,24	1,768
498,45	2,110
498,66	3,576
498,87	6,260
499,08	10,808
499,28	18,661
499,49	29,890
499,70	44,248
499,91	58,461
500,12	68,233
500,32	73,748
500,53	74,762
500,74	72,841
500,95	69,393
501,15	67,043
501,36	65,435
501,57	66,429
501,78	68,407
501,99	71,041
502,19	75,511
502,40	79,841
502,61	84,749
502,82	88,468
503,02	91,897
503,23	94,706
503,44	94,512
503,65	94,518
503,86	94,287
504,06	94,119
504,27	94,091
504,48	93,907
504,69	93,451
504,89	92,687
505,10	92,652
505,31	92,307
505,52	92,228
505,72	93,640
505,93	93,755
506,14	93,983
506,35	94,846
506,55	95,077
506,76	95,649
506,97	96,256
507,18	97,084
507,38	97,255
507,59	95,696
507,80	97,160
508,01	95,674
508,21	94,572
508,42	95,929
508,63	96,640
508,84	95,612
509,04	95,725
509,25	96,671
509,46	96,388
509,67	96,153
509,87	97,432
510,08	97,814
510,29	97,364
510,49	97,731
510,70	99,026
510,91	97,030
511,12	98,032
511,32	97,541
511,53	97,162
511,74	97,015
511,94	97,708
512,15	97,241
512,36	97,001
512,57	95,896
512,77	96,806
512,98	96,077
513,19	96,612
513,39	95,918
513,60	95,847
513,81	95,506
514,01	95,616
514,22	95,880
514,43	95,502
514,64	96,224
514,84	96,478
515,05	95,539
515,26	94,610
515,46	95,432
515,67	95,718
515,88	95,674
516,08	96,600
516,29	96,822
516,50	95,547
516,70	95,890
516,91	95,435
517,12	95,975
517,32	96,445
517,53	96,403
517,74	96,511
517,95	96,176
518,15	96,262
518,36	97,362
518,57	96,529
518,77	97,565
518,98	97,135
519,19	96,634
519,39	96,724
519,60	97,338
519,80	96,620
520,01	97,082
520,22	97,541
520,42	97,189
520,63	96,093
520,84	95,659
521,04	95,733
521,25	95,111
521,46	94,408
521,66	94,366
521,87	93,979
522,08	94,619
522,28	94,083
522,49	94,566
522,70	95,194
522,90	95,822
523,11	96,700
523,31	97,354
523,52	96,795
523,73	97,158
523,93	96,746
524,14	95,537
524,35	96,164
524,55	94,914
524,76	94,899
524,97	94,612
525,17	95,064
525,38	94,113
525,58	93,663
525,79	92,896
526,00	93,842
526,20	94,173
526,41	94,347
526,61	96,145
526,82	95,327
527,03	95,162
527,23	95,881
527,44	96,669
527,64	97,595
527,85	97,247
528,06	96,960
528,26	96,777
528,47	97,914
528,68	97,663
528,88	97,212
529,09	97,518
529,29	98,122
529,50	98,463
529,70	98,178
529,91	97,329
530,12	96,420
530,32	95,308
530,53	95,983
530,73	95,269
530,94	96,502
531,15	95,695
531,35	95,602
531,56	95,773
531,76	95,618
531,97	96,595
532,17	95,372
532,38	93,862
532,59	95,345
532,79	95,233
533,00	95,089
533,20	94,103
533,41	93,365
533,61	93,322
533,82	93,505
534,03	94,043
534,23	94,938
534,44	95,981
534,64	95,295
534,85	95,581
535,05	96,595
535,26	95,997
535,46	96,476
535,67	96,352
535,88	96,502
536,08	96,581
536,29	97,478
536,49	96,094
536,70	96,556
536,90	97,017
537,11	96,957
537,31	97,298
537,52	97,380
537,72	96,940
537,93	95,620
538,13	95,213
538,34	95,251
538,55	95,317
538,75	93,861
538,96	93,122
539,16	91,949
539,37	91,251
539,57	92,127
539,78	92,802
539,98	92,853
540,19	92,530
540,39	92,131
540,60	91,175
540,80	91,578
541,01	90,453
541,21	87,946
541,42	86,414
541,62	83,688
541,83	82,485
542,03	80,850
542,24	80,186
542,44	78,774
542,65	79,115
542,85	79,228
543,06	79,635
543,26	80,417
543,47	82,511
543,67	82,164
543,88	82,807
544,08	82,093
544,29	80,835
544,49	79,461
544,70	77,633
544,90	75,826
545,11	73,170
545,31	69,997
545,52	61,853
545,72	51,553
545,93	38,454
546,13	25,969
546,34	16,332
546,54	9,687
546,75	5,898
546,95	3,840
547,15	2,558
547,36	1,793
547,56	1,467
547,77	1,179
547,97	1,239
548,18	0,899
548,38	0,835
548,59	0,735
548,79	0,529
549,00	0,658
549,20	0,792
549,41	0,691
549,61	0,743
549,81	0,513
550,02	0,744
550,22	0,571
550,43	0,689
550,63	0,717
550,84	0,660
551,04	0,719
551,25	0,724
551,45	0,642
551,65	0,609
551,86	0,751
552,06	0,650
552,27	0,501
552,47	0,853
552,68	0,694
552,88	0,590
553,08	0,614
553,29	0,748
553,49	0,473
553,70	0,684
553,90	0,479
554,11	0,555
554,31	0,519
554,51	0,635
554,72	0,604
554,92	0,729
555,13	0,579
555,33	0,835
555,53	0,607
555,74	0,674
555,94	0,624
556,15	0,611
556,35	0,626
556,56	0,599
556,76	0,679
556,96	0,528
557,17	0,661
557,37	0,628
557,58	0,751
557,78	0,574
557,98	0,582
558,19	0,383
558,39	0,549
558,59	0,620
558,80	0,709
559,00	0,585
559,21	0,606
559,41	0,612
559,61	0,481
559,82	0,583
560,02	0,612
560,23	0,614
560,43	0,589
560,63	0,572
560,84	0,565
561,04	0,540
561,24	0,429
561,45	0,508
561,65	0,542
561,85	0,762
562,06	0,519
562,26	0,410
562,47	0,541
562,67	0,547
562,87	0,560
563,08	0,483
563,28	0,428
563,48	0,562
563,69	0,530
563,89	0,510
564,09	0,698
564,30	0,501
564,50	0,724
564,70	0,672
564,91	0,814
565,11	0,609
565,31	0,434
565,52	0,725
565,72	0,620
565,92	0,683
566,13	0,341
566,33	0,595
566,53	0,626
566,74	0,642
566,94	0,573
567,14	0,462
567,35	0,536
567,55	0,543
567,75	0,720
567,96	0,612
568,16	0,610
568,36	0,522
568,57	0,726
568,77	0,532
568,97	0,605
569,18	0,699
569,38	0,700
569,58	0,661
569,79	0,734
569,99	0,700
570,19	0,474
570,39	0,692
570,60	0,608
570,80	0,607
571,00	0,551
571,21	0,616
571,41	0,683
571,61	0,680
571,82	0,592
572,02	0,718
572,22	0,737
572,42	0,675
572,63	0,813
572,83	0,632
573,03	0,549
573,24	0,833
573,44	0,546
573,64	0,866
573,84	0,972
574,05	0,866
574,25	0,939
574,45	0,948
574,66	0,928
574,86	1,096
575,06	0,994
575,26	0,876
575,47	1,004
575,67	1,052
575,87	0,934
576,07	1,083
576,28	1,135
576,48	1,235
576,68	1,257
576,88	1,439
577,09	2,162
577,29	3,292
577,49	5,426
577,69	9,025
577,90	15,186
578,10	23,309
578,30	34,409
578,50	47,096
578,71	60,117
578,91	69,881
579,11	78,515
579,31	82,042
579,52	85,280
579,72	86,035
579,92	84,327
580,12	84,783
580,33	85,746
580,53	83,353
580,73	82,905
580,93	82,972
581,13	83,438
581,34	84,805
581,54	84,807
581,74	86,483
581,94	87,790
582,15	89,243
582,35	90,294
582,55	91,074
582,75	91,467
582,95	92,908
583,16	92,922
583,36	93,168
583,56	92,546
583,76	92,675
583,96	91,785
584,17	92,204
584,37	92,773
584,57	91,935
584,77	92,508
584,97	93,722
585,18	93,488
585,38	94,475
585,58	95,409
585,78	95,681
585,98	96,440
586,19	95,944
586,39	95,739
586,59	95,462
586,79	94,742
586,99	94,796
587,20	92,768
587,40	93,038
587,60	92,229
587,80	91,728
588,00	91,177
588,20	90,650
588,41	92,571
588,61	91,805
588,81	92,880
589,01	93,485
589,21	93,000
589,41	94,257
589,62	95,443
589,82	95,813
590,02	96,563
590,22	96,703
590,42	98,240
590,62	97,847
590,83	96,265
591,03	98,070
591,23	97,475
591,43	97,391
591,63	97,381
591,83	98,032
592,03	96,787
592,24	97,237
592,44	97,079
592,64	96,763
592,84	98,470
593,04	96,819
593,24	96,587
593,44	97,925
593,65	97,565
593,85	97,279
594,05	97,131
594,25	97,213
594,45	96,745
594,65	97,241
594,85	97,622
595,06	97,250
595,26	97,083
595,46	97,195
595,66	97,544
595,86	97,817
596,06	97,313
596,26	97,075
596,46	97,166
596,66	96,895
596,87	96,607
597,07	97,888
597,27	97,210
597,47	97,982
597,67	96,550
597,87	97,117
598,07	95,723
598,27	95,971
598,47	96,534
598,67	97,300
598,88	98,266
599,08	96,127
599,28	97,517
599,48	97,082
599,68	97,278
599,88	97,927
600,08	96,968
600,28	97,348
600,48	97,476
600,68	95,729
600,88	96,240
601,09	96,775
601,29	94,305
601,49	95,538
601,69	95,038
601,89	95,046
602,09	95,990
602,29	95,156
602,49	95,038
602,69	95,111
602,89	94,590
603,09	96,148
603,29	95,351
603,49	95,075
603,69	96,032
603,90	94,784
604,10	95,475
604,30	94,946
604,50	95,284
604,70	94,714
604,90	94,773
605,10	94,983
605,30	95,283
605,50	95,869
605,70	96,035
605,90	96,321
606,10	94,892
606,30	95,036
606,50	95,758
606,70	96,228
606,90	95,922
607,10	95,350
607,30	96,644
607,50	95,408
607,70	96,528
607,90	95,678
608,10	95,787
608,30	96,177
608,50	96,310
608,70	96,083
608,90	96,799
609,11	97,613
609,31	95,372
609,51	96,784
609,71	95,717
609,91	95,488
610,11	95,716
610,31	94,982
610,51	94,119
610,71	94,898
610,91	94,925
611,11	94,793
611,31	95,365
611,51	95,875
611,71	96,011
611,91	96,179
612,11	98,269
612,31	96,561
612,51	95,928
612,71	94,614
612,91	94,496
613,11	92,486
613,31	90,439
613,51	87,857
613,71	86,049
613,91	85,123
614,11	83,506
614,31	82,157
614,50	82,211
614,70	82,199
614,90	83,681
615,10	84,206
615,30	85,583
615,50	86,297
615,70	88,128
615,90	89,701
616,10	90,414
616,30	90,321
616,50	89,953
616,70	90,236
616,90	89,742
617,10	87,509
617,30	87,222
617,50	86,223
617,70	83,682
617,90	81,571
618,10	79,005
618,30	76,260
618,50	70,079
618,70	62,121
618,90	50,188
619,10	37,991
619,30	26,532
619,49	17,431
619,69	11,665
619,89	7,520
620,09	5,130
620,29	3,639
620,49	2,507
620,69	1,784
620,89	1,532
621,09	1,125
621,29	1,199
621,49	0,871
621,69	0,716
621,89	0,668
622,09	0,668
622,29	0,586
622,48	0,622
622,68	0,441
622,88	0,561
623,08	0,520
623,28	0,554
623,48	0,501
623,68	0,492
623,88	0,623
624,08	0,562
624,28	0,367
624,48	0,666
624,67	0,633
624,87	0,541
625,07	0,414
625,27	0,431
625,47	0,578
625,67	0,676
625,87	0,434
626,07	0,505
626,27	0,460
626,47	0,599
626,66	0,595
626,86	0,456
627,06	0,407
627,26	0,597
627,46	0,479
627,66	0,404
627,86	0,391
628,06	0,412
628,25	0,197
628,45	0,518
628,65	0,553
628,85	0,519
629,05	0,602
629,25	0,455
629,45	0,377
629,65	0,494
629,84	0,481
630,04	0,528
630,24	0,491
630,44	0,434
630,64	0,560
630,84	0,507
631,04	0,386
631,23	0,352
631,43	0,556
631,63	0,445
631,83	0,529
632,03	0,453
632,23	0,366
632,42	0,357
632,62	0,463
632,82	0,279
633,02	0,443
633,22	0,432
633,42	0,560
633,62	0,511
633,81	0,565
634,01	0,493
634,21	0,437
634,41	0,571
634,61	0,632
634,80	0,383
635,00	0,402
635,20	0,585
635,40	0,543
635,60	0,343
635,80	0,455
635,99	0,404
636,19	0,400
636,39	0,652
636,59	0,632
636,79	0,589
636,98	0,597
637,18	0,567
637,38	0,924
637,58	0,386
637,78	0,573
637,97	0,693
638,17	0,584
638,37	0,561
638,57	0,600
638,77	0,701
638,96	0,425
639,16	0,513
639,36	0,587
639,56	0,483
639,76	0,812
639,95	0,804
640,15	0,547
640,35	0,619
640,55	0,442
640,75	0,748
640,94	0,508
641,14	0,445
641,34	0,697
641,54	0,652
641,73	0,445
641,93	0,794
642,13	0,500
642,33	0,772
642,53	0,455
642,72	0,713
642,92	0,733
643,12	0,554
643,32	1,036
643,51	0,731
643,71	0,605
643,91	0,377
644,11	0,955
644,30	0,579
644,50	0,648
644,70	0,668
644,90	0,622
645,09	0,633
645,29	0,458
645,49	0,918
645,69	1,064
645,88	0,719
646,08	0,760
646,28	0,944
646,48	1,024
646,67	0,594
646,87	1,098
647,07	0,657
647,26	0,890
647,46	1,042
647,66	0,702
647,86	0,895
648,05	0,868
648,25	0,728
648,45	0,764
648,65	1,207
648,84	0,916
649,04	0,996
649,24	1,044
649,43	0,827
649,63	1,244
649,83	0,852
650,03	1,045
650,22	0,977
650,42	1,208
650,62	0,296
650,81	0,735
651,01	0,737
651,21	0,720
651,40	0,695
651,60	0,879
651,80	0,608
652,00	1,002
652,19	0,717
652,39	1,007
652,59	0,892
652,78	0,926
652,98	0,731
653,18	0,887
653,37	0,695
653,57	0,998
653,77	0,794
653,96	1,160
654,16	0,996
654,36	1,047
654,55	1,454
654,75	1,316
654,95	1,387
655,14	1,203
655,34	1,538
655,54	1,207
655,73	1,190
655,93	1,743
656,13	1,447
656,32	1,413
656,52	1,660
656,72	3,146
656,91	3,715
657,11	5,093
657,31	7,896
657,50	12,239
657,70	17,254
657,90	23,872
658,09	31,806
658,29	41,187
658,49	48,351
658,68	55,512
658,88	61,657
659,07	66,466
659,27	69,735
659,47	73,256
659,66	73,192
659,86	76,992
660,06	78,939
660,25	78,416
660,45	80,229
660,64	80,405
660,84	79,035
661,04	81,233
661,23	82,174
661,43	81,653
661,63	84,652
661,82	85,358
662,02	87,834
662,21	88,925
662,41	90,780
662,61	91,026
662,80	92,252
663,00	93,116
663,19	95,085
663,39	96,108
663,59	95,584
663,78	96,298
663,98	95,946
664,17	95,609
664,37	95,170
664,57	96,446
664,76	97,141
664,96	97,844
665,15	95,987
665,35	97,211
665,55	96,024
665,74	98,394
665,94	98,724
666,13	98,531
666,33	98,984
666,53	98,352
666,72	96,968
666,92	98,254
667,11	98,038
667,31	96,053
667,50	97,677
667,70	97,440
667,90	96,044
668,09	97,845
668,29	96,702
668,48	97,377
668,68	96,136
668,87	98,401
669,07	97,041
669,26	96,559
669,46	97,499
669,66	98,655
669,85	98,552
670,05	97,867
670,24	96,828
670,44	97,779
670,63	97,505
670,83	97,444
671,02	96,472
671,22	97,332
671,42	94,115
671,61	93,358
671,81	94,489
672,00	93,693
672,20	95,186
672,39	94,456
672,59	93,872
672,78	93,041
672,98	94,030
673,17	95,803
673,37	96,268
673,56	97,079
673,76	96,040
673,95	98,477
674,15	97,670
674,34	98,390
674,54	98,734
674,73	98,494
674,93	98,872
675,13	98,304
675,32	97,234
675,52	97,769
675,71	96,347
675,91	97,386
676,10	96,793
676,30	95,220
676,49	97,596
676,69	95,489
676,88	96,337
677,08	95,458
677,27	96,377
677,47	96,090
677,66	97,155
677,86	96,911
678,05	96,077
678,24	97,521
678,44	97,589
678,63	97,531
678,83	98,216
679,02	97,858
679,22	97,577
679,41	97,890
679,61	97,528
679,80	98,249
680,00	97,139
680,19	97,925
680,39	96,789
680,58	97,567
680,78	96,271
680,97	97,179
681,17	96,554
681,36	95,976
681,56	92,981
681,75	93,682
681,94	93,100
682,14	93,682
682,33	92,445
682,53	92,811
682,72	92,073
682,92	92,679
683,11	91,597
683,31	91,827
683,50	91,534
683,69	93,380
683,89	91,267
684,08	92,155
684,28	91,869
684,47	92,761
684,67	92,760
684,86	90,973
685,06	92,427
685,25	93,048
685,44	93,713
685,64	92,334
685,83	93,619
686,03	94,619
686,22	94,585
686,42	95,222
686,61	95,483
686,80	95,301
687,00	96,206
687,19	95,399
687,39	93,326
687,58	92,975
687,77	92,144
687,97	89,670
688,16	88,945
688,36	86,160
688,55	84,719
688,74	84,193
688,94	82,999
689,13	81,809
689,33	80,820
689,52	79,347
689,71	80,297
689,91	80,145
690,10	79,943
690,30	82,409
690,49	83,224
690,68	82,871
690,88	82,809
691,07	80,715
691,27	78,536
691,46	73,475
691,65	66,651
691,85	60,209
692,04	51,738
692,23	44,157
692,43	38,640
692,62	32,773
692,82	29,631
693,01	26,828
693,20	26,744
693,40	27,775
693,59	29,324
693,78	32,668
693,98	36,188
694,17	38,392
694,36	39,364
694,56	38,579
694,75	34,134
694,94	28,371
695,14	21,628
695,33	15,993
695,53	11,739
695,72	8,139
695,91	6,098
696,11	4,429
696,30	3,413
696,49	2,561
696,69	1,934
696,88	1,619
697,07	1,319
697,27	1,053
697,46	0,989
697,65	0,782
697,85	0,526
698,04	0,829
698,23	0,700
698,43	0,773
698,62	0,680
698,81	0,682
699,01	1,158
699,20	0,946
699,39	0,770
699,58	0,980
699,78	1,031
699,97	1,022
700,16	1,104
700,36	0,978
700,55	1,077
700,74	1,101
700,94	1,033
701,13	0,692
701,32	1,180
701,52	1,367
701,71	0,967
701,90	1,583
702,09	1,139
702,29	1,101
702,48	0,987
702,67	1,288
702,87	1,225
703,06	1,370
703,25	1,157
703,44	1,086
703,64	2,268
703,83	1,800
704,02	1,415
704,22	1,317
704,41	0,684
704,60	2,440
704,79	1,089
704,99	1,623
705,18	1,416
705,37	1,838
705,56	2,517
705,76	2,034
705,95	2,136
706,14	1,374
706,33	2,903
706,53	2,638
706,72	1,358
706,91	2,198
707,11	3,172
707,30	3,052
707,49	3,498
707,68	1,787
707,88	1,995
708,07	1,676
708,26	1,729
708,45	3,697
708,64	1,733
708,84	2,415
709,03	1,959
709,22	0,812
709,41	2,663
709,61	3,149
709,80	2,990
709,99	2,444
710,18	1,848
710,38	2,589
710,57	2,574
710,76	1,963
710,95	2,643
711,14	4,346
711,34	4,301
711,53	3,258
711,72	3,597
711,91	1,632
712,11	5,336
712,30	5,069
712,49	4,111
712,68	3,215
712,87	5,337
713,07	4,915
713,26	1,416
713,45	4,150
713,64	2,539
713,83	3,532
714,03	4,448
714,22	3,051
714,41	4,503
714,60	3,603
714,79	3,540
714,99	2,756
715,18	2,873
715,37	4,557
715,56	4,119
715,75	5,126
715,94	4,958
716,14	4,103
716,33	4,149
716,52	3,145
716,71	4,413
716,90	5,326
717,10	4,434
717,29	2,629
717,48	5,855
717,67	2,257
717,86	4,635
718,05	0,540
718,24	5,033
718,44	4,469
718,63	1,822
718,82	4,597
719,01	5,614
719,20	1,707
719,39	1,766
719,59	2,498
719,78	4,736
719,97	5,649
720,16	7,471
720,35	5,618
720,54	4,725
720,73	3,860
720,93	6,667
721,12	1,845
721,31	5,963
721,50	8,383
721,69	4,852
721,88	5,430
722,07	4,664
722,27	5,122
722,46	5,973
722,65	4,742
722,84	4,160
723,03	0,856
723,22	6,436
723,41	5,139
723,60	9,106
723,79	7,103
723,99	4,124
724,18	7,610
724,37	7,155
724,56	8,831
724,75	6,417
724,94	10,201
725,13	10,035
725,32	6,274
725,51	8,524
725,71	4,640
725,90	7,606
726,09	8,625
726,28	10,904
726,47	7,324
726,66	7,349
726,85	4,816
727,04	7,269
727,23	5,765
727,42	12,098
727,61	6,243
727,81	6,465
728,00	11,168
728,19	6,293
728,38	3,888
728,57	8,386
728,76	9,290
728,95	7,589
729,14	3,964
729,33	12,514
729,52	12,148
729,71	10,333
729,90	6,659
730,09	6,308
730,28	12,125
730,48	9,397
730,67	8,343
730,86	5,721
731,05	7,126
731,24	5,875
731,43	6,038
731,62	12,782
731,81	7,243
732,00	6,861
732,19	2,299
732,38	8,770
732,57	12,670
732,76	10,238
732,95	4,267
733,14	4,421
733,33	4,808
733,52	14,286
733,71	3,959
733,90	16,838
734,09	9,114
734,28	11,172
734,47	7,895
734,66	11,126
734,85	11,064
735,04	13,351
735,23	16,534
735,42	11,527
735,61	10,133
735,81	11,586
736,00	14,157
736,19	9,615
736,38	10,519
736,57	12,117
736,76	6,822
736,95	9,242
737,14	9,271
737,33	16,051
737,52	6,637
737,71	6,410
737,90	8,775
738,09	11,196
738,28	8,772
738,47	8,987
738,66	7,031
738,85	3,780
739,04	9,508
739,22	2,872
739,41	17,258
739,60	6,689
739,79	12,158
739,98	5,263
740,17	10,884
740,36	11,964
740,55	19,400
740,74	10,261
740,93	6,911
741,12	16,176
741,31	16,544
741,50	7,345
741,69	4,074
741,88	7,600
742,07	8,123
742,26	-2,809
742,45	5,929
742,64	20,863
742,83	7,234
743,02	13,514
743,21	16,097
743,40	16,123
743,59	4,508
743,78	23,144
743,97	16,917
744,16	7,982
744,34	12,205
744,53	8,607
744,72	18,503
744,91	7,579
745,10	16,068
745,29	8,747
745,48	5,871
745,67	20,570
745,86	11,502
746,05	15,068
746,24	21,133
746,43	22,459
746,62	7,373
746,81	19,863
747,00	11,691
747,18	25,055
747,37	12,793
747,56	15,056
747,75	16,849
747,94	23,195
748,13	16,438
748,32	18,376
748,51	22,799
748,70	11,751
748,89	14,010
749,08	3,714
749,26	18,854
749,45	14,118
749,64	18,610
749,83	4,835
750,02	16,022
750,21	10,557
750,40	10,417
750,59	29,245
750,78	14,793
750,96	9,497
751,15	16,393
751,34	29,843
751,53	25,369
751,72	8,086
751,91	6,849
752,10	4,012
752,29	24,294
752,47	22,191
752,66	22,535
752,85	13,622
753,04	23,344
753,23	6,623
753,42	24,620
753,61	7,190
753,80	28,455
753,98	15,088
754,17	20,859
754,36	25,141
754,55	6,270
754,74	29,480
754,93	15,850
755,12	21,067
755,30	25,208
755,49	20,183
755,68	26,225
755,87	14,114
756,06	23,184
756,25	19,365
756,43	6,552
756,62	28,783
756,81	20,132
757,00	18,841
757,19	17,466
757,38	20,505
757,56	16,774
757,75	20,915
757,94	24,921
758,13	12,338
758,32	18,561
758,51	31,250
758,69	3,600
758,88	27,628
759,07	21,505
759,26	25,116
759,45	4,803
759,63	28,253
759,82	22,896
760,01	21,739
760,20	25,292
760,39	32,836
760,57	44,628
760,76	22,973
760,95	21,759
761,14	30,204
761,33	29,375
761,51	19,355
761,70	19,655
761,89	18,852
762,08	26,977
762,27	24,542
762,45	31,518
762,64	11,355
762,83	17,257
763,02	13,488
763,21	28,879
763,39	35,918
763,58	20,755
763,77	30,116
763,96	46,988
764,14	30,417
764,33	25,641
764,52	47,639
764,71	26,457
764,89	26,471
765,08	21,983
765,27	23,420
765,46	29,348
765,65	13,537
765,83	33,333
766,02	20,426
766,21	56,354
766,40	17,143
766,58	34,959
766,77	12,438
766,96	46,364
767,15	40,097
767,33	18,713
767,52	14,634
767,71	38,696
767,90	25,281
768,08	25,681
768,27	13,000
768,46	38,672
768,64	54,404
768,83	46,354
769,02	42,000
769,21	26,638
769,39	37,791
769,58	41,618
769,77	39,847
769,96	34,555
770,14	19,728
770,33	20,093
770,52	5,820
770,70	11,333
770,89	47,651
771,08	25,000
771,27	55,670
771,45	40,789
771,64	45,313
771,83	47,196
772,01	29,518
772,20	35,176
772,39	30,667
772,57	31,783
772,76	40,741
772,95	54,610
773,14	50,000
773,32	56,129
773,51	32,836
773,70	51,250
773,88	66,667
774,07	27,225
774,26	41,135
774,44	34,756
774,63	41,624
774,82	33,537
775,00	23,333
775,19	20,800
775,38	60,116
775,56	37,500
775,75	40,361
775,94	53,797
776,12	35,912
776,31	35,882
776,50	43,182
776,68	31,053
776,87	39,773
777,06	58,621
777,24	47,778
777,43	51,282
777,62	34,559
777,80	64,865
777,99	57,143
778,18	61,881
778,36	46,400
778,55	42,149
778,74	49,306
778,92	57,988
779,11	40,833
779,29	25,157
779,48	41,497
779,67	20,155
779,85	50,407
780,04	29,730
780,23	30,935
780,41	59,375
780,60	35,789
780,79	50,847
780,97	44,079
781,16	63,636
781,34	58,763
781,53	61,538
781,72	55,474
781,90	28,906
782,09	43,226
782,28	86,131
782,46	47,407
782,65	59,286
782,83	62,921
783,02	86,250
783,21	65,333
783,39	53,043
783,58	47,929
783,76	58,101
783,95	53,333
784,14	62,252
784,32	63,087
784,51	54,310
784,69	46,610
784,88	68,468
785,06	18,487
785,25	64,331
785,44	67,626
785,62	52,143
785,81	50,704
785,99	64,748
786,18	53,378
786,37	57,037
786,55	50,459
786,74	49,342
786,92	55,469
787,11	52,500
787,29	26,866
787,48	32,667
787,67	50,602
787,85	45,690
788,04	52,970
788,22	66,393
788,41	50,588
788,59	83,486
788,78	54,545
788,96	68,868
789,15	63,158
789,34	42,727
789,52	68,142
789,71	55,814
789,89	87,234
790,08	55,479
790,26	58,571
790,45	54,545
790,63	55,556
790,82	54,545
791,00	56,250
791,19	34,409
791,38	64,583
791,56	67,544
791,75	49,541
791,93	43,678
792,12	78,698
792,30	91,200
792,49	75,630
792,67	79,851
792,86	44,961
793,04	63,551
793,23	45,000
793,41	55,696
793,60	91,919
793,78	76,316
793,97	79,487
794,15	66,364
794,34	36,264
794,52	88,312
794,71	96,296
794,89	54,444
795,08	65,049
795,26	65,000
795,45	97,015
795,63	84,091
795,82	50,467
796,00	62,385
796,19	84,167
796,37	37,956
796,56	64,516
796,74	50,442
796,93	51,685
797,11	46,835
797,30	41,667
797,48	62,759
797,67	75,000
797,85	64,286
798,04	94,792
798,22	55,556
798,41	77,451
798,59	62,105
798,77	-12,308
798,96	34,409
799,14	56,897
799,33	78,626
799,51	84,615
799,70	72,483
799,88	75,758
800,07	50,000
800,25	37,931
800,44	52,525
800,62	42,353
800,80	42,029
800,99	101,587
801,17	81,897
801,36	53,793
801,54	60,417
801,73	46,465
801,91	40,984
802,10	20,238
802,28	91,589
802,46	82,716
802,65	68,966
802,83	101,124
803,02	83,158
803,20	40,625
803,39	15,517
803,57	102,410
803,75	59,459
803,94	53,782
804,12	19,167
804,31	63,717
804,49	45,192
804,67	40,000
804,86	29,464
805,04	60,135
805,23	76,552
805,41	42,623
805,59	20,492
805,78	70,455
805,96	76,923
806,15	66,406
806,33	67,227
806,51	71,681
806,70	90,000
806,88	50,407
807,07	25,397
807,25	56,604
807,43	82,119
807,62	40,650
807,80	80,645
807,99	93,651
808,17	60,993
808,35	61,404
808,54	35,484
808,72	64,800
808,90	80,263
809,09	84,167
809,27	56,757
809,46	61,607
809,64	33,333
809,82	50,575
810,01	63,636
810,19	43,000
810,37	43,846
810,56	126,829
810,74	53,642
810,92	63,636
811,11	50,980
811,29	42,553
811,48	62,626
811,66	64,341
811,84	44,954
812,03	49,091
812,21	14,103
812,39	91,525
812,58	40,196
812,76	57,944
812,94	71,333
813,13	41,270
813,31	64,167
813,49	111,957
813,68	57,391
813,86	66,327
814,04	100,000
814,23	113,131
814,41	43,382
814,59	51,977
814,78	58,824
814,96	43,243
815,14	78,889
815,33	62,319
815,51	25,185
815,69	45,679
815,87	75,652
816,06	48,125
816,24	41,722
816,42	31,410
816,61	44,068
816,79	89,157
816,97	54,955
817,16	31,613
817,34	51,724
817,52	55,862
817,70	91,270
817,89	42,149
818,07	76,724
818,25	54,054
818,44	62,791
818,62	52,586
818,80	58,741
818,98	50,476
819,17	41,538
819,35	53,529
819,53	57,426
819,72	47,093
819,90	55,689
820,08	31,818
820,26	60,526
820,45	79,518
820,63	43,229
820,81	58,389
820,99	63,158
821,18	30,370
821,36	72,381
821,54	38,372
821,73	49,189
821,91	28,723
822,09	43,529
822,27	36,548
822,46	44,375
822,64	84,768
822,82	46,829
823,00	44,144
823,19	16,667
823,37	34,286
823,55	10,000
823,73	37,333
823,91	34,807
824,10	53,631
824,28	16,296
824,46	38,372
824,64	43,627
824,83	42,276
825,01	49,275
825,19	42,286
825,37	47,917
825,56	48,750
825,74	58,095
825,92	40,449
826,10	66,460
826,28	47,651
826,47	16,260
826,65	52,027
826,83	41,398
827,01	12,121
827,19	65,190
827,38	29,534
827,56	45,192
827,74	41,870
827,92	45,854
828,10	39,674
828,29	43,333
828,47	50,000
828,65	40,541
828,83	42,929
829,01	29,333
829,20	32,278
829,38	28,216
829,56	44,534
829,74	38,636
829,92	26,804
830,10	43,694
830,29	21,081
830,47	39,062
830,65	28,125
830,83	45,714
831,01	26,250
831,20	42,079
831,38	26,829
831,56	21,457
831,74	33,714
831,92	31,818
832,10	54,545
832,29	30,332
832,47	31,858
832,65	49,362
832,83	44,651
833,01	24,111
833,19	31,674
833,37	38,148
833,56	32,864
833,74	35,223
833,92	16,814
834,10	34,010
834,28	28,077
834,46	40,830
834,64	35,938
834,83	20,819
835,01	28,405
835,19	19,431
835,37	23,904
835,55	32,130
835,73	36,029
835,91	35,521
836,09	27,801
836,28	35,115
836,46	29,123
836,64	46,721
836,82	21,642
837,00	25,850
837,18	32,806
837,36	23,529
837,54	7,955
837,72	17,131
837,91	29,719
838,09	6,000
838,27	26,740
838,45	25,890
838,63	20,339
838,81	29,934
838,99	19,164
839,17	26,861
839,35	17,407
839,53	23,490
839,72	1,695
839,90	21,581
840,08	20,513
840,26	27,445
840,44	23,457
840,62	12,121
840,80	22,222
840,98	25,680
841,16	-2,491
841,34	31,304
841,52	20,767
841,70	18,519
841,89	30,323
842,07	24,054
842,25	18,182
842,43	38,710
842,61	21,716
842,79	13,110
842,97	18,293
843,15	40,401
843,33	28,504
843,51	26,730
843,69	20,278
843,87	21,294
844,05	21,833
844,23	25,946
844,41	20,603
844,59	16,193
844,77	16,138
844,95	30,825
845,13	15,027
845,31	19,274
845,50	32,216
845,68	22,280
845,86	19,575
846,04	21,728
846,22	18,854
846,40	9,186
846,58	14,209
846,76	19,451
846,94	9,375
847,12	23,697
847,30	20,507
847,48	20,863
847,66	16,585
847,84	14,467
848,02	23,285
848,20	15,673
848,38	19,958
848,56	23,441
848,74	15,289
848,92	6,054
849,10	25,893
849,28	19,390
849,46	11,682
849,64	10,238
849,82	17,548
850,00	10,472
850,18	15,704
850,36	13,816
850,54	21,300
850,72	19,958
850,90	20,925
851,08	8,642
851,26	18,623
851,44	5,823
851,62	13,245
851,80	8,946
851,98	19,342
852,16	31,070
852,34	18,975
852,52	19,682
852,70	14,458
852,87	19,619
853,05	17,635
853,23	13,725
853,41	6,135
853,59	12,264
853,77	11,508
853,95	19,703
854,13	7,767
854,31	19,197
854,49	8,417
854,67	16,165
854,85	8,696
855,03	7,280
855,21	11,337
855,39	13,423
855,57	21,014
855,75	18,212
855,93	13,251
856,11	24,083
856,28	15,972
856,46	4,085
856,64	15,210
856,82	13,264
857,00	15,225
857,18	14,397
857,36	12,605
857,54	15,034
857,72	8,848
857,90	9,885
858,08	5,247
858,26	11,468
858,44	8,075
858,61	4,853
858,79	19,690
858,97	9,456
859,15	12,329
859,33	3,834
859,51	11,981
859,69	12,649
859,87	10,542
860,05	11,437
860,23	5,909
860,40	14,439
860,58	11,063
860,76	10,593
860,94	7,634
861,12	12,181
861,30	9,850
861,48	8,499
861,66	12,184
861,84	13,268
862,01	13,770
862,19	16,667
862,37	13,703
862,55	8,635
862,73	13,451
862,91	13,464
863,09	10,403
863,27	5,989
863,44	7,947
863,62	11,921
863,80	3,461
863,98	11,750
864,16	6,412
864,34	6,883
864,52	9,567
864,69	13,976
864,87	11,919
865,05	9,138
865,23	9,420
865,41	7,986
865,59	11,248
865,76	7,752
865,94	7,621
866,12	8,041
866,30	6,748
866,48	9,975
866,66	11,063
866,83	8,753
867,01	6,946
867,19	6,159
867,37	3,121
867,55	11,416
867,73	3,417
867,90	7,729
868,08	7,625
868,26	4,789
868,44	5,472
868,62	5,956
868,79	5,519
868,97	10,768
869,15	8,811
869,33	7,056
869,51	9,342
869,69	7,404
869,86	5,231
870,04	6,349
870,22	6,035
870,40	6,061
870,57	9,400
870,75	9,004
870,93	8,117
871,11	6,205
871,29	4,268
871,46	5,237
871,64	10,386
871,82	8,488
872,00	9,693
872,18	8,234
872,35	7,843
872,53	5,766
872,71	2,695
872,89	5,097
873,06	9,225
873,24	9,283
873,42	3,405
873,60	4,224
873,77	5,872
873,95	4,707
874,13	5,903
874,31	5,526
874,49	5,144
874,66	6,100
874,84	6,394
875,02	6,428
875,20	8,512
875,37	0,511
875,55	1,439
875,73	3,106
875,91	5,703
876,08	6,369
876,26	5,579
876,44	5,831
876,61	6,794
876,79	1,558
876,97	6,756
877,15	6,412
877,32	5,354
877,50	6,723
877,68	2,785
877,86	4,689
878,03	2,840
878,21	5,015
878,39	6,074
878,56	6,785
878,74	0,145
878,92	3,783
879,10	3,772
879,27	3,606
879,45	6,095
879,63	4,752
879,80	6,458
879,98	2,349
880,16	6,594
880,34	1,823
880,51	8,837
880,69	4,193
880,87	-0,137
881,04	2,772
881,22	4,018
881,40	2,859
881,57	2,242
881,75	6,378
881,93	5,266
882,10	5,573
882,28	4,169
882,46	3,121
882,63	8,857
882,81	4,540
882,99	3,863
883,16	5,523
883,34	4,207
883,52	2,382
883,69	3,723
883,87	5,390
884,05	1,950
884,22	2,123
884,40	4,869
884,58	2,793
884,75	2,488
884,93	6,230
885,11	3,047
885,28	4,433
885,46	2,677
885,64	3,037
885,81	5,324
885,99	3,906
886,17	4,674
886,34	5,454
886,52	2,900
886,70	3,237
886,87	4,868
887,05	5,081
887,22	2,409
887,40	4,460
887,58	3,781
887,75	5,932
887,93	4,691
888,11	0,445
888,28	3,129
888,46	1,928
888,63	5,579
888,81	1,855
888,99	1,374
889,16	0,999
889,34	2,731
889,51	2,525
889,69	1,598
889,87	2,256
890,04	2,287
890,22	0,858
890,39	0,265
890,57	3,684
890,75	3,549
890,92	4,191
891,10	4,611
891,27	3,033
891,45	2,542
891,63	1,735
891,80	2,003
891,98	4,400
892,15	2,876
892,33	2,096
892,51	1,414
892,68	2,020
892,86	1,628
893,03	3,528
893,21	3,779
893,38	2,505
893,56	4,216
893,74	2,071
893,91	2,601
894,09	3,208
894,26	3,762
894,44	2,575
894,61	1,654
894,79	2,081
894,96	1,997
895,14	1,423
895,32	2,150
895,49	1,938
895,67	2,180
895,84	4,348
896,02	1,708
896,19	2,519
896,37	4,676
896,54	2,835
896,72	2,542
896,89	2,656
897,07	2,373
897,25	4,580
897,42	2,027
897,60	4,007
897,77	4,549
897,95	3,657
898,12	0,566
898,30	1,757
898,47	1,617
898,65	1,771
898,82	3,191
899,00	1,779
899,17	2,095
899,35	2,452
899,52	1,975
899,70	2,317
899,87	2,337
900,05	2,984
900,22	1,546
900,40	2,281
900,57	3,165
900,75	2,874
900,92	1,953
901,10	3,513
901,27	1,756
901,45	3,072
901,62	2,924
901,80	3,842
901,97	2,307
902,15	3,573
902,32	1,824
902,50	2,562
902,67	2,680
902,85	1,552
903,02	4,334
903,20	1,673
903,37	2,771
903,54	4,697
903,72	1,283
903,89	1,121
904,07	2,706
904,24	0,975
904,42	1,173
904,59	1,951
904,77	1,331
904,94	0,779
905,12	0,692
905,29	4,183
905,47	2,567
905,64	2,187
905,81	2,735
905,99	2,166
906,16	2,066
906,34	2,444
906,51	1,074
906,69	1,521
906,86	1,748
907,03	2,597
907,21	1,100
907,38	0,338
907,56	3,013
907,73	2,307
907,91	2,876
908,08	1,678
908,25	0,274
908,43	1,248
908,60	1,892
908,78	3,310
908,95	2,158
909,13	1,462
909,30	1,003
909,47	2,174
909,65	3,329
909,82	1,911
910,00	1,458
910,17	1,102
910,34	3,059
910,52	1,505
910,69	2,662
910,87	2,117
911,04	1,130
911,21	1,941
911,39	1,924
911,56	1,933
911,73	1,595
911,91	2,831
912,08	2,312
912,26	1,702
912,43	1,669
912,60	1,956
912,78	2,214
912,95	2,487
913,13	2,596
913,30	1,516
913,47	2,140
913,65	0,560
913,82	1,275
913,99	1,918
914,17	1,582
914,34	2,473
914,51	2,519
914,69	1,809
914,86	3,212
915,03	1,751
915,21	2,203
915,38	1,069
915,56	1,841
915,73	1,908
915,90	2,076
916,08	2,579
916,25	1,337
916,42	0,999
916,60	2,068
916,77	1,502
916,94	1,928
917,12	1,935
917,29	1,566
917,46	1,517
917,64	1,596
917,81	1,897
917,98	1,475
918,16	2,000
918,33	1,115
918,50	1,180
918,67	1,715
918,85	1,184
919,02	1,828
919,19	2,117
919,37	2,006
919,54	1,966
919,71	1,403
919,89	1,374
920,06	0,432
920,23	1,974
920,41	2,202
920,58	1,878
920,75	1,619
920,92	0,931
921,10	1,389
921,27	0,754
921,44	2,039
921,62	1,423
921,79	1,290
921,96	1,327
922,13	0,929
922,31	0,990
922,48	2,148
922,65	1,231
922,82	1,329
923,00	1,653
923,17	0,770
923,34	0,807
923,52	0,902
923,69	1,525
923,86	1,222
924,03	1,372
924,21	1,269
924,38	1,719
924,55	2,813
924,72	2,511
924,90	1,916
925,07	2,069
925,24	1,704
925,41	0,540
925,59	1,556
925,76	1,312
925,93	2,285
926,10	1,173
926,28	1,265
926,45	2,430
926,62	1,761
926,79	1,331
926,96	1,362
927,14	1,955
927,31	0,693
927,48	1,063
927,65	1,445
927,83	0,926
928,00	0,802
928,17	1,222
928,34	1,628
928,51	1,502
928,69	1,288
928,86	1,400
929,03	2,243
929,20	1,295
929,37	1,957
929,55	0,938
929,72	1,344
929,89	0,978
930,06	1,280
930,23	0,945
930,41	0,785
930,58	1,661
930,75	1,291
930,92	0,905
931,09	2,121
931,27	1,549
931,44	0,472
931,61	1,770
931,78	1,594
931,95	0,977
932,12	0,989
932,30	1,630
932,47	1,463
932,64	1,578
932,81	0,923
932,98	0,887
933,16	0,877
933,33	1,462
933,50	2,020
933,67	1,916
933,84	1,027
934,01	0,422
934,18	1,452
934,36	0,557
934,53	1,072
934,70	1,054
934,87	0,710
935,04	1,500
935,21	1,477
935,38	1,341
935,56	1,347
935,73	1,181
935,90	0,552
936,07	1,402
936,24	1,612
936,41	1,107
936,58	0,368
936,76	0,553
936,93	0,368
937,10	1,197
937,27	0,568
937,44	0,949
937,61	1,590
937,78	1,618
937,95	0,280
938,13	1,253
938,30	1,338
938,47	1,242
938,64	0,631
938,81	1,297
938,98	1,179
939,15	1,018
939,32	0,969
939,49	1,641
939,66	1,261
939,84	1,332
940,01	0,691
940,18	1,469
940,35	1,034
940,52	-0,135
940,69	1,847
940,86	0,252
941,03	0,969
941,20	1,171
941,37	1,850
941,54	0,573
941,71	-0,119
941,89	1,197
942,06	0,993
942,23	1,360
942,40	0,526
942,57	1,633
942,74	1,871
942,91	1,282
943,08	1,983
943,25	0,436
943,42	1,366
943,59	1,179
943,76	2,719
943,93	1,344
944,10	0,593
944,27	0,831
944,44	1,998
944,61	1,251
944,79	1,656
944,96	2,715
945,13	0,247
945,30	-0,411
945,47	1,797
945,64	1,684
945,81	2,599
945,98	1,698
946,15	1,499
946,32	1,877
946,49	2,641
946,66	1,010
946,83	1,191
947,00	0,984
947,17	0,988
947,34	1,055
947,51	1,851
947,68	2,285
947,85	1,450
948,02	1,443
948,19	2,565
948,36	1,665
948,53	1,224
948,70	2,201
948,87	2,797
949,04	1,120
949,21	0,568
949,38	1,378
949,55	0,848
949,72	2,399
949,89	1,345
950,06	0,851
950,23	1,668
950,40	1,437
950,57	0,407
950,74	4,007
950,91	1,478
951,08	1,638
951,25	0,966
951,42	3,558
951,59	1,662
951,76	1,577
951,93	3,412
952,10	2,423
952,27	1,236
952,44	1,687
952,61	1,998
952,77	2,642
952,94	2,751
953,11	3,647
953,28	2,327
953,45	4,468
953,62	3,855
953,79	3,013
953,96	2,456
954,13	1,500
954,30	4,036
954,47	2,250
954,64	3,991
954,81	2,921
954,98	1,674
955,15	3,186
955,32	1,965
955,49	-0,063
955,65	3,019
955,82	3,923
955,99	1,270
956,16	7,162
956,33	2,301
956,50	5,938
956,67	2,801
956,84	3,852
957,01	5,148
957,18	5,349
957,35	4,270
957,52	7,215
957,68	2,500
957,85	4,936
958,02	4,220
958,19	4,961
958,36	12,411
958,53	5,438
958,70	5,068
958,87	3,327
959,04	8,394
959,21	13,636
959,37	7,900
959,54	9,592
959,71	6,845
959,88	8,013
960,05	9,161
960,22	3,669
960,39	6,533
960,56	4,177
960,72	7,905
960,89	8,999
961,06	8,025
961,23	7,715
961,40	8,225
961,57	9,700
961,74	6,487
961,90	6,406
962,07	11,872
962,24	17,073
962,41	4,858
962,58	11,015
962,75	10,442
962,92	6,542
963,08	7,636
963,25	8,288
963,42	3,865
963,59	17,562
963,76	11,685
963,93	7,323
964,10	10,493
964,26	12,939
964,43	15,762
964,60	19,948
964,77	18,072
964,94	17,614
965,10	19,643
965,27	13,316
965,44	24,416
965,61	11,019
965,78	18,211
965,95	30,539
966,11	22,291
966,28	6,691
966,45	30,841
966,62	22,769
966,79	17,959
966,95	21,493
967,12	28,391
967,29	21,528
967,46	20,455
967,63	33,585
967,79	28,378
967,96	19,913
968,13	11,000
968,30	23,790
968,47	34,021
968,63	45,946
968,80	32,110
968,97	15,865
969,14	42,442
969,31	30,556
969,47	30,588
969,64	38,889
969,81	30,052
969,98	47,253
970,14	33,129
970,31	42,767
970,48	20,000
970,65	45,562
970,81	64,384
970,98	63,504
971,15	56,122
971,32	19,531
971,48	40,136
971,65	42,308
971,82	42,157
971,99	40,230
972,15	59,859
972,32	61,261
972,49	49,650
972,66	67,273
972,82	65,116
972,99	60,163
973,16	24,138
973,33	37,500
973,49	58,947
973,66	76,344
973,83	42,718
974,00	100,000
974,16	43,137
974,33	77,193
974,50	91,579
974,67	72,632
974,83	65,476
975,00	83,158
975,17	42,857
975,33	64,045
975,50	94,030
975,67	118,367
975,84	123,881
976,00	100,000
976,17	104,918
976,34	31,000
976,50	80,899
976,67	50,485
976,84	800,000
977,00	108,163
977,17	120,000
977,34	118,681
977,50	97,015
977,67	87,500
977,84	40,323
978,01	104,255
978,17	111,111
978,34	144,444
978,51	44,118
978,67	106,579
978,84	58,594
979,01	94,595
979,17	105,128
979,34	78,082
979,51	144,898
979,67	124,691
979,84	171,429
980,01	108,889
980,17	119,718
980,34	277,778
980,51	159,420
980,67	100,000
980,84	356,667
981,01	465,000
981,17	368,000
981,34	500,000
981,50	170,588
981,67	189,831
981,84	3400,000
982,00	213,333
982,17	145,238
982,34	46,667
982,50	453,333
982,67	169,792
982,84	560,000
983,00	500,000
983,17	123,881
983,33	105,172
983,50	700,000
983,67	-110,345
983,83	200,000
984,00	-885,714
984,17	350,000
984,33	-3800,000
984,50	177,143
984,66	210,870
984,83	166,234
985,00	-125,000
985,16	210,345
985,33	576,471
985,49	333,333
985,66	314,706
985,83	139,130
985,99	297,436
986,16	-1125,000
986,32	285,714
986,49	7400,000
986,66	281,818
986,82	400,000
986,99	188,679
987,15	-194,737
987,32	-50,000
987,49	144,000
987,65	3400,000
987,82	262,500
987,98	169,388
988,15	163,333
988,31	700,000
988,48	-433,333
988,65	140,476
988,81	244,444
988,98	224,390
989,14	216,667
989,31	280,952
989,47	97,059
989,64	-646,154
989,80	650,000
989,97	310,811
990,14	-126,087
990,30	-340,909
990,47	289,796
990,63	233,333
990,80	144,000
990,96	-305,000
991,13	162,500
991,29	313,793
991,46	0,000
991,62	-638,462
991,79	633,333
991,95	7300,000
992,12	-920,000
992,29	-356,250
992,45	112,941
992,62	223,256
992,78	240,909
992,95	-60,000
993,11	282,143
993,28	910,000
993,44	-740,000
993,61	-593,750
993,77	-1875,000
993,94	-3233,333
994,10	-29,333
994,27	547,368
994,43	209,302
994,60	0,000
994,76	1325,000
994,93	345,000
995,09	-311,765
995,26	111,111
995,42	205,882
995,59	314,286
995,75	515,385
995,92	1471,429
996,08	258,333
996,25	-450,000
996,41	-2350,000
996,58	580,000
996,74	252,273
996,91	303,448
997,07	0,000
997,23	7500,000
997,40	-10800,000
997,56	-792,308
997,73	-987,500
997,89	234,211
998,06	561,538
998,22	-372,222
998,39	440,000
998,55	700,000
998,72	-800,000
998,88	-173,333
999,05	-46,154
999,21	116,667
999,37	-560,000
999,54	-750,000
999,70	-103,333
999,87	462,500
1000,03	241,026
1000,20	239,583
1000,36	0,000
1000,52	300,000
1000,69	-323,810
1000,85	-850,000
1001,02	-229,167
1001,18	1625,000
1001,35	423,077
1001,51	547,059
1001,67	-838,462
1001,84	-1900,000
1002,00	200,000
1002,17	827,273
1002,33	-1800,000
1002,50	319,048
1002,66	-623,077
1002,82	102,500
1002,99	671,429
1003,15	-942,857
1003,32	-818,182
1003,48	203,571
1003,64	860,000
1003,81	262,963
1003,97	-3000,000
1004,14	709,091
1004,30	260,000
1004,46	-340,000
1004,63	742,857
1004,79	222,222
1004,95	740,000
1005,12	2550,000
1005,28	224,138
1005,45	254,054
1005,61	310,345
1005,77	-133,333
1005,94	-161,905
1006,10	-4200,000
1006,26	661,538
1006,43	-196,154
1006,59	-900,000
1006,76	550,000
1006,92	1100,000
1007,08	9200,000
1007,25	-155,556
1007,41	400,000
1007,57	2250,000
1007,74	620,000
1007,90	-144,828
1008,06	128,261
1008,23	782,353
1008,39	-281,250
1008,55	-211,538
1008,72	-900,000
1008,88	0,000
1009,04	202,439
1009,21	-181,579
1009,37	-633,333
1009,53	107,143
1009,70	933,333
1009,86	-285,714
1010,02	1900,000
1010,19	736,364
1010,35	216,176
1010,51	-4250,000
1010,68	-762,500
1010,84	-120,455
1011,00	431,250
1011,17	-163,636
1011,33	0,000
1011,49	-293,333
1011,66	592,857
1011,82	429,032
1011,98	585,714
1012,14	-481,818
1012,31	274,359
1012,47	0,000
1012,63	966,667
1012,80	550,000
1012,96	-687,500
1013,12	-1083,333
1013,29	538,889
1013,45	251,220
1013,61	2533,333
1013,77	-62,500
1013,94	1140,000
1014,10	94,915
1014,26	-1550,000
1014,43	-200,000
1014,59	280,000
1014,75	-244,444
1014,91	-393,333
1015,08	275,000
1015,24	3400,000
1015,40	247,059
1015,56	-7600,000
1015,73	192,857
1015,89	127,273
1016,05	2575,000
1016,21	-562,500
1016,38	268,421
1016,54	738,462
1016,70	-1633,333
1016,86	240,625
1017,03	700,000
1017,19	-369,231
1017,35	-417,647
1017,51	-700,000
1017,68	100,000
1017,84	-1428,571
1018,00	200,000
1018,16	215,385
1018,33	-928,571
1018,49	-608,333
1018,65	-127,027
1018,81	212,821
1018,97	-1257,143
1019,14	-1666,667
1019,30	-220,513
1019,46	0,000
1019,62	-217,647
1019,79	-3166,667
1019,95	683,333
1020,11	3950,000
1020,27	-174,074
1020,43	-353,846
1020,60	750,000
1020,76	477,778
1020,92	340,000
1021,08	580,000
1021,24	530,000
1021,41	466,667
1021,57	950,000
1021,73	800,000
1021,89	1240,000
1022,05	-178,571
1022,21	325,000
1022,38	-233,333
1022,54	-1066,667
1022,70	237,778
1022,86	-950,000
1023,02	350,000
1023,19	1140,000
1023,35	3100,000
1023,51	325,000
1023,67	292,593
1023,83	-493,750
1023,99	181,579
1024,16	-96,154
1024,32	-744,444
1024,48	-730,000
1024,64	259,524
1024,80	443,478
1024,96	271,795
1025,12	385,714
1025,29	314,286
1025,45	207,895
1025,61	550,000
1025,77	-1680,000
1025,93	-1400,000
1026,09	-757,143
1026,26	375,000
1026,42	250,000
1026,58	230,303
1026,74	1400,000
1026,90	348,000
1027,06	167,857
1027,22	907,143
1027,38	192,308
1027,55	2433,333
1027,71	750,000
1027,87	-164,000
1028,03	540,000
1028,19	128,125
1028,35	575,000
1028,51	760,000
1028,67	391,667
1028,83	-600,000
1029,00	-109,524
1029,16	950,000
1029,32	-164,286
1029,48	171,111
1029,64	241,667
1029,80	2450,000
1029,96	873,333
1030,12	434,783
1030,28	-1200,000
1030,44	-253,846
1030,61	-170,833
1030,77	-191,429
1030,93	-620,000
1031,09	816,667
1031,25	-4800,000
1031,41	-190,000
1031,57	334,615
1031,73	462,500
1031,89	-854,545
1032,05	-203,704
1032,21	445,455
1032,37	-133,333
1032,53	-414,286
1032,69	-33,333
1032,86	240,741
1033,02	-152,500
1033,18	-481,250
1033,34	247,368
1033,50	-2350,000
1033,66	-226,829
1033,82	308,696
1033,98	-255,556
1034,14	100,000
1034,30	235,484
1034,46	-1833,333
1034,62	365,000
1034,78	-409,524
1034,94	184,211
1035,10	-446,154
1035,26	-60,465
1035,42	-251,724
1035,58	-216,667
1035,74	641,667
1035,90	-476,923
1036,06	-1000,000
1036,22	1083,333
1036,38	-388,235
1036,54	-262,500
1036,70	-118,182
1036,86	4900,000
1037,02	422,222
1037,18	321,053
1037,34	129,524
1037,50	-36,585
1037,66	-282,353
1037,82	2120,000
1037,98	-177,778
1038,14	-144,000
1038,30	-25,000
1038,46	-478,571
1038,62	343,478
1038,78	-1200,000
1038,94	-210,526
1039,10	350,000
1039,26	307,407
1039,42	-550,000
1039,58	1157,143
1039,74	-231,579
1039,90	184,375
1040,06	-257,692
>>>>>End Processed Spectral Data<<<<<
