SpectraSuite Data File
++++++++++++++++++++++++++++++++++++
Date: Wed Feb 01 15:45:10 EET 2017
User: optolab
Dark Spectrum Present: Yes
Reference Spectrum Present: Yes
Number of Sampled Component Spectra: 1
Spectrometers: USB4C02475
Integration Time (usec): 100000 (USB4C02475)
Spectra Averaged: 1 (USB4C02475)
Boxcar Smoothing: 0 (USB4C02475)
Correct for Electrical Dark: No (USB4C02475)
Strobe/Lamp Enabled: No (USB4C02475)
Correct for Detector Non-linearity: No (USB4C02475)
Correct for Stray Light: No (USB4C02475)
Number of Pixels in Processed Spectrum: 3648
>>>>>Begin Processed Spectral Data<<<<<
344,91	3950,000
345,13	3950,000
345,35	3950,000
345,57	0,000
345,79	331,579
346,00	-2000,000
346,22	-1742,857
346,44	361,765
346,66	-516,667
346,87	-10700,000
347,09	415,152
347,31	-359,091
347,53	-228,205
347,74	233,846
347,96	478,788
348,18	736,842
348,40	274,194
348,61	1011,765
348,83	195,238
349,05	237,255
349,27	-3300,000
349,48	434,615
349,70	-279,310
349,92	380,645
350,14	245,283
350,35	236,000
350,57	1650,000
350,79	456,000
351,01	-690,476
351,22	279,630
351,44	792,308
351,66	-168,000
351,87	-495,238
352,09	215,385
352,31	236,066
352,53	250,000
352,74	341,667
352,96	209,091
353,18	673,684
353,40	400,000
353,61	191,111
353,83	288,235
354,05	836,364
354,26	1783,333
354,48	194,000
354,70	372,727
354,92	-213,793
355,13	187,879
355,35	265,909
355,57	420,833
355,78	172,289
356,00	-2950,000
356,22	373,077
356,44	4250,000
356,65	313,636
356,87	534,615
357,09	545,833
357,30	206,667
357,52	206,897
357,74	670,000
357,95	230,769
358,17	201,639
358,39	204,839
358,60	262,162
358,82	500,000
359,04	414,815
359,26	448,571
359,47	7900,000
359,69	315,000
359,91	545,455
360,12	485,714
360,34	562,500
360,56	-44,444
360,77	2475,000
360,99	576,190
361,21	276,000
361,42	5500,000
361,64	214,286
361,86	178,462
362,07	-441,935
362,29	189,333
362,51	-452,941
362,72	536,000
362,94	270,588
363,16	244,186
363,37	-642,857
363,59	430,769
363,81	322,727
364,02	522,222
364,24	541,667
364,46	2566,667
364,67	1018,182
364,89	1728,571
365,11	221,429
365,32	482,759
365,54	394,444
365,76	179,592
365,97	264,706
366,19	175,862
366,41	545,455
366,62	403,704
366,84	206,977
367,05	332,653
367,27	2133,333
367,49	-461,538
367,70	776,471
367,92	193,443
368,14	300,000
368,35	-5300,000
368,57	448,000
368,79	331,034
369,00	258,696
369,22	-1312,500
369,43	204,706
369,65	222,581
369,87	302,703
370,08	121,687
370,30	273,214
370,51	231,148
370,73	182,222
370,95	209,677
371,16	259,524
371,38	456,667
371,60	1050,000
371,81	157,812
372,03	633,333
372,24	280,000
372,46	188,679
372,68	148,571
372,89	318,182
373,11	284,615
373,32	331,818
373,54	-923,077
373,76	623,077
373,97	746,667
374,19	504,545
374,40	259,375
374,62	-3366,667
374,84	3850,000
375,05	407,143
375,27	284,000
375,48	-7900,000
375,70	174,667
375,92	207,143
376,13	293,750
376,35	206,849
376,56	825,000
376,78	202,778
376,99	221,429
377,21	235,417
377,43	159,091
377,64	137,681
377,86	348,276
378,07	294,872
378,29	-1662,500
378,51	429,032
378,72	272,917
378,94	-1111,111
379,15	178,788
379,37	352,941
379,58	235,385
379,80	686,667
380,01	493,750
380,23	164,706
380,45	1240,000
380,66	3333,333
380,88	229,545
381,09	187,143
381,31	173,333
381,52	270,588
381,74	1344,444
381,95	363,636
382,17	430,769
382,39	390,476
382,60	171,429
382,82	338,462
383,03	209,615
383,25	306,452
383,46	306,818
383,68	422,222
383,89	475,000
384,11	116,129
384,32	-1433,333
384,54	538,889
384,76	-3000,000
384,97	157,576
385,19	351,724
385,40	227,451
385,62	201,754
385,83	250,000
386,05	241,176
386,26	188,000
386,48	163,218
386,69	243,750
386,91	520,000
387,12	218,644
387,34	187,931
387,55	216,129
387,77	318,750
387,98	480,769
388,20	146,739
388,41	317,647
388,63	7400,000
388,84	126,230
389,06	288,095
389,27	563,158
389,49	244,444
389,70	226,531
389,92	280,000
390,13	177,551
390,35	309,804
390,56	196,296
390,78	500,000
390,99	750,000
391,21	463,158
391,42	244,444
391,64	302,439
391,85	125,862
392,07	202,273
392,28	124,000
392,50	324,242
392,71	-800,000
392,93	178,846
393,14	319,444
393,36	255,102
393,57	147,368
393,79	633,333
394,00	193,617
394,22	120,548
394,43	113,253
394,65	204,651
394,86	725,000
395,08	380,952
395,29	188,679
395,50	576,923
395,72	383,333
395,93	461,905
396,15	181,690
396,36	166,176
396,58	175,000
396,79	320,000
397,01	208,000
397,22	138,889
397,44	181,818
397,65	182,456
397,87	230,952
398,08	177,551
398,29	315,625
398,51	217,857
398,72	217,073
398,94	149,231
399,15	331,429
399,37	210,526
399,58	161,538
399,80	390,909
400,01	181,481
400,22	371,429
400,44	201,235
400,65	432,143
400,87	170,588
401,08	187,143
401,30	234,783
401,51	184,211
401,72	373,077
401,94	188,608
402,15	500,000
402,37	132,773
402,58	544,444
402,80	225,714
403,01	250,704
403,22	863,636
403,44	188,406
403,65	182,143
403,87	130,000
404,08	397,436
404,30	162,353
404,51	-2766,667
404,72	118,571
404,94	136,275
405,15	176,000
405,37	156,962
405,58	154,118
405,79	140,244
406,01	160,976
406,22	155,172
406,44	223,404
406,65	233,333
406,86	133,333
407,08	145,570
407,29	123,301
407,51	154,878
407,72	119,444
407,93	128,261
408,15	59,829
408,36	113,953
408,58	128,866
408,79	69,167
409,00	156,250
409,22	111,111
409,43	162,025
409,64	75,776
409,86	58,491
410,07	84,615
410,29	91,045
410,50	97,872
410,71	98,214
410,93	97,452
411,14	113,953
411,35	91,667
411,57	97,368
411,78	101,562
412,00	87,261
412,21	67,742
412,42	92,063
412,64	71,245
412,85	42,268
413,06	53,659
413,28	34,685
413,49	69,194
413,70	51,449
413,92	49,802
414,13	24,896
414,34	56,322
414,56	41,958
414,77	67,932
414,98	41,946
415,20	28,374
415,41	46,176
415,63	39,303
415,84	33,889
416,05	37,088
416,27	32,300
416,48	23,596
416,69	34,513
416,91	17,027
417,12	24,866
417,33	25,053
417,55	25,956
417,76	28,131
417,97	24,689
418,19	19,881
418,40	19,574
418,61	17,593
418,83	24,182
419,04	23,028
419,25	21,340
419,46	23,158
419,68	22,381
419,89	11,475
420,10	20,272
420,32	16,936
420,53	19,011
420,74	14,612
420,96	10,500
421,17	14,781
421,38	15,669
421,60	8,499
421,81	8,656
422,02	10,136
422,23	8,451
422,45	6,256
422,66	10,804
422,87	8,718
423,09	7,307
423,30	7,914
423,51	4,567
423,73	7,052
423,94	8,543
424,15	3,265
424,36	6,751
424,58	7,625
424,79	8,557
425,00	5,139
425,22	5,361
425,43	4,677
425,64	7,366
425,85	6,257
426,07	4,769
426,28	5,610
426,49	4,884
426,71	5,634
426,92	3,584
427,13	2,681
427,34	2,919
427,56	3,558
427,77	2,321
427,98	4,363
428,19	2,724
428,41	4,127
428,62	3,548
428,83	4,237
429,04	3,035
429,26	5,292
429,47	4,151
429,68	0,773
429,89	2,431
430,11	3,009
430,32	2,608
430,53	3,368
430,74	1,426
430,96	2,760
431,17	2,128
431,38	1,805
431,59	2,477
431,81	3,040
432,02	1,740
432,23	2,146
432,44	2,531
432,66	1,956
432,87	2,696
433,08	2,747
433,29	2,667
433,51	1,708
433,72	2,426
433,93	0,821
434,14	1,966
434,35	1,987
434,57	1,856
434,78	0,656
434,99	2,313
435,20	1,323
435,42	1,322
435,63	1,402
435,84	1,439
436,05	1,498
436,26	1,689
436,48	1,524
436,69	0,585
436,90	1,248
437,11	0,940
437,32	1,209
437,54	1,777
437,75	0,885
437,96	1,794
438,17	0,671
438,38	1,999
438,60	0,935
438,81	1,151
439,02	1,408
439,23	0,847
439,44	1,095
439,66	1,448
439,87	1,461
440,08	1,078
440,29	0,889
440,50	1,269
440,72	0,929
440,93	0,854
441,14	1,056
441,35	1,061
441,56	0,863
441,77	1,129
441,99	1,253
442,20	1,275
442,41	0,910
442,62	1,310
442,83	1,310
443,04	1,601
443,26	1,821
443,47	2,259
443,68	2,259
443,89	2,827
444,10	2,793
444,31	3,158
444,53	3,638
444,74	4,159
444,95	4,696
445,16	4,866
445,37	5,553
445,58	5,999
445,80	6,722
446,01	7,446
446,22	7,269
446,43	8,262
446,64	8,898
446,85	9,732
447,06	11,075
447,28	12,003
447,49	13,441
447,70	15,324
447,91	16,802
448,12	17,828
448,33	20,039
448,54	21,826
448,76	23,056
448,97	23,871
449,18	24,405
449,39	25,586
449,60	26,748
449,81	26,675
450,02	27,298
450,23	26,223
450,45	26,003
450,66	25,479
450,87	24,715
451,08	24,165
451,29	23,533
451,50	23,047
451,71	22,316
451,92	21,775
452,13	20,930
452,35	21,183
452,56	19,919
452,77	19,698
452,98	18,583
453,19	18,878
453,40	17,609
453,61	17,674
453,82	17,109
454,03	17,174
454,25	17,067
454,46	17,075
454,67	17,282
454,88	18,139
455,09	18,543
455,30	19,235
455,51	20,861
455,72	21,720
455,93	23,198
456,14	25,248
456,35	26,810
456,56	28,050
456,78	28,797
456,99	30,568
457,20	32,302
457,41	33,290
457,62	34,481
457,83	34,951
458,04	36,823
458,25	36,758
458,46	37,661
458,67	37,181
458,88	36,815
459,09	35,903
459,30	35,309
459,51	34,109
459,73	33,806
459,94	32,487
460,15	30,851
460,36	30,311
460,57	28,915
460,78	28,209
460,99	27,764
461,20	27,892
461,41	27,781
461,62	27,581
461,83	29,548
462,04	29,869
462,25	31,761
462,46	31,892
462,67	33,237
462,88	34,703
463,09	35,886
463,30	37,421
463,51	38,265
463,72	37,938
463,93	39,291
464,15	39,122
464,36	39,829
464,57	40,376
464,78	40,842
464,99	40,886
465,20	42,166
465,41	42,285
465,62	41,929
465,83	42,542
466,04	42,091
466,25	42,305
466,46	42,667
466,67	42,912
466,88	43,615
467,09	43,348
467,30	44,544
467,51	43,622
467,72	44,397
467,93	44,313
468,14	44,037
468,35	43,730
468,56	43,815
468,77	43,072
468,98	42,969
469,19	41,867
469,40	41,541
469,61	40,758
469,82	39,479
470,03	39,520
470,24	38,988
470,45	37,291
470,66	36,208
470,87	36,795
471,08	36,705
471,29	35,906
471,50	35,756
471,71	35,766
471,92	36,465
472,13	36,173
472,34	36,212
472,55	36,191
472,76	36,342
472,97	36,017
473,18	35,782
473,39	35,580
473,60	35,377
473,81	35,160
474,01	34,597
474,22	34,082
474,43	33,726
474,64	33,668
474,85	32,747
475,06	32,265
475,27	32,239
475,48	32,677
475,69	31,575
475,90	32,132
476,11	32,487
476,32	32,545
476,53	32,839
476,74	32,793
476,95	33,726
477,16	33,319
477,37	33,882
477,58	35,278
477,79	35,375
478,00	35,441
478,21	36,145
478,41	36,394
478,62	37,219
478,83	36,632
479,04	38,037
479,25	37,758
479,46	38,613
479,67	39,142
479,88	40,161
480,09	39,895
480,30	40,723
480,51	41,295
480,72	41,154
480,93	41,410
481,14	41,330
481,34	40,961
481,55	41,349
481,76	41,549
481,97	41,876
482,18	42,781
482,39	42,388
482,60	41,840
482,81	41,836
483,02	42,298
483,23	41,438
483,44	41,708
483,65	40,746
483,85	39,759
484,06	39,405
484,27	37,514
484,48	36,680
484,69	35,006
484,90	33,268
485,11	32,308
485,32	30,716
485,53	28,316
485,73	27,591
485,94	25,181
486,15	24,334
486,36	22,347
486,57	20,554
486,78	18,613
486,99	17,685
487,20	15,920
487,41	14,527
487,61	12,886
487,82	11,751
488,03	10,809
488,24	10,003
488,45	9,101
488,66	8,434
488,87	7,801
489,08	7,688
489,28	7,258
489,49	6,986
489,70	6,323
489,91	6,179
490,12	5,818
490,33	5,529
490,54	4,967
490,74	4,613
490,95	3,993
491,16	3,535
491,37	3,351
491,58	2,482
491,79	1,930
492,00	1,702
492,20	1,294
492,41	0,919
492,62	0,852
492,83	0,797
493,04	0,688
493,25	0,689
493,45	0,596
493,66	0,647
493,87	0,533
494,08	0,440
494,29	0,284
494,50	0,567
494,70	0,617
494,91	0,655
495,12	0,568
495,33	0,550
495,54	0,661
495,75	0,576
495,95	0,512
496,16	0,565
496,37	0,504
496,58	0,705
496,79	0,452
496,99	0,428
497,20	0,450
497,41	0,508
497,62	0,339
497,83	0,571
498,04	0,483
498,24	0,412
498,45	0,523
498,66	0,647
498,87	0,597
499,08	0,400
499,28	0,530
499,49	0,364
499,70	0,479
499,91	0,566
500,12	0,275
500,32	0,404
500,53	0,376
500,74	0,613
500,95	0,546
501,15	0,528
501,36	0,524
501,57	0,466
501,78	0,488
501,99	0,533
502,19	0,382
502,40	0,413
502,61	0,569
502,82	0,331
503,02	0,564
503,23	0,426
503,44	0,513
503,65	0,543
503,86	0,379
504,06	0,502
504,27	0,492
504,48	0,521
504,69	0,516
504,89	0,591
505,10	0,581
505,31	0,454
505,52	0,559
505,72	0,556
505,93	0,488
506,14	0,479
506,35	0,489
506,55	0,612
506,76	0,484
506,97	0,434
507,18	0,638
507,38	0,717
507,59	0,682
507,80	0,660
508,01	0,606
508,21	0,695
508,42	0,864
508,63	0,774
508,84	0,607
509,04	0,969
509,25	0,943
509,46	1,282
509,67	1,306
509,87	1,522
510,08	1,526
510,29	1,836
510,49	2,064
510,70	2,241
510,91	2,542
511,12	2,894
511,32	3,136
511,53	3,837
511,74	3,967
511,94	4,525
512,15	5,225
512,36	5,753
512,57	6,583
512,77	7,378
512,98	8,220
513,19	8,834
513,39	10,098
513,60	10,865
513,81	12,265
514,01	13,136
514,22	14,176
514,43	15,051
514,64	16,017
514,84	17,333
515,05	17,906
515,26	18,424
515,46	19,773
515,67	20,427
515,88	21,044
516,08	21,094
516,29	22,197
516,50	22,059
516,70	22,528
516,91	22,986
517,12	23,370
517,32	23,650
517,53	24,002
517,74	24,643
517,95	24,940
518,15	25,607
518,36	26,317
518,57	27,083
518,77	28,066
518,98	29,043
519,19	29,912
519,39	30,403
519,60	32,262
519,80	33,397
520,01	34,628
520,22	35,291
520,42	36,677
520,63	37,546
520,84	37,885
521,04	39,018
521,25	39,531
521,46	39,814
521,66	40,124
521,87	40,670
522,08	40,855
522,28	40,397
522,49	41,472
522,70	41,621
522,90	41,976
523,11	42,336
523,31	42,734
523,52	42,916
523,73	43,960
523,93	43,289
524,14	44,178
524,35	44,746
524,55	45,354
524,76	45,868
524,97	46,996
525,17	48,095
525,38	48,202
525,58	49,314
525,79	50,941
526,00	52,079
526,20	53,141
526,41	53,833
526,61	54,924
526,82	55,699
527,03	56,452
527,23	56,814
527,44	57,901
527,64	58,314
527,85	59,748
528,06	60,542
528,26	60,770
528,47	61,885
528,68	62,492
528,88	63,291
529,09	63,707
529,29	63,939
529,50	65,069
529,70	65,125
529,91	63,387
530,12	64,179
530,32	62,169
530,53	62,199
530,73	60,966
530,94	59,961
531,15	58,622
531,35	57,254
531,56	55,932
531,76	54,057
531,97	52,713
532,17	51,028
532,38	49,453
532,59	47,980
532,79	46,974
533,00	45,129
533,20	44,424
533,41	43,336
533,61	43,302
533,82	42,499
534,03	42,223
534,23	42,244
534,44	42,069
534,64	41,555
534,85	40,872
535,05	40,903
535,26	41,017
535,46	40,927
535,67	40,513
535,88	40,538
536,08	39,622
536,29	39,168
536,49	38,530
536,70	37,301
536,90	36,915
537,11	36,674
537,31	35,912
537,52	35,538
537,72	35,132
537,93	34,804
538,13	33,794
538,34	34,064
538,55	33,682
538,75	33,646
538,96	33,715
539,16	33,282
539,37	33,540
539,57	34,190
539,78	33,625
539,98	33,955
540,19	33,741
540,39	33,632
540,60	32,967
540,80	33,313
541,01	32,499
541,21	32,465
541,42	31,612
541,62	30,434
541,83	31,146
542,03	30,471
542,24	29,572
542,44	29,653
542,65	28,771
542,85	28,993
543,06	29,040
543,26	29,234
543,47	29,216
543,67	29,890
543,88	30,494
544,08	30,563
544,29	30,799
544,49	31,178
544,70	32,076
544,90	32,381
545,11	31,954
545,31	32,920
545,52	32,446
545,72	31,832
545,93	31,328
546,13	30,754
546,34	30,752
546,54	29,803
546,75	28,970
546,95	28,207
547,15	27,590
547,36	27,759
547,56	26,796
547,77	26,296
547,97	25,745
548,18	24,884
548,38	24,152
548,59	22,994
548,79	22,142
549,00	21,564
549,20	21,028
549,41	19,815
549,61	19,116
549,81	18,227
550,02	17,189
550,22	16,557
550,43	15,613
550,63	15,452
550,84	14,809
551,04	14,390
551,25	14,152
551,45	13,885
551,65	13,457
551,86	13,426
552,06	12,600
552,27	12,523
552,47	11,986
552,68	11,456
552,88	10,422
553,08	9,474
553,29	9,049
553,49	8,077
553,70	7,400
553,90	6,296
554,11	5,807
554,31	5,403
554,51	5,134
554,72	4,404
554,92	4,087
555,13	3,798
555,33	3,400
555,53	3,069
555,74	2,587
555,94	2,354
556,15	1,913
556,35	1,743
556,56	1,725
556,76	1,435
556,96	1,277
557,17	1,162
557,37	1,043
557,58	0,911
557,78	0,711
557,98	0,643
558,19	0,603
558,39	0,648
558,59	0,582
558,80	0,626
559,00	0,414
559,21	0,476
559,41	0,336
559,61	0,402
559,82	0,469
560,02	0,373
560,23	0,621
560,43	0,483
560,63	0,373
560,84	0,328
561,04	0,306
561,24	0,429
561,45	0,418
561,65	0,303
561,85	0,634
562,06	0,370
562,26	0,290
562,47	0,492
562,67	0,374
562,87	0,459
563,08	0,468
563,28	0,353
563,48	0,536
563,69	0,530
563,89	0,483
564,09	0,437
564,30	0,460
564,50	0,615
564,70	0,477
564,91	0,446
565,11	0,271
565,31	0,441
565,52	0,481
565,72	0,509
565,92	0,664
566,13	0,334
566,33	0,356
566,53	0,315
566,74	0,388
566,94	0,398
567,14	0,209
567,35	0,310
567,55	0,469
567,75	0,533
567,96	0,478
568,16	0,506
568,36	0,422
568,57	0,493
568,77	0,379
568,97	0,415
569,18	0,471
569,38	0,403
569,58	0,451
569,79	0,395
569,99	0,450
570,19	0,553
570,39	0,497
570,60	0,476
570,80	0,363
571,00	0,364
571,21	0,360
571,41	0,429
571,61	0,353
571,82	0,419
572,02	0,374
572,22	0,491
572,42	0,404
572,63	0,436
572,83	0,539
573,03	0,373
573,24	0,534
573,44	0,312
573,64	0,586
573,84	0,541
574,05	0,483
574,25	0,482
574,45	0,382
574,66	0,383
574,86	0,577
575,06	0,466
575,26	0,341
575,47	0,555
575,67	0,646
575,87	0,491
576,07	0,617
576,28	0,812
576,48	0,832
576,68	0,899
576,88	0,749
577,09	0,922
577,29	1,070
577,49	1,283
577,69	1,133
577,90	1,633
578,10	1,898
578,30	1,826
578,50	1,942
578,71	2,338
578,91	2,418
579,11	2,932
579,31	3,116
579,52	3,091
579,72	3,388
579,92	3,716
580,12	4,245
580,33	4,452
580,53	4,920
580,73	5,388
580,93	5,919
581,13	6,152
581,34	6,801
581,54	7,529
581,74	8,268
581,94	9,207
582,15	9,993
582,35	10,798
582,55	11,678
582,75	13,144
582,95	13,821
583,16	14,997
583,36	16,600
583,56	17,617
583,76	18,927
583,96	20,158
584,17	21,241
584,37	23,155
584,57	23,352
584,77	24,305
584,97	25,200
585,18	25,315
585,38	25,580
585,58	25,326
585,78	25,561
585,98	25,324
586,19	24,832
586,39	24,383
586,59	24,036
586,79	22,840
586,99	22,597
587,20	21,774
587,40	21,493
587,60	20,568
587,80	20,295
588,00	19,952
588,20	19,224
588,41	19,412
588,61	18,592
588,81	19,022
589,01	18,915
589,21	19,119
589,41	19,678
589,62	20,183
589,82	20,606
590,02	20,893
590,22	22,150
590,42	23,447
590,62	23,828
590,83	24,718
591,03	26,023
591,23	27,076
591,43	28,568
591,63	29,311
591,83	30,519
592,03	31,493
592,24	32,995
592,44	33,409
592,64	35,069
592,84	35,743
593,04	35,865
593,24	36,812
593,44	37,312
593,65	38,012
593,85	38,493
594,05	38,057
594,25	37,851
594,45	38,438
594,65	37,956
594,85	37,727
595,06	37,713
595,26	37,761
595,46	37,447
595,66	37,232
595,86	37,322
596,06	36,862
596,26	36,846
596,46	36,771
596,66	36,698
596,87	37,033
597,07	37,396
597,27	37,431
597,47	38,029
597,67	38,368
597,87	37,771
598,07	38,050
598,27	38,491
598,47	38,423
598,67	39,062
598,88	38,912
599,08	39,127
599,28	40,258
599,48	39,755
599,68	40,188
599,88	40,078
600,08	39,885
600,28	40,305
600,48	39,944
600,68	39,264
600,88	39,726
601,09	39,761
601,29	38,753
601,49	39,140
601,69	38,568
601,89	38,114
602,09	38,160
602,29	37,678
602,49	36,832
602,69	37,136
602,89	36,701
603,09	37,194
603,29	37,154
603,49	36,446
603,69	37,016
603,90	36,468
604,10	37,175
604,30	36,910
604,50	37,460
604,70	37,618
604,90	37,634
605,10	38,515
605,30	39,148
605,50	38,886
605,70	39,651
605,90	40,046
606,10	39,808
606,30	39,601
606,50	40,286
606,70	40,068
606,90	40,064
607,10	39,992
607,30	39,621
607,50	39,415
607,70	39,118
607,90	38,971
608,10	38,969
608,30	38,249
608,50	38,169
608,70	36,922
608,90	36,416
609,11	36,474
609,31	35,222
609,51	34,220
609,71	33,353
609,91	32,196
610,11	31,402
610,31	29,738
610,51	28,943
610,71	27,666
610,91	26,163
611,11	25,120
611,31	24,759
611,51	23,335
611,71	22,971
611,91	22,492
612,11	22,235
612,31	21,424
612,51	21,132
612,71	21,006
612,91	20,762
613,11	20,952
613,31	21,283
613,51	21,188
613,71	20,809
613,91	20,652
614,11	20,488
614,31	20,212
614,50	19,862
614,70	19,125
614,90	18,273
615,10	16,834
615,30	15,744
615,50	14,380
615,70	13,410
615,90	12,617
616,10	10,990
616,30	10,082
616,50	8,817
616,70	7,982
616,90	7,049
617,10	6,283
617,30	5,785
617,50	5,054
617,70	4,508
617,90	4,425
618,10	4,000
618,30	3,886
618,50	4,019
618,70	4,072
618,90	4,177
619,10	4,769
619,30	4,942
619,49	5,558
619,69	6,534
619,89	6,925
620,09	8,444
620,29	8,976
620,49	9,888
620,69	10,849
620,89	12,047
621,09	12,945
621,29	13,960
621,49	15,008
621,69	15,102
621,89	16,304
622,09	16,407
622,29	16,693
622,48	16,174
622,68	15,818
622,88	15,494
623,08	14,211
623,28	13,409
623,48	12,501
623,68	11,608
623,88	10,590
624,08	9,542
624,28	8,336
624,48	7,373
624,67	6,653
624,87	5,791
625,07	5,184
625,27	4,536
625,47	4,309
625,67	3,894
625,87	3,381
626,07	3,193
626,27	2,813
626,47	2,693
626,66	2,474
626,86	2,130
627,06	1,921
627,26	1,646
627,46	1,491
627,66	1,270
627,86	1,083
628,06	0,961
628,25	0,755
628,45	0,871
628,65	0,619
628,85	0,625
629,05	0,800
629,25	0,571
629,45	0,377
629,65	0,413
629,84	0,418
630,04	0,366
630,24	0,443
630,44	0,341
630,64	0,493
630,84	0,345
631,04	0,371
631,23	0,241
631,43	0,351
631,63	0,304
631,83	0,205
632,03	0,422
632,23	0,313
632,42	0,345
632,62	0,459
632,82	0,324
633,02	0,308
633,22	0,427
633,42	0,396
633,62	0,197
633,81	0,382
634,01	0,260
634,21	0,379
634,41	0,460
634,61	0,374
634,80	0,234
635,00	0,232
635,20	0,416
635,40	0,601
635,60	0,392
635,80	0,495
635,99	0,465
636,19	0,375
636,39	0,555
636,59	0,637
636,79	0,547
636,98	0,487
637,18	0,471
637,38	0,550
637,58	0,663
637,78	0,497
637,97	0,538
638,17	0,511
638,37	0,493
638,57	0,555
638,77	0,479
638,96	0,305
639,16	0,525
639,36	0,378
639,56	0,506
639,76	0,474
639,95	0,486
640,15	0,264
640,35	0,352
640,55	0,233
640,75	0,576
640,94	0,254
641,14	0,263
641,34	0,596
641,54	0,241
641,73	0,222
641,93	0,429
642,13	0,441
642,33	0,641
642,53	0,455
642,72	0,517
642,92	0,687
643,12	0,534
643,32	0,662
643,51	0,608
643,71	0,598
643,91	0,445
644,11	0,706
644,30	0,545
644,50	0,439
644,70	0,408
644,90	0,452
645,09	0,562
645,29	0,395
645,49	0,796
645,69	0,599
645,88	0,762
646,08	0,608
646,28	0,690
646,48	0,549
646,67	0,491
646,87	0,593
647,07	0,373
647,26	0,711
647,46	0,397
647,66	0,543
647,86	0,698
648,05	0,632
648,25	0,712
648,45	0,641
648,65	0,733
648,84	0,450
649,04	0,895
649,24	0,696
649,43	0,507
649,63	0,874
649,83	0,985
650,03	0,554
650,22	0,604
650,42	0,568
650,62	0,320
650,81	0,469
651,01	0,585
651,21	0,728
651,40	0,598
651,60	0,645
651,80	0,403
652,00	0,655
652,19	0,588
652,39	0,729
652,59	0,592
652,78	0,885
652,98	0,474
653,18	0,630
653,37	0,452
653,57	0,715
653,77	0,485
653,96	0,286
654,16	0,647
654,36	0,777
654,55	0,799
654,75	0,742
654,95	1,097
655,14	0,491
655,34	0,709
655,54	0,595
655,73	0,625
655,93	0,687
656,13	0,531
656,32	0,345
656,52	0,183
656,72	0,821
656,91	0,415
657,11	0,638
657,31	0,446
657,50	0,724
657,70	0,798
657,90	0,568
658,09	0,507
658,29	0,898
658,49	0,517
658,68	0,682
658,88	0,774
659,07	0,224
659,27	0,692
659,47	1,016
659,66	0,348
659,86	0,645
660,06	0,646
660,25	0,335
660,45	0,761
660,64	0,502
660,84	0,560
661,04	0,420
661,23	1,060
661,43	0,941
661,63	0,706
661,82	0,294
662,02	0,733
662,21	0,546
662,41	0,430
662,61	0,840
662,80	0,256
663,00	0,489
663,19	0,843
663,39	0,835
663,59	0,880
663,78	0,359
663,98	0,567
664,17	0,622
664,37	0,577
664,57	0,912
664,76	0,721
664,96	0,502
665,15	0,189
665,35	0,686
665,55	0,188
665,74	0,718
665,94	0,526
666,13	0,853
666,33	0,301
666,53	0,727
666,72	0,434
666,92	0,782
667,11	1,044
667,31	0,541
667,50	0,833
667,70	0,609
667,90	0,419
668,09	0,630
668,29	0,696
668,48	0,487
668,68	0,742
668,87	0,538
669,07	0,618
669,26	0,544
669,46	0,507
669,66	0,838
669,85	0,639
670,05	0,232
670,24	0,482
670,44	0,573
670,63	0,547
670,83	0,748
671,02	0,721
671,22	0,936
671,42	0,533
671,61	0,760
671,81	0,401
672,00	0,609
672,20	0,514
672,39	0,319
672,59	0,568
672,78	0,601
672,98	0,262
673,17	0,690
673,37	0,389
673,56	0,464
673,76	0,630
673,95	0,496
674,15	0,418
674,34	0,614
674,54	0,583
674,73	0,405
674,93	0,507
675,13	0,325
675,32	0,511
675,52	0,734
675,71	0,440
675,91	0,315
676,10	0,447
676,30	0,539
676,49	0,238
676,69	0,567
676,88	0,589
677,08	0,713
677,27	0,391
677,47	0,603
677,66	0,565
677,86	0,545
678,05	0,852
678,24	0,385
678,44	0,658
678,63	0,344
678,83	0,681
679,02	0,689
679,22	0,050
679,41	0,613
679,61	0,430
679,80	0,348
680,00	0,355
680,19	0,289
680,39	0,443
680,58	0,400
680,78	0,475
680,97	0,270
681,17	0,558
681,36	0,368
681,56	0,427
681,75	0,590
681,94	0,345
682,14	0,520
682,33	0,591
682,53	0,681
682,72	0,495
682,92	0,695
683,11	0,564
683,31	0,178
683,50	0,342
683,69	0,511
683,89	0,316
684,08	0,306
684,28	0,272
684,47	0,430
684,67	0,431
684,86	0,106
685,06	0,132
685,25	0,190
685,44	0,390
685,64	0,243
685,83	0,336
686,03	0,277
686,22	0,144
686,42	0,210
686,61	0,325
686,80	0,310
687,00	0,392
687,19	0,480
687,39	0,159
687,58	0,319
687,77	0,123
687,97	0,426
688,16	0,225
688,36	0,300
688,55	0,212
688,74	0,353
688,94	0,246
689,13	0,428
689,33	0,431
689,52	0,329
689,71	0,397
689,91	0,245
690,10	0,301
690,30	0,290
690,49	0,300
690,68	0,316
690,88	0,381
691,07	0,274
691,27	0,302
691,46	0,206
691,65	0,399
691,85	0,254
692,04	0,242
692,23	0,292
692,43	0,110
692,62	0,457
692,82	0,360
693,01	0,300
693,20	0,407
693,40	0,220
693,59	0,352
693,78	0,288
693,98	0,169
694,17	0,205
694,36	0,363
694,56	0,304
694,75	0,190
694,94	0,317
695,14	0,445
695,33	0,329
695,53	0,244
695,72	0,259
695,91	0,242
696,11	0,159
696,30	0,358
696,49	0,280
696,69	0,202
696,88	0,380
697,07	0,100
697,27	0,490
697,46	0,246
697,65	0,334
697,85	0,471
698,04	0,559
698,23	0,288
698,43	0,605
698,62	0,273
698,81	0,352
699,01	0,686
699,20	0,480
699,39	0,677
699,58	0,632
699,78	0,646
699,97	0,390
700,16	0,924
700,36	0,649
700,55	0,515
700,74	0,386
700,94	0,775
701,13	0,692
701,32	1,054
701,52	1,356
701,71	0,708
701,90	0,745
702,09	1,047
702,29	1,210
702,48	1,303
702,67	0,752
702,87	1,292
703,06	0,822
703,25	1,286
703,44	0,843
703,64	1,345
703,83	1,551
704,02	1,272
704,22	1,054
704,41	0,767
704,60	1,952
704,79	0,334
704,99	1,195
705,18	1,544
705,37	1,628
705,56	2,285
705,76	2,173
705,95	1,431
706,14	1,582
706,33	2,070
706,53	1,362
706,72	1,972
706,91	1,809
707,11	3,078
707,30	2,932
707,49	2,935
707,68	1,485
707,88	2,686
708,07	1,755
708,26	2,075
708,45	2,229
708,64	2,173
708,84	2,780
709,03	2,737
709,22	1,564
709,41	2,604
709,61	2,232
709,80	3,372
709,99	2,506
710,18	3,249
710,38	3,153
710,57	1,922
710,76	2,034
710,95	1,217
711,14	3,242
711,34	2,079
711,53	3,551
711,72	2,922
711,91	1,904
712,11	3,906
712,30	5,426
712,49	3,748
712,68	3,549
712,87	4,363
713,07	3,523
713,26	3,648
713,45	4,842
713,64	4,098
713,83	2,906
714,03	5,594
714,22	4,480
714,41	4,972
714,60	4,430
714,79	2,999
714,99	3,740
715,18	2,822
715,37	3,646
715,56	4,640
715,75	2,929
715,94	3,340
716,14	5,208
716,33	5,496
716,52	3,202
716,71	2,961
716,90	4,193
717,10	3,582
717,29	3,943
717,48	7,436
717,67	2,563
717,86	1,916
718,05	3,537
718,24	3,775
718,44	7,642
718,63	3,643
718,82	7,935
719,01	4,492
719,20	4,596
719,39	3,465
719,59	1,621
719,78	4,398
719,97	5,579
720,16	5,415
720,35	4,846
720,54	5,078
720,73	3,002
720,93	6,953
721,12	2,878
721,31	7,399
721,50	7,122
721,69	4,200
721,88	7,843
722,07	5,657
722,27	3,008
722,46	5,327
722,65	4,007
722,84	3,846
723,03	4,281
723,22	8,930
723,41	3,875
723,60	6,600
723,79	8,840
723,99	5,756
724,18	9,848
724,37	6,414
724,56	9,813
724,75	7,843
724,94	10,375
725,13	9,083
725,32	6,654
725,51	9,490
725,71	5,682
725,90	6,479
726,09	11,321
726,28	10,811
726,47	6,250
726,66	8,000
726,85	7,582
727,04	10,384
727,23	8,052
727,42	8,780
727,61	6,138
727,81	11,157
728,00	8,223
728,19	5,378
728,38	4,968
728,57	9,539
728,76	11,900
728,95	8,705
729,14	7,135
729,33	16,795
729,52	7,537
729,71	11,481
729,90	2,985
730,09	9,579
730,28	15,473
730,48	7,309
730,67	12,576
730,86	8,333
731,05	13,668
731,24	10,771
731,43	6,289
731,62	15,163
731,81	7,370
732,00	11,817
732,19	4,087
732,38	9,948
732,57	9,809
732,76	11,548
732,95	4,533
733,14	5,852
733,33	4,533
733,52	13,317
733,71	7,791
733,90	16,324
734,09	12,984
734,28	5,241
734,47	14,868
734,66	11,940
734,85	6,383
735,04	13,896
735,23	9,656
735,42	10,951
735,61	17,733
735,81	12,276
736,00	9,639
736,19	15,533
736,38	14,963
736,57	20,195
736,76	9,302
736,95	11,212
737,14	15,046
737,33	15,088
737,52	13,424
737,71	8,494
737,90	16,641
738,09	18,865
738,28	11,802
738,47	15,850
738,66	12,187
738,85	7,560
739,04	9,508
739,22	5,912
739,41	16,613
739,60	6,522
739,79	12,158
739,98	5,989
740,17	23,639
740,36	21,607
740,55	16,755
740,74	8,696
740,93	16,260
741,12	17,463
741,31	10,110
741,50	16,384
741,69	6,296
741,88	1,600
742,07	17,329
742,26	6,554
742,45	17,984
742,64	25,360
742,83	10,000
743,02	14,234
743,21	19,517
743,40	11,900
743,59	15,164
743,78	22,052
743,97	24,624
744,16	14,634
744,34	21,063
744,53	22,131
744,72	17,464
744,91	13,895
745,10	23,679
745,29	4,019
745,48	18,591
745,67	15,071
745,86	11,737
746,05	21,005
746,24	24,837
746,43	20,804
746,62	12,673
746,81	20,548
747,00	11,273
747,18	20,440
747,37	19,403
747,56	11,011
747,75	23,851
747,94	21,882
748,13	24,429
748,32	20,940
748,51	15,576
748,70	23,261
748,89	22,705
749,08	14,286
749,26	21,002
749,45	20,706
749,64	18,610
749,83	11,196
750,02	14,365
750,21	17,009
750,40	21,354
750,59	32,075
750,78	25,444
750,96	23,184
751,15	12,295
751,34	22,775
751,53	34,975
751,72	29,111
751,91	16,712
752,10	9,877
752,29	30,508
752,47	21,348
752,66	13,803
752,85	17,957
753,04	18,927
753,23	14,570
753,42	32,523
753,61	9,477
753,80	28,455
753,98	14,386
754,17	31,288
754,36	17,232
754,55	13,480
754,74	31,503
754,93	21,902
755,12	25,333
755,30	25,485
755,49	29,664
755,68	32,277
755,87	18,018
756,06	29,888
756,25	16,508
756,43	20,000
756,62	21,068
756,81	21,452
757,00	28,986
757,19	43,836
757,38	29,338
757,56	26,774
757,75	30,392
757,94	25,868
758,13	30,519
758,32	29,167
758,51	27,206
758,69	37,200
758,88	44,144
759,07	34,409
759,26	11,628
759,45	28,384
759,63	42,007
759,82	22,559
760,01	30,100
760,20	30,350
760,39	40,299
760,57	48,760
760,76	14,865
760,95	43,519
761,14	29,796
761,33	28,750
761,51	34,767
761,70	49,655
761,89	34,016
762,08	38,140
762,27	32,234
762,45	33,463
762,64	36,630
762,83	20,796
763,02	22,791
763,21	22,845
763,39	42,449
763,58	42,264
763,77	16,602
763,96	46,988
764,14	24,167
764,33	32,967
764,52	35,622
764,71	39,910
764,89	40,686
765,08	32,328
765,27	46,840
765,46	36,413
765,65	25,764
765,83	32,468
766,02	16,596
766,21	34,254
766,40	47,619
766,58	29,675
766,77	22,388
766,96	52,727
767,15	42,995
767,33	30,409
767,52	51,829
767,71	52,609
767,90	23,034
768,08	33,074
768,27	48,000
768,46	50,391
768,64	56,477
768,83	38,021
769,02	53,500
769,21	42,358
769,39	45,930
769,58	36,416
769,77	48,276
769,96	37,173
770,14	22,449
770,33	35,514
770,52	48,677
770,70	31,333
770,89	51,678
771,08	37,288
771,27	57,732
771,45	49,123
771,64	47,917
771,83	44,860
772,01	33,735
772,20	69,849
772,39	34,667
772,57	17,054
772,76	23,704
772,95	54,610
773,14	73,656
773,32	54,194
773,51	56,716
773,70	66,875
773,88	65,027
774,07	43,979
774,26	9,929
774,44	32,317
774,63	81,726
774,82	61,585
775,00	66,000
775,19	20,800
775,38	70,520
775,56	64,062
775,75	28,916
775,94	55,063
776,12	40,331
776,31	52,941
776,50	52,841
776,68	57,895
776,87	48,864
777,06	60,690
777,24	68,889
777,43	36,538
777,62	50,000
777,80	67,568
777,99	92,000
778,18	67,327
778,36	59,200
778,55	89,256
778,74	54,167
778,92	78,107
779,11	84,167
779,29	31,447
779,48	48,299
779,67	61,240
779,85	76,423
780,04	51,892
780,23	45,324
780,41	46,875
780,60	42,105
780,79	63,842
780,97	60,526
781,16	49,091
781,34	84,536
781,53	81,197
781,72	81,022
781,90	52,344
782,09	81,935
782,28	83,212
782,46	50,370
782,65	45,714
782,83	79,775
783,02	53,750
783,21	76,667
783,39	66,957
783,58	53,254
783,76	63,687
783,95	64,242
784,14	56,291
784,32	68,456
784,51	66,379
784,69	61,864
784,88	59,459
785,06	32,773
785,25	77,707
785,44	75,540
785,62	60,714
785,81	87,324
785,99	80,576
786,18	98,649
786,37	58,519
786,55	41,284
786,74	54,605
786,92	58,594
787,11	56,667
787,29	76,119
787,48	52,667
787,67	50,602
787,85	75,000
788,04	55,941
788,22	77,869
788,41	58,824
788,59	102,752
788,78	63,030
788,96	64,151
789,15	134,737
789,34	67,273
789,52	93,805
789,71	54,264
789,89	112,766
790,08	85,616
790,26	92,857
790,45	71,970
790,63	70,370
790,82	69,697
791,00	72,917
791,19	62,366
791,38	69,444
791,56	96,491
791,75	75,229
791,93	94,253
792,12	94,675
792,30	70,400
792,49	69,748
792,67	73,134
792,86	65,891
793,04	61,682
793,23	66,667
793,41	68,354
793,60	143,434
793,78	134,211
793,97	97,436
794,15	94,545
794,34	60,440
794,52	112,987
794,71	71,605
794,89	34,444
795,08	79,612
795,26	84,444
795,45	108,955
795,63	116,667
795,82	39,252
796,00	71,560
796,19	80,833
796,37	86,131
796,56	100,000
796,74	72,566
796,93	82,022
797,11	69,620
797,30	85,833
797,48	58,621
797,67	125,000
797,85	51,020
798,04	86,458
798,22	78,571
798,41	67,647
798,59	76,842
798,77	93,846
798,96	89,247
799,14	117,241
799,33	76,336
799,51	59,231
799,70	91,275
799,88	62,121
800,07	73,684
800,25	64,138
800,44	96,970
800,62	92,941
800,80	156,522
800,99	82,540
801,17	84,483
801,36	83,448
801,54	106,250
801,73	67,677
801,91	54,918
802,10	120,238
802,28	85,047
802,46	79,012
802,65	111,494
802,83	110,112
803,02	75,789
803,20	94,531
803,39	63,793
803,57	66,265
803,75	84,459
803,94	88,235
804,12	62,500
804,31	75,221
804,49	87,500
804,67	66,400
804,86	58,929
805,04	58,108
805,23	71,724
805,41	99,180
805,59	59,016
805,78	91,667
805,96	68,590
806,15	114,844
806,33	88,235
806,51	85,841
806,70	125,000
806,88	69,919
807,07	73,810
807,25	57,233
807,43	88,079
807,62	75,610
807,80	118,280
807,99	81,746
808,17	109,220
808,35	95,614
808,54	119,355
808,72	100,000
808,90	115,789
809,09	90,000
809,27	85,586
809,46	108,929
809,64	72,549
809,82	56,322
810,01	90,152
810,19	71,000
810,37	70,769
810,56	120,732
810,74	54,305
810,92	84,848
811,11	147,059
811,29	73,050
811,48	120,202
811,66	106,202
811,84	89,908
812,03	72,727
812,21	102,564
812,39	83,898
812,58	58,824
812,76	92,523
812,94	96,000
813,13	84,127
813,31	80,000
813,49	109,783
813,68	95,652
813,86	92,857
814,04	114,563
814,23	69,697
814,41	55,147
814,59	63,842
814,78	78,676
814,96	101,802
815,14	96,667
815,33	105,072
815,51	59,259
815,69	55,556
815,87	98,261
816,06	81,875
816,24	98,675
816,42	36,538
816,61	46,610
816,79	95,181
816,97	86,486
817,16	63,226
817,34	87,586
817,52	57,931
817,70	100,794
817,89	50,413
818,07	108,621
818,25	38,739
818,44	81,977
818,62	40,517
818,80	90,909
818,98	72,381
819,17	76,923
819,35	86,471
819,53	77,228
819,72	81,395
819,90	58,683
820,08	44,156
820,26	105,263
820,45	63,253
820,63	72,917
820,81	67,114
820,99	82,707
821,18	34,074
821,36	58,095
821,54	46,512
821,73	61,622
821,91	55,851
822,09	54,118
822,27	50,761
822,46	53,750
822,64	70,199
822,82	57,561
823,00	50,450
823,19	21,970
823,37	80,000
823,55	69,412
823,73	74,667
823,91	33,702
824,10	74,860
824,28	58,519
824,46	51,744
824,64	49,510
824,83	63,415
825,01	65,942
825,19	70,286
825,37	60,417
825,56	54,375
825,74	50,952
825,92	51,124
826,10	67,702
826,28	57,718
826,47	23,577
826,65	62,162
826,83	53,226
827,01	49,242
827,19	58,228
827,38	52,332
827,56	59,135
827,74	54,878
827,92	69,268
828,10	75,000
828,29	68,095
828,47	57,456
828,65	48,108
828,83	51,515
829,01	22,000
829,20	54,430
829,38	55,187
829,56	51,417
829,74	39,394
829,92	47,938
830,10	54,955
830,29	52,432
830,47	57,292
830,65	33,482
830,83	54,286
831,01	27,917
831,20	53,465
831,38	69,756
831,56	52,632
831,74	49,714
831,92	39,205
832,10	47,727
832,29	20,853
832,47	45,133
832,65	46,809
832,83	32,093
833,01	27,668
833,19	40,271
833,37	49,259
833,56	43,662
833,74	48,988
833,92	40,265
834,10	47,716
834,28	38,462
834,46	44,983
834,64	43,359
834,83	39,249
835,01	40,078
835,19	28,436
835,37	45,418
835,55	44,043
835,73	55,882
835,91	34,363
836,09	31,535
836,28	43,893
836,46	32,632
836,64	50,410
836,82	41,418
837,00	38,095
837,18	58,893
837,36	77,540
837,54	28,788
837,72	35,458
837,91	23,695
838,09	14,800
838,27	36,630
838,45	48,544
838,63	27,458
838,81	47,697
838,99	37,631
839,17	42,718
839,35	30,370
839,53	41,275
839,72	23,729
839,90	26,748
840,08	34,936
840,26	43,533
840,44	33,025
840,62	33,670
840,80	40,123
840,98	40,181
841,16	28,470
841,34	32,174
841,52	33,546
841,70	39,057
841,89	40,000
842,07	28,378
842,25	39,286
842,43	31,613
842,61	36,997
842,79	38,110
842,97	29,573
843,15	39,255
843,33	32,542
843,51	34,129
843,69	20,833
843,87	28,841
844,05	23,450
844,23	40,270
844,41	33,417
844,59	21,591
844,77	25,937
844,95	26,699
845,13	28,689
845,31	32,402
845,50	37,371
845,68	31,088
845,86	33,726
846,04	29,877
846,22	34,129
846,40	23,360
846,58	28,686
846,76	30,673
846,94	22,596
847,12	33,649
847,30	32,488
847,48	26,859
847,66	42,927
847,84	26,904
848,02	30,769
848,20	29,801
848,38	39,496
848,56	32,903
848,74	21,074
848,92	22,338
849,10	48,214
849,28	34,858
849,46	21,963
849,64	32,143
849,82	25,000
850,00	22,382
850,18	31,640
850,36	38,158
850,54	33,184
850,72	27,027
850,90	31,144
851,08	26,132
851,26	34,818
851,44	25,502
851,62	25,607
851,80	31,014
851,98	36,420
852,16	39,712
852,34	27,514
852,52	23,857
852,70	23,896
852,87	28,571
853,05	28,056
853,23	26,863
853,41	22,699
853,59	23,585
853,77	28,175
853,95	33,263
854,13	27,573
854,31	32,635
854,49	27,255
854,67	33,083
854,85	32,348
855,03	30,651
855,21	25,381
855,39	18,289
855,57	35,688
855,75	30,185
855,93	25,265
856,11	27,113
856,28	28,993
856,46	24,183
856,64	26,214
856,82	19,721
857,00	21,972
857,18	26,291
857,36	18,992
857,54	29,223
857,72	20,033
857,90	21,417
858,08	23,611
858,26	17,890
858,44	20,963
858,61	18,198
858,79	23,721
858,97	24,355
859,15	17,960
859,33	19,939
859,51	14,537
859,69	15,327
859,87	21,669
860,05	21,339
860,23	15,000
860,40	20,737
860,58	19,540
860,76	17,655
860,94	18,931
861,12	19,122
861,30	23,256
861,48	18,980
861,66	22,883
861,84	19,413
862,01	25,267
862,19	22,358
862,37	16,181
862,55	18,245
862,73	21,467
862,91	17,136
863,09	21,066
863,27	12,117
863,44	15,364
863,62	17,532
863,80	12,608
863,98	18,774
864,16	14,180
864,34	22,338
864,52	18,679
864,69	17,108
864,87	20,143
865,05	16,345
865,23	18,478
865,41	20,262
865,59	21,384
865,76	18,734
865,94	18,707
866,12	20,951
866,30	19,141
866,48	18,204
866,66	18,655
866,83	21,882
867,01	20,719
867,19	15,342
867,37	16,447
867,55	17,783
867,73	22,779
867,90	16,425
868,08	18,083
868,26	21,209
868,44	19,099
868,62	20,585
868,79	15,801
868,97	18,230
869,15	20,170
869,33	17,200
869,51	20,594
869,69	19,917
869,86	19,795
870,04	24,550
870,22	17,586
870,40	18,990
870,57	18,600
870,75	23,755
870,93	22,893
871,11	18,006
871,29	16,463
871,46	22,054
871,64	20,376
871,82	22,049
872,00	23,640
872,18	24,977
872,35	21,747
872,53	19,187
872,71	20,308
872,89	23,077
873,06	23,247
873,24	19,118
873,42	18,100
873,60	20,110
873,77	19,217
873,95	18,580
874,13	21,109
874,31	20,321
874,49	20,139
874,66	20,361
874,84	18,117
875,02	22,213
875,20	22,645
875,37	21,976
875,55	20,406
875,73	19,241
875,91	21,328
876,08	20,780
876,26	21,649
876,44	21,086
876,61	19,008
876,79	19,159
876,97	21,760
877,15	23,893
877,32	17,638
877,50	22,765
877,68	22,031
877,86	17,218
878,03	21,105
878,21	19,690
878,39	21,778
878,56	22,419
878,74	18,583
878,92	21,068
879,10	19,896
879,27	18,169
879,45	19,424
879,63	18,876
879,80	19,511
879,98	18,505
880,16	19,307
880,34	18,771
880,51	21,196
880,69	20,076
880,87	17,457
881,04	17,408
881,22	21,146
881,40	20,363
881,57	18,342
881,75	19,770
881,93	17,379
882,10	20,628
882,28	16,864
882,46	19,584
882,63	20,854
882,81	20,000
882,99	20,374
883,16	18,765
883,34	19,308
883,52	18,106
883,69	17,671
883,87	20,241
884,05	15,780
884,22	17,097
884,40	17,175
884,58	15,810
884,75	17,247
884,93	17,592
885,11	17,791
885,28	15,818
885,46	17,903
885,64	18,220
885,81	19,399
885,99	14,321
886,17	16,261
886,34	17,042
886,52	15,898
886,70	15,781
886,87	15,329
887,05	16,667
887,22	15,274
887,40	16,422
887,58	15,672
887,75	17,049
887,93	16,082
888,11	13,989
888,28	13,656
888,46	13,940
888,63	18,472
888,81	14,891
888,99	12,133
889,16	11,222
889,34	13,750
889,51	15,436
889,69	12,976
889,87	13,111
890,04	11,659
890,22	11,792
890,39	10,924
890,57	15,128
890,75	14,408
890,92	12,974
891,10	13,877
891,27	11,872
891,45	11,750
891,63	12,489
891,80	11,885
891,98	13,200
892,15	11,548
892,33	11,824
892,51	12,354
892,68	10,552
892,86	11,477
893,03	13,408
893,21	11,615
893,38	10,431
893,56	9,906
893,74	10,912
893,91	12,022
894,09	9,944
894,26	9,404
894,44	9,403
894,61	13,076
894,79	9,572
894,96	9,869
895,14	11,546
895,32	9,242
895,49	10,039
895,67	10,121
895,84	10,368
896,02	10,930
896,19	9,667
896,37	11,036
896,54	10,825
896,72	12,085
896,89	11,656
897,07	9,937
897,25	13,514
897,42	11,979
897,60	11,449
897,77	12,911
897,95	11,725
898,12	10,474
898,30	10,369
898,47	11,355
898,65	12,991
898,82	11,016
899,00	11,061
899,17	12,195
899,35	13,450
899,52	11,573
899,70	11,238
899,87	12,801
900,05	14,472
900,22	12,784
900,40	11,985
900,57	12,934
900,75	10,976
900,92	11,682
901,10	12,111
901,27	12,323
901,45	13,314
901,62	12,504
901,80	14,594
901,97	12,844
902,15	14,550
902,32	13,859
902,50	13,111
902,67	14,439
902,85	13,090
903,02	14,573
903,20	14,453
903,37	12,888
903,54	16,256
903,72	13,360
903,89	12,953
904,07	14,803
904,24	13,125
904,42	13,788
904,59	12,636
904,77	15,060
904,94	14,021
905,12	13,584
905,29	15,996
905,47	14,982
905,64	14,231
905,81	14,796
905,99	14,160
906,16	13,525
906,34	15,937
906,51	13,808
906,69	13,691
906,86	14,903
907,03	13,688
907,21	12,859
907,38	12,899
907,56	13,950
907,73	13,752
907,91	14,147
908,08	14,129
908,25	14,264
908,43	15,764
908,60	14,114
908,78	14,835
908,95	14,954
909,13	15,424
909,30	13,587
909,47	16,128
909,65	13,922
909,82	14,937
910,00	13,882
910,17	14,811
910,34	14,978
910,52	14,298
910,69	15,605
910,87	14,531
911,04	14,516
911,21	15,137
911,39	14,720
911,56	15,014
911,73	13,728
911,91	16,486
912,08	14,763
912,26	14,904
912,43	14,391
912,60	14,833
912,78	13,720
912,95	15,336
913,13	15,953
913,30	15,057
913,47	17,231
913,65	15,032
913,82	16,038
913,99	16,575
914,17	16,896
914,34	16,048
914,51	18,458
914,69	16,030
914,86	18,525
915,03	18,130
915,21	17,595
915,38	18,432
915,56	18,436
915,73	18,850
915,90	18,080
916,08	19,544
916,25	18,405
916,42	18,872
916,60	19,332
916,77	19,880
916,94	20,430
917,12	21,803
917,29	20,700
917,46	20,044
917,64	21,010
917,81	21,825
917,98	22,984
918,16	23,765
918,33	22,177
918,50	24,657
918,67	23,559
918,85	24,035
919,02	23,499
919,19	24,872
919,37	25,277
919,54	24,989
919,71	25,483
919,89	25,069
920,06	24,119
920,23	24,387
920,41	25,965
920,58	26,726
920,75	25,619
920,92	26,329
921,10	27,173
921,27	25,862
921,44	28,211
921,62	27,780
921,79	28,493
921,96	30,332
922,13	28,111
922,31	29,954
922,48	29,442
922,65	29,259
922,82	30,268
923,00	30,092
923,17	29,136
923,34	31,204
923,52	31,121
923,69	31,152
923,86	31,719
924,03	32,748
924,21	33,249
924,38	34,416
924,55	33,228
924,72	35,050
924,90	33,432
925,07	32,961
925,24	34,329
925,41	33,887
925,59	32,125
925,76	33,918
925,93	35,867
926,10	35,447
926,28	34,714
926,45	35,566
926,62	35,053
926,79	35,885
926,96	35,447
927,14	34,821
927,31	35,187
927,48	36,657
927,65	35,501
927,83	35,399
928,00	35,843
928,17	34,562
928,34	36,589
928,51	35,586
928,69	35,805
928,86	34,785
929,03	36,609
929,20	35,903
929,37	35,942
929,55	36,271
929,72	35,894
929,89	36,496
930,06	37,490
930,23	37,001
930,41	36,115
930,58	36,414
930,75	38,774
930,92	35,188
931,09	36,244
931,27	35,330
931,44	35,038
931,61	37,521
931,78	36,240
931,95	36,755
932,12	36,506
932,30	36,512
932,47	37,184
932,64	36,533
932,81	36,299
932,98	35,891
933,16	37,092
933,33	38,322
933,50	36,214
933,67	37,021
933,84	36,506
934,01	35,700
934,18	36,988
934,36	37,539
934,53	38,093
934,70	37,808
934,87	37,168
935,04	37,544
935,21	36,822
935,38	36,512
935,56	37,152
935,73	36,471
935,90	36,586
936,07	37,731
936,24	36,081
936,41	36,746
936,58	36,434
936,76	38,308
936,93	36,524
937,10	36,901
937,27	36,728
937,44	36,832
937,61	37,327
937,78	38,186
937,95	37,938
938,13	36,544
938,30	36,945
938,47	37,468
938,64	38,205
938,81	38,484
938,98	37,498
939,15	40,498
939,32	39,742
939,49	39,228
939,66	38,942
939,84	39,737
940,01	40,207
940,18	41,009
940,35	41,111
940,52	39,619
940,69	39,597
940,86	40,542
941,03	41,043
941,20	39,639
941,37	39,138
941,54	40,000
941,71	39,462
941,89	41,335
942,06	40,659
942,23	41,128
942,40	41,783
942,57	41,834
942,74	41,690
942,91	41,587
943,08	42,544
943,25	42,291
943,42	41,581
943,59	42,346
943,76	44,647
943,93	40,391
944,10	42,567
944,27	43,570
944,44	43,281
944,61	42,925
944,79	45,357
944,96	45,794
945,13	43,988
945,30	44,658
945,47	44,050
945,64	44,729
945,81	45,266
945,98	45,499
946,15	45,385
946,32	44,724
946,49	46,819
946,66	46,084
946,83	45,125
947,00	44,927
947,17	46,736
947,34	45,576
947,51	44,833
947,68	47,635
947,85	46,389
948,02	46,407
948,19	45,363
948,36	48,446
948,53	46,272
948,70	46,275
948,87	47,146
949,04	45,227
949,21	45,696
949,38	46,675
949,55	45,003
949,72	44,865
949,89	47,822
950,06	47,904
950,23	46,900
950,40	46,390
950,57	46,172
950,74	49,085
950,91	44,826
951,08	48,926
951,25	47,065
951,42	47,212
951,59	46,375
951,76	47,634
951,93	49,137
952,10	47,776
952,27	47,429
952,44	46,394
952,61	46,941
952,77	49,212
952,94	50,177
953,11	51,688
953,28	48,720
953,45	51,599
953,62	50,602
953,79	50,885
953,96	51,965
954,13	52,250
954,30	52,321
954,47	53,615
954,64	52,315
954,81	55,112
954,98	50,335
955,15	52,543
955,32	53,603
955,49	56,847
955,65	57,609
955,82	57,161
955,99	59,024
956,16	55,059
956,33	56,137
956,50	60,337
956,67	54,342
956,84	54,444
957,01	60,062
957,18	56,984
957,35	56,988
957,52	60,738
957,68	59,417
957,85	58,979
958,02	58,742
958,19	61,184
958,36	61,702
958,53	63,594
958,70	63,620
958,87	61,448
959,04	62,591
959,21	62,929
959,37	66,126
959,54	66,703
959,71	63,102
959,88	64,544
960,05	67,219
960,22	65,799
960,39	74,667
960,56	67,342
960,72	65,370
960,89	67,554
961,06	74,268
961,23	73,654
961,40	68,543
961,57	67,760
961,74	73,576
961,90	70,781
962,07	66,058
962,24	71,870
962,41	67,839
962,58	80,551
962,75	68,142
962,92	74,206
963,08	73,818
963,25	65,946
963,42	84,058
963,59	73,967
963,76	76,854
963,93	78,490
964,10	73,448
964,26	75,439
964,43	83,721
964,60	65,026
964,77	67,470
964,94	81,534
965,10	87,202
965,27	88,512
965,44	82,078
965,61	70,248
965,78	80,511
965,95	82,335
966,11	79,876
966,28	94,052
966,45	77,259
966,62	91,385
966,79	97,959
966,95	77,612
967,12	77,603
967,29	73,264
967,46	83,333
967,63	81,887
967,79	108,108
967,96	74,892
968,13	61,500
968,30	85,887
968,47	80,412
968,63	111,712
968,80	79,358
968,97	93,750
969,14	106,395
969,31	94,444
969,47	130,000
969,64	111,616
969,81	81,865
969,98	100,000
970,14	92,025
970,31	71,698
970,48	100,000
970,65	110,059
970,81	101,370
970,98	163,504
971,15	162,245
971,32	117,969
971,48	120,408
971,65	93,077
971,82	118,627
971,99	166,667
972,15	123,239
972,32	125,225
972,49	119,580
972,66	130,909
972,82	158,140
972,99	126,016
973,16	179,310
973,33	130,357
973,49	133,684
973,66	153,763
973,83	158,252
974,00	182,558
974,16	137,255
974,33	162,281
974,50	112,632
974,67	136,842
974,83	126,190
975,00	141,053
975,17	141,758
975,33	158,427
975,50	156,716
975,67	204,082
975,84	174,627
976,00	139,326
976,17	195,082
976,34	105,000
976,50	162,921
976,67	121,359
976,84	2900,000
977,00	287,755
977,17	240,000
977,34	205,495
977,50	147,761
977,67	244,643
977,84	206,452
978,01	253,191
978,17	811,111
978,34	247,222
978,51	308,824
978,67	146,053
978,84	139,062
979,01	348,649
979,17	225,641
979,34	121,918
979,51	236,735
979,67	180,247
979,84	300,000
980,01	253,333
980,17	235,211
980,34	477,778
980,51	189,855
980,67	121,176
980,84	556,667
981,01	605,000
981,17	532,000
981,34	1011,111
981,50	220,588
981,67	289,831
981,84	5200,000
982,00	323,333
982,17	245,238
982,34	156,667
982,50	546,667
982,67	155,208
982,84	2300,000
983,00	1833,333
983,17	152,239
983,33	136,207
983,50	1460,000
983,67	-255,172
983,83	290,909
984,00	-1714,286
984,17	527,778
984,33	-5500,000
984,50	328,571
984,66	247,826
984,83	125,974
985,00	-420,833
985,16	286,207
985,33	823,529
985,49	661,111
985,66	391,176
985,83	256,522
985,99	294,872
986,16	-2000,000
986,32	600,000
986,49	7300,000
986,66	412,121
986,82	500,000
986,99	284,906
987,15	-500,000
987,32	-364,286
987,49	256,000
987,65	6450,000
987,82	254,167
987,98	314,286
988,15	370,000
988,31	1160,000
988,48	-1600,000
988,65	400,000
988,81	397,222
988,98	397,561
989,14	319,048
989,31	404,762
989,47	300,000
989,64	-669,231
989,80	650,000
989,97	405,405
990,14	-189,130
990,30	-318,182
990,47	330,612
990,63	300,000
990,80	206,000
990,96	-595,000
991,13	462,500
991,29	434,483
991,46	0,000
991,62	-700,000
991,79	1033,333
991,95	13800,000
992,12	-1390,000
992,29	-400,000
992,45	136,471
992,62	302,326
992,78	286,364
992,95	-493,333
993,11	396,429
993,28	1330,000
993,44	-860,000
993,61	-468,750
993,77	-2475,000
993,94	-3833,333
994,10	-101,333
994,27	652,632
994,43	237,209
994,60	0,000
994,76	875,000
994,93	340,000
995,09	-588,235
995,26	1233,333
995,42	241,176
995,59	580,952
995,75	1176,923
995,92	2257,143
996,08	394,444
996,25	-1250,000
996,41	-5150,000
996,58	720,000
996,74	377,273
996,91	468,966
997,07	0,000
997,23	7200,000
997,40	-13400,000
997,56	-707,692
997,73	-1587,500
997,89	328,947
998,06	723,077
998,22	-483,333
998,39	460,000
998,55	1133,333
998,72	-2075,000
998,88	-333,333
999,05	-110,256
999,21	342,857
999,37	-460,000
999,54	-1033,333
999,70	-280,000
999,87	818,750
1000,03	387,179
1000,20	250,000
1000,36	0,000
1000,52	450,000
1000,69	-547,619
1000,85	-1050,000
1001,02	-475,000
1001,18	2475,000
1001,35	1000,000
1001,51	447,059
1001,67	-938,462
1001,84	-1740,000
1002,00	410,811
1002,17	545,455
1002,33	-2575,000
1002,50	480,952
1002,66	-784,615
1002,82	382,500
1002,99	871,429
1003,15	-1671,429
1003,32	-727,273
1003,48	303,571
1003,64	753,333
1003,81	418,519
1003,97	-3100,000
1004,14	709,091
1004,30	306,667
1004,46	-373,333
1004,63	885,714
1004,79	308,333
1004,95	693,333
1005,12	4300,000
1005,28	493,103
1005,45	345,946
1005,61	293,103
1005,77	-175,000
1005,94	-419,048
1006,10	-5400,000
1006,26	876,923
1006,43	-300,000
1006,59	-1427,273
1006,76	1057,143
1006,92	1344,444
1007,08	10900,000
1007,25	-207,407
1007,41	344,828
1007,57	4500,000
1007,74	1130,000
1007,90	-355,172
1008,06	310,870
1008,23	835,294
1008,39	-350,000
1008,55	-330,769
1008,72	-1885,714
1008,88	0,000
1009,04	251,220
1009,21	-157,895
1009,37	-716,667
1009,53	250,000
1009,70	1700,000
1009,86	-600,000
1010,02	4200,000
1010,19	1236,364
1010,35	251,471
1010,51	-4750,000
1010,68	-1100,000
1010,84	-168,182
1011,00	612,500
1011,17	-309,091
1011,33	0,000
1011,49	-686,667
1011,66	657,143
1011,82	474,194
1011,98	657,143
1012,14	-500,000
1012,31	310,256
1012,47	0,000
1012,63	1333,333
1012,80	707,143
1012,96	-787,500
1013,12	-1516,667
1013,29	666,667
1013,45	339,024
1013,61	4633,333
1013,77	-148,214
1013,94	2020,000
1014,10	138,983
1014,26	-2925,000
1014,43	-340,000
1014,59	595,000
1014,75	-600,000
1014,91	-466,667
1015,08	511,111
1015,24	10600,000
1015,40	541,176
1015,56	-12300,000
1015,73	97,619
1015,89	981,818
1016,05	3000,000
1016,21	-512,500
1016,38	689,474
1016,54	992,308
1016,70	-3466,667
1016,86	475,000
1017,03	700,000
1017,19	-792,308
1017,35	-694,118
1017,51	-1560,000
1017,68	-980,000
1017,84	-1328,571
1018,00	204,762
1018,16	357,692
1018,33	-1171,429
1018,49	-541,667
1018,65	-235,135
1018,81	264,103
1018,97	-1600,000
1019,14	-2900,000
1019,30	-253,846
1019,46	0,000
1019,62	-705,882
1019,79	-4000,000
1019,95	1216,667
1020,11	5200,000
1020,27	-214,815
1020,43	-311,538
1020,60	1616,667
1020,76	794,444
1020,92	820,000
1021,08	575,000
1021,24	930,000
1021,41	1455,556
1021,57	1337,500
1021,73	715,385
1021,89	2560,000
1022,05	-407,143
1022,21	425,000
1022,38	-441,667
1022,54	-1816,667
1022,70	295,556
1022,86	-1587,500
1023,02	545,833
1023,19	2280,000
1023,35	3733,333
1023,51	475,000
1023,67	429,630
1023,83	-443,750
1023,99	273,684
1024,16	-326,923
1024,32	-1088,889
1024,48	-420,000
1024,64	264,286
1024,80	308,696
1024,96	300,000
1025,12	376,190
1025,29	361,905
1025,45	352,632
1025,61	561,111
1025,77	-2260,000
1025,93	-4900,000
1026,09	-957,143
1026,26	725,000
1026,42	518,750
1026,58	403,030
1026,74	1750,000
1026,90	300,000
1027,06	307,143
1027,22	1000,000
1027,38	265,385
1027,55	2800,000
1027,71	1116,667
1027,87	-396,000
1028,03	1090,000
1028,19	293,750
1028,35	635,000
1028,51	1920,000
1028,67	933,333
1028,83	-2325,000
1029,00	-211,905
1029,16	1280,000
1029,32	-300,000
1029,48	291,111
1029,64	311,111
1029,80	6150,000
1029,96	840,000
1030,12	582,609
1030,28	-2166,667
1030,44	-676,923
1030,61	-345,833
1030,77	-114,286
1030,93	-773,333
1031,09	1600,000
1031,25	-7400,000
1031,41	-236,667
1031,57	261,538
1031,73	575,000
1031,89	-963,636
1032,05	-211,111
1032,21	618,182
1032,37	-157,407
1032,53	-785,714
1032,69	-225,000
1032,86	388,889
1033,02	-245,000
1033,18	-618,750
1033,34	400,000
1033,50	-5100,000
1033,66	-241,463
1033,82	382,609
1033,98	-355,556
1034,14	155,128
1034,30	422,581
1034,46	-3700,000
1034,62	605,000
1034,78	-466,667
1034,94	218,421
1035,10	-515,385
1035,26	-134,884
1035,42	-144,828
1035,58	-511,111
1035,74	583,333
1035,90	-653,846
1036,06	-1150,000
1036,22	1800,000
1036,38	-558,824
1036,54	-220,833
1036,70	-136,364
1036,86	11600,000
1037,02	427,778
1037,18	805,263
1037,34	138,095
1037,50	-224,390
1037,66	-476,471
1037,82	2780,000
1037,98	-477,778
1038,14	-176,000
1038,30	-800,000
1038,46	-542,857
1038,62	626,087
1038,78	-2533,333
1038,94	-489,474
1039,10	500,000
1039,26	355,556
1039,42	-816,667
1039,58	1814,286
1039,74	-605,263
1039,90	287,500
1040,06	-288,462
>>>>>End Processed Spectral Data<<<<<
